Freq.,VOut,OutRef

1.00000000000000e+004,-1.17825631889940e+001,-8.20659429298119e-002

1.01395947979003e+004,-1.17825648853550e+001,-8.32112531707598e-002

1.02811382665607e+004,-1.17825666293437e+001,-8.43725391429888e-002

1.04246576084112e+004,-1.17825684222955e+001,-8.55500233423757e-002

1.05701804056138e+004,-1.17825702655831e+001,-8.67439313484314e-002

1.07177346253629e+004,-1.17825721606175e+001,-8.79544918665237e-002

1.08673486252606e+004,-1.17825741088495e+001,-8.91819367706936e-002

1.10190511587661e+004,-1.17825761117698e+001,-9.04265011485178e-002

1.11728713807222e+004,-1.17825781709114e+001,-9.16884233404081e-002

1.13288388529580e+004,-1.17825802878498e+001,-9.29679449903448e-002

1.14869835499703e+004,-1.17825824642046e+001,-9.42653110843689e-002

1.16473358646846e+004,-1.17825847016404e+001,-9.55807700018590e-002

1.18099266142953e+004,-1.17825870018685e+001,-9.69145735582720e-002

1.19747870461893e+004,-1.17825893666482e+001,-9.82669770496259e-002

1.21419488439505e+004,-1.17825917977875e+001,-9.96382393061411e-002

1.23114441334492e+004,-1.17825942971450e+001,-1.01028622734827e-001

1.24833054890161e+004,-1.17825968666311e+001,-1.02438393369509e-001

1.26575659397028e+004,-1.17825995082097e+001,-1.03867820922037e-001

1.28342589756290e+004,-1.17826022238988e+001,-1.05317178829938e-001

1.30134185544193e+004,-1.17826050157739e+001,-1.06786744303117e-001

1.31950791077289e+004,-1.17826078859670e+001,-1.08276798384263e-001

1.33792755478611e+004,-1.17826108366704e+001,-1.09787625991306e-001

1.35660432744767e+004,-1.17826138701372e+001,-1.11319515974036e-001

1.37554181813974e+004,-1.17826169886831e+001,-1.12872761167630e-001

1.39474366635040e+004,-1.17826201946886e+001,-1.14447658443368e-001

1.41421356237309e+004,-1.17826234906004e+001,-1.16044508764219e-001

1.43395524801583e+004,-1.17826268789330e+001,-1.17663617242686e-001

1.45397251732031e+004,-1.17826303622710e+001,-1.19305293191792e-001

1.47426921729110e+004,-1.17826339432710e+001,-1.20969850182687e-001

1.49484924863494e+004,-1.17826376246636e+001,-1.22657606103191e-001

1.51571656651040e+004,-1.17826414092550e+001,-1.24368883213460e-001

1.53687518128801e+004,-1.17826452999295e+001,-1.26104008207113e-001

1.55832915932100e+004,-1.17826492996513e+001,-1.27863312268015e-001

1.58008262372675e+004,-1.17826534114673e+001,-1.29647131129066e-001

1.60213975517924e+004,-1.17826576385089e+001,-1.31455805135610e-001

1.62450479271247e+004,-1.17826619839941e+001,-1.33289679304187e-001

1.64718203453514e+004,-1.17826664512305e+001,-1.35149103385976e-001

1.67017583885674e+004,-1.17826710436171e+001,-1.37034431929791e-001

1.69349062472505e+004,-1.17826757646475e+001,-1.38946024341844e-001

1.71713087287550e+004,-1.17826806179118e+001,-1.40884244954370e-001

1.74110112659224e+004,-1.17826856070996e+001,-1.42849463088593e-001

1.76540599258131e+004,-1.17826907360025e+001,-1.44842053119939e-001

1.79005014185594e+004,-1.17826960085173e+001,-1.46862394544661e-001

1.81503831063432e+004,-1.17827014286487e+001,-1.48910872045352e-001

1.84037530124975e+004,-1.17827070005114e+001,-1.50987875564706e-001

1.86606598307361e+004,-1.17827127283345e+001,-1.53093800365426e-001

1.89211529345119e+004,-1.17827186164635e+001,-1.55229047105997e-001

1.91852823865052e+004,-1.17827246693643e+001,-1.57394021907343e-001

1.94530989482457e+004,-1.17827308916255e+001,-1.59589136426206e-001

1.97246540898671e+004,-1.17827372879626e+001,-1.61814807925588e-001

1.99999999999999e+004,-1.17827438632208e+001,-1.64071459346808e-001

2.02791895958005e+004,-1.17827506223789e+001,-1.66359519383259e-001

2.05622765331213e+004,-1.17827575705529e+001,-1.68679422552683e-001

2.08493152168224e+004,-1.17827647129993e+001,-1.71031609275780e-001

2.11403608112276e+004,-1.17827720551194e+001,-1.73416525945728e-001

2.14354692507258e+004,-1.17827796024623e+001,-1.75834625012984e-001

2.17346972505211e+004,-1.17827873607305e+001,-1.78286365051778e-001

2.20381023175322e+004,-1.17827953357821e+001,-1.80772210846266e-001

2.23457427614443e+004,-1.17828035336363e+001,-1.83292633465767e-001

2.26576777059159e+004,-1.17828119604768e+001,-1.85848110344702e-001

2.29739670999406e+004,-1.17828206226573e+001,-1.88439125361192e-001

2.32946717293690e+004,-1.17828295267050e+001,-1.91066168918240e-001

2.36198532285905e+004,-1.17828386793254e+001,-1.93729738029067e-001

2.39495740923785e+004,-1.17828480874073e+001,-1.96430336394277e-001

2.42838976879009e+004,-1.17828577580279e+001,-1.99168474486697e-001

2.46228882668982e+004,-1.17828676984566e+001,-2.01944669639031e-001

2.49666109780322e+004,-1.17828779161621e+001,-2.04759446118958e-001

2.53151318794055e+004,-1.17828884188151e+001,-2.07613335226773e-001

2.56685179512580e+004,-1.17828992142960e+001,-2.10506875370409e-001

2.60268371088386e+004,-1.17829103106989e+001,-2.13440612158756e-001

2.63901582154578e+004,-1.17829217163376e+001,-2.16415098486131e-001

2.67585510957221e+004,-1.17829334397514e+001,-2.19430894622291e-001

2.71320865489533e+004,-1.17829454897113e+001,-2.22488568298813e-001

2.75108363627948e+004,-1.17829578752254e+001,-2.25588694799240e-001

2.78948733270080e+004,-1.17829706055451e+001,-2.28731857052060e-001

2.82842712474618e+004,-1.17829836901720e+001,-2.31918645717560e-001

2.86791049603164e+004,-1.17829971388640e+001,-2.35149659279605e-001

2.90794503464061e+004,-1.17830109616417e+001,-2.38425504140387e-001

2.94853843458219e+004,-1.17830251687953e+001,-2.41746794709622e-001

2.98969849726987e+004,-1.17830397708917e+001,-2.45114153499532e-001

3.03143313302078e+004,-1.17830547787812e+001,-2.48528211219401e-001

3.07375036257601e+004,-1.17830702036049e+001,-2.51989606867193e-001

3.11665831864199e+004,-1.17830860568026e+001,-2.55498987823831e-001

3.16016524745350e+004,-1.17831023501190e+001,-2.59057009954312e-001

3.20427951035848e+004,-1.17831190956130e+001,-2.62664337693819e-001

3.24900958542493e+004,-1.17831363056645e+001,-2.66321644151988e-001

3.29436406907028e+004,-1.17831539929825e+001,-2.70029611207029e-001

3.34035167771346e+004,-1.17831721706142e+001,-2.73788929598311e-001

3.38698124945009e+004,-1.17831908519523e+001,-2.77600299031549e-001

3.43426174575100e+004,-1.17832100507444e+001,-2.81464428266607e-001

3.48220225318448e+004,-1.17832297811008e+001,-2.85382035226004e-001

3.53081198516260e+004,-1.17832500575049e+001,-2.89353847082850e-001

3.58010028371187e+004,-1.17832708948206e+001,-2.93380600365599e-001

3.63007662126863e+004,-1.17832923083029e+001,-2.97463041054914e-001

3.68075060249948e+004,-1.17833143136069e+001,-3.01601924679089e-001

3.73213196614721e+004,-1.17833369267973e+001,-3.05798016417263e-001

3.78423058690237e+004,-1.17833601643583e+001,-3.10052091195518e-001

3.83705647730104e+004,-1.17833840432035e+001,-3.14364933787262e-001

3.89061978964912e+004,-1.17834085806872e+001,-3.18737338906058e-001

3.94493081797342e+004,-1.17834337946127e+001,-3.23170111313727e-001

3.99999999999998e+004,-1.17834597032451e+001,-3.27664065909043e-001

4.05583791916010e+004,-1.17834863253204e+001,-3.32220027832560e-001

4.11245530662425e+004,-1.17835136800574e+001,-3.36838832560401e-001

4.16986304336447e+004,-1.17835417871684e+001,-3.41521326003809e-001

4.22807216224550e+004,-1.17835706668707e+001,-3.46268364605233e-001

4.28709385014515e+004,-1.17836003398980e+001,-3.51080815434170e-001

4.34693945010421e+004,-1.17836308275122e+001,-3.55959556285794e-001

4.40762046350642e+004,-1.17836621515148e+001,-3.60905475773126e-001

4.46914855228886e+004,-1.17836943342598e+001,-3.65919473424325e-001

4.53153554118317e+004,-1.17837273986650e+001,-3.71002459773752e-001

4.59479341998812e+004,-1.17837613682248e+001,-3.76155356458747e-001

4.65893434587380e+004,-1.17837962670226e+001,-3.81379096309996e-001

4.72397064571810e+004,-1.17838321197434e+001,-3.86674623442204e-001

4.78991481847569e+004,-1.17838689516870e+001,-3.92042893343953e-001

4.85677953758016e+004,-1.17839067887804e+001,-3.97484872969966e-001

4.92457765337964e+004,-1.17839456575913e+001,-4.03001540824429e-001

4.99332219560642e+004,-1.17839855853412e+001,-4.08593887050836e-001

5.06302637588109e+004,-1.17840265999186e+001,-4.14262913515198e-001

5.13370359025159e+004,-1.17840687298929e+001,-4.20009633888545e-001

5.20536742176771e+004,-1.17841120045274e+001,-4.25835073732662e-001

5.27803164309155e+004,-1.17841564537933e+001,-4.31740270576406e-001

5.35171021914442e+004,-1.17842021083835e+001,-4.37726273993887e-001

5.42641730979066e+004,-1.17842489997261e+001,-4.43794145683040e-001

5.50216727255895e+004,-1.17842971599985e+001,-4.49944959539291e-001

5.57897466540159e+004,-1.17843466221413e+001,-4.56179801724920e-001

5.65685424949235e+004,-1.17843974198717e+001,-4.62499770743375e-001

5.73582099206328e+004,-1.17844495876985e+001,-4.68905977502303e-001

5.81589006928121e+004,-1.17845031609346e+001,-4.75399545381413e-001

5.89707686916437e+004,-1.17845581757123e+001,-4.81981610292495e-001

5.97939699453972e+004,-1.17846146689959e+001,-4.88653320741233e-001

6.06286626604156e+004,-1.17846726785961e+001,-4.95415837881642e-001

6.14750072515201e+004,-1.17847322431836e+001,-5.02270335571355e-001

6.23331663728396e+004,-1.17847934023024e+001,-5.09218000421364e-001

6.32033049490698e+004,-1.17848561963831e+001,-5.16260031844070e-001

6.40855902071694e+004,-1.17849206667565e+001,-5.23397642095629e-001

6.49801917084985e+004,-1.17849868556663e+001,-5.30632056319254e-001

6.58872813814055e+004,-1.17850548062815e+001,-5.37964512579831e-001

6.68070335542691e+004,-1.17851245627095e+001,-5.45396261897332e-001

6.77396249890018e+004,-1.17851961700076e+001,-5.52928568279798e-001

6.86852349150199e+004,-1.17852696741952e+001,-5.60562708743711e-001

6.96440450636895e+004,-1.17853451222650e+001,-5.68299973339588e-001

7.06162397032520e+004,-1.17854225621938e+001,-5.76141665168505e-001

7.16020056742374e+004,-1.17855020429535e+001,-5.84089100393991e-001

7.26015324253724e+004,-1.17855836145202e+001,-5.92143608253074e-001

7.36150120499896e+004,-1.17856673278844e+001,-6.00306531060242e-001

7.46426393229441e+004,-1.17857532350591e+001,-6.08579224206213e-001

7.56846117380472e+004,-1.17858413890884e+001,-6.16963056155016e-001

7.67411295460207e+004,-1.17859318440541e+001,-6.25459408436346e-001

7.78123957929823e+004,-1.17860246550833e+001,-6.34069675627293e-001

7.88986163594682e+004,-1.17861198783526e+001,-6.42795265339239e-001

7.99999999999995e+004,-1.17862175710944e+001,-6.51637598191068e-001

8.11167583832018e+004,-1.17863177915994e+001,-6.60598107783533e-001

8.22491061324848e+004,-1.17864205992200e+001,-6.69678240664498e-001

8.33972608672892e+004,-1.17865260543716e+001,-6.78879456292974e-001

8.45614432449099e+004,-1.17866342185330e+001,-6.88203226997543e-001

8.57418770029029e+004,-1.17867451542456e+001,-6.97651037926462e-001

8.69387890020841e+004,-1.17868589251107e+001,-7.07224387000613e-001

8.81524092701283e+004,-1.17869755957863e+001,-7.16924784852641e-001

8.93829710457770e+004,-1.17870952319813e+001,-7.26753754769720e-001

9.06307108236633e+004,-1.17872179004489e+001,-7.36712832628890e-001

9.18958683997622e+004,-1.17873436689780e+001,-7.46803566824636e-001

9.31786869174758e+004,-1.17874726063822e+001,-7.57027518199796e-001

9.44794129143618e+004,-1.17876047824885e+001,-7.67386259965705e-001

9.57982963695136e+004,-1.17877402681217e+001,-7.77881377624013e-001

9.71355907516031e+004,-1.17878791350890e+001,-7.88514468881189e-001

9.84915530675926e+004,-1.17880214561603e+001,-7.99287143564061e-001

9.98664439121282e+004,-1.17881673050481e+001,-8.10201023526985e-001

1.01260527517622e+005,-1.17883167563835e+001,-8.21257742565270e-001

1.02674071805032e+005,-1.17884698856901e+001,-8.32458946317397e-001

1.04107348435354e+005,-1.17886267693556e+001,-8.43806292173488e-001

1.05560632861831e+005,-1.17887874846005e+001,-8.55301449177643e-001

1.07034204382888e+005,-1.17889521094431e+001,-8.66946097933567e-001

1.08528346195813e+005,-1.17891207226631e+001,-8.78741930508381e-001

1.10043345451179e+005,-1.17892934037602e+001,-8.90690650339375e-001

1.11579493308032e+005,-1.17894702329111e+001,-9.02793972139692e-001

1.13137084989847e+005,-1.17896512909221e+001,-9.15053621809617e-001

1.14716419841265e+005,-1.17898366591787e+001,-9.27471336349080e-001

1.16317801385624e+005,-1.17900264195914e+001,-9.40048863774636e-001

1.17941537383287e+005,-1.17902206545380e+001,-9.52787963043565e-001

1.19587939890794e+005,-1.17904194468021e+001,-9.65690403980377e-001

1.21257325320831e+005,-1.17906228795072e+001,-9.78757967214987e-001

1.22950014503040e+005,-1.17908310360475e+001,-9.91992444126492e-001

1.24666332745679e+005,-1.17910440000141e+001,-1.00539563679641e+000

1.26406609898139e+005,-1.17912618551169e+001,-1.01896935797596e+000

1.28171180414339e+005,-1.17914846851031e+001,-1.03271543106097e+000

1.29960383416997e+005,-1.17917125736696e+001,-1.04663569008430e+000

1.31774562762811e+005,-1.17919456043727e+001,-1.06073197972355e+000

1.33614067108538e+005,-1.17921838605321e+001,-1.07500615532181e+000

1.35479249978003e+005,-1.17924274251308e+001,-1.08946008293153e+000

1.37370469830040e+005,-1.17926763807102e+001,-1.10409563937566e+000

1.39288090127379e+005,-1.17929308092605e+001,-1.11891471233166e+000

1.41232479406504e+005,-1.17931907921063e+001,-1.13391920043962e+000

1.43204011348474e+005,-1.17934564097876e+001,-1.14911101343645e+000

1.45203064850745e+005,-1.17937277419361e+001,-1.16449207231681e+000

1.47230024099979e+005,-1.17940048671463e+001,-1.18006430952409e+000

1.49285278645888e+005,-1.17942878628423e+001,-1.19582966917577e+000

1.51369223476094e+005,-1.17945768051402e+001,-1.21179010731974e+000

1.53482259092041e+005,-1.17948717687049e+001,-1.22794759222730e+000

1.55624791585964e+005,-1.17951728266033e+001,-1.24430410472936e+000

1.57797232718936e+005,-1.17954800501527e+001,-1.26086163858634e+000

1.59999999999999e+005,-1.17957935087647e+001,-1.27762220090848e+000

1.62233516766403e+005,-1.17961132697853e+001,-1.29458781261726e+000

1.64498212264969e+005,-1.17964393983306e+001,-1.31176050895702e+000

1.66794521734578e+005,-1.17967719571191e+001,-1.32914234005643e+000

1.69122886489819e+005,-1.17971110062996e+001,-1.34673537154430e+000

1.71483754005805e+005,-1.17974566032768e+001,-1.36454168521839e+000

1.73877578004168e+005,-1.17978088025327e+001,-1.38256337977479e+000

1.76304818540256e+005,-1.17981676554462e+001,-1.40080257159500e+000

1.78765942091554e+005,-1.17985332101090e+001,-1.41926139559841e+000

1.81261421647326e+005,-1.17989055111404e+001,-1.43794200615504e+000

1.83791736799524e+005,-1.17992845994999e+001,-1.45684657807066e+000

1.86357373834951e+005,-1.17996705122981e+001,-1.47597730763734e+000

1.88958825828723e+005,-1.18000632826071e+001,-1.49533641375533e+000

1.91596592739027e+005,-1.18004629392702e+001,-1.51492613913019e+000

1.94271181503206e+005,-1.18008695067114e+001,-1.53474875154268e+000

1.96983106135185e+005,-1.18012830047457e+001,-1.55480654519470e+000

1.99732887824256e+005,-1.18017034483906e+001,-1.57510184213503e+000

2.02521055035243e+005,-1.18021308476782e+001,-1.59563699376290e+000

2.05348143610063e+005,-1.18025652074711e+001,-1.61641438241208e+000

2.08214696870707e+005,-1.18030065272792e+001,-1.63743642301671e+000

2.11121265723661e+005,-1.18034548010818e+001,-1.65870556485719e+000

2.14068408765776e+005,-1.18039100171527e+001,-1.68022429339146e+000

2.17056692391625e+005,-1.18043721578899e+001,-1.70199513216487e+000

2.20086690902357e+005,-1.18048411996520e+001,-1.72402064480468e+000

2.23158986616063e+005,-1.18053171125994e+001,-1.74630343709713e+000

2.26274169979693e+005,-1.18057998605431e+001,-1.76884615914266e+000

2.29432839682530e+005,-1.18062894008008e+001,-1.79165150759558e+000

2.32635602771247e+005,-1.18067856840622e+001,-1.81472222797704e+000

2.35883074766574e+005,-1.18072886542617e+001,-1.83806111707099e+000

2.39175879781588e+005,-1.18077982484629e+001,-1.86167102539026e+000

2.42514650641661e+005,-1.18083143967515e+001,-1.88555485971926e+000

2.45900029006080e+005,-1.18088370221418e+001,-1.90971558572337e+000

2.49332665491357e+005,-1.18093660404926e+001,-1.93415623062797e+000

2.52813219796278e+005,-1.18099013604376e+001,-1.95887988595931e+000

2.56342360828676e+005,-1.18104428833285e+001,-1.98388971034423e+000

2.59920766833993e+005,-1.18109905031911e+001,-2.00918893236913e+000

2.63549125525621e+005,-1.18115441066973e+001,-2.03478085348499e+000

2.67228134217075e+005,-1.18121035731509e+001,-2.06066885096221e+000

2.70958499956006e+005,-1.18126687744895e+001,-2.08685638088473e+000

2.74740939660078e+005,-1.18132395753025e+001,-2.11334698118014e+000

2.78576180254757e+005,-1.18138158328650e+001,-2.14014427467913e+000

2.82464958813007e+005,-1.18143973971885e+001,-2.16725197220102e+000

2.86408022696948e+005,-1.18149841110895e+001,-2.19467387565199e+000

2.90406129701488e+005,-1.18155758102740e+001,-2.22241388113926e+000

2.94460048199957e+005,-1.18161723234409e+001,-2.25047598208692e+000

2.98570557291775e+005,-1.18167734724014e+001,-2.27886427235044e+000

3.02738446952187e+005,-1.18173790722180e+001,-2.30758294931951e+000

3.06964518184081e+005,-1.18179889313589e+001,-2.33663631700761e+000

3.11249583171928e+005,-1.18186028518715e+001,-2.36602878911495e+000

3.15594465437872e+005,-1.18192206295722e+001,-2.39576489206209e+000

3.19999999999997e+005,-1.18198420542535e+001,-2.42584926798560e+000

3.24467033532806e+005,-1.18204669099077e+001,-2.45628667768772e+000

3.28996424529938e+005,-1.18210949749667e+001,-2.48708200353558e+000

3.33589043469155e+005,-1.18217260225576e+001,-2.51824025229925e+000

3.38245772979638e+005,-1.18223598207728e+001,-2.54976655792787e+000

3.42967508011610e+005,-1.18229961329556e+001,-2.58166618424988e+000

3.47755156008335e+005,-1.18236347179980e+001,-2.61394452759926e+000

3.52609637080511e+005,-1.18242753306528e+001,-2.64660711935512e+000

3.57531884183106e+005,-1.18249177218562e+001,-2.67965962839374e+000

3.62522843294651e+005,-1.18255616390627e+001,-2.71310786344681e+000

3.67583473599047e+005,-1.18262068265892e+001,-2.74695777535791e+000

3.72714747669902e+005,-1.18268530259678e+001,-2.78121545924002e+000

3.77917651657445e+005,-1.18274999763076e+001,-2.81588715652342e+000

3.83193185478053e+005,-1.18281474146617e+001,-2.85097925689513e+000

3.88542363006410e+005,-1.18287950764004e+001,-2.88649830012477e+000

3.93966212270369e+005,-1.18294426955890e+001,-2.92245097777612e+000

3.99465775648511e+005,-1.18300900053674e+001,-2.95884413480412e+000

4.05042110070485e+005,-1.18307367383325e+001,-2.99568477103171e+000

4.10696287220124e+005,-1.18313826269207e+001,-3.03298004251232e+000

4.16429393741414e+005,-1.18320274037890e+001,-3.07073726277276e+000

4.22242531447321e+005,-1.18326708021949e+001,-3.10896390394215e+000

4.28136817531551e+005,-1.18333125563720e+001,-3.14766759776475e+000

4.34113384783250e+005,-1.18339524019013e+001,-3.18685613649929e+000

4.40173381804713e+005,-1.18345900760768e+001,-3.22653747371027e+000

4.46317973232124e+005,-1.18352253182636e+001,-3.26671972495060e+000

4.52548339959385e+005,-1.18358578702478e+001,-3.30741116834159e+000

4.58865679365059e+005,-1.18364874765775e+001,-3.34862024505404e+000

4.65271205542494e+005,-1.18371138848923e+001,-3.39035555969608e+000

4.71766149533147e+005,-1.18377368462427e+001,-3.43262588060892e+000

4.78351759563174e+005,-1.18383561153957e+001,-3.47544014008299e+000

4.85029301283321e+005,-1.18389714511282e+001,-3.51880743449415e+000

4.91800058012158e+005,-1.18395826165054e+001,-3.56273702436927e+000

4.98665330982714e+005,-1.18401893791452e+001,-3.60723833438810e+000

5.05626439592555e+005,-1.18407915114656e+001,-3.65232095332773e+000

5.12684721657352e+005,-1.18413887909181e+001,-3.69799463395518e+000

5.19841533667984e+005,-1.18419810002018e+001,-3.74426929287959e+000

5.27098251051240e+005,-1.18425679274627e+001,-3.79115501036714e+000

5.34456268434150e+005,-1.18431493664737e+001,-3.83866203012992e+000

5.41916999912011e+005,-1.18437251167982e+001,-3.88680075909239e+000

