Freq.,VOut,OutRef

1.00000000000000e+004,-9.59603673783181e-001,-9.67033542645286e-002

1.01395947979003e+004,-9.59603671434771e-001,-9.80532793999404e-002

1.02811382665607e+004,-9.59603669019658e-001,-9.94220486438758e-002

1.04246576084112e+004,-9.59603666535761e-001,-1.00809925045107e-001

1.05701804056138e+004,-9.59603663981247e-001,-1.02217175322392e-001

1.07177346253629e+004,-9.59603661354037e-001,-1.03644069918702e-001

1.08673486252606e+004,-9.59603658651987e-001,-1.05090883051822e-001

1.10190511587661e+004,-9.59603655872796e-001,-1.06557892767648e-001

1.11728713807222e+004,-9.59603653014607e-001,-1.08045380990683e-001

1.13288388529580e+004,-9.59603650074770e-001,-1.09553633584291e-001

1.14869835499703e+004,-9.59603647051088e-001,-1.11082940399389e-001

1.16473358646846e+004,-9.59603643941223e-001,-1.12633595332696e-001

1.18099266142953e+004,-9.59603640742519e-001,-1.14205896385248e-001

1.19747870461893e+004,-9.59603637452561e-001,-1.15800145715213e-001

1.21419488439505e+004,-9.59603634068478e-001,-1.17416649700856e-001

1.23114441334492e+004,-9.59603630587662e-001,-1.19055718994965e-001

1.24833054890161e+004,-9.59603627007378e-001,-1.20717668586730e-001

1.26575659397028e+004,-9.59603623324596e-001,-1.22402817862835e-001

1.28342589756290e+004,-9.59603619536470e-001,-1.24111490666958e-001

1.30134185544193e+004,-9.59603615639906e-001,-1.25844015363394e-001

1.31950791077289e+004,-9.59603611631576e-001,-1.27600724900949e-001

1.33792755478611e+004,-9.59603607508471e-001,-1.29381956872912e-001

1.35660432744767e+004,-9.59603603267084e-001,-1.31188053587573e-001

1.37554181813974e+004,-9.59603598903859e-001,-1.33019362130314e-001

1.39474366635040e+004,-9.59603594415481e-001,-1.34876234429049e-001

1.41421356237309e+004,-9.59603589798083e-001,-1.36759027326396e-001

1.43395524801583e+004,-9.59603585048068e-001,-1.38668102643827e-001

1.45397251732031e+004,-9.59603580161291e-001,-1.40603827255087e-001

1.47426921729110e+004,-9.59603575133948e-001,-1.42566573151972e-001

1.49484924863494e+004,-9.59603569961800e-001,-1.44556717520606e-001

1.51571656651040e+004,-9.59603564640629e-001,-1.46574642810202e-001

1.53687518128801e+004,-9.59603559165868e-001,-1.48620736809357e-001

1.55832915932100e+004,-9.59603553533279e-001,-1.50695392717209e-001

1.58008262372675e+004,-9.59603547737976e-001,-1.52799009222719e-001

1.60213975517924e+004,-9.59603541775225e-001,-1.54931990578648e-001

1.62450479271247e+004,-9.59603535639990e-001,-1.57094746680323e-001

1.64718203453514e+004,-9.59603529327328e-001,-1.59287693142860e-001

1.67017583885674e+004,-9.59603522831775e-001,-1.61511251384341e-001

1.69349062472505e+004,-9.59603516147781e-001,-1.63765848703525e-001

1.71713087287550e+004,-9.59603509270031e-001,-1.66051918361346e-001

1.74110112659224e+004,-9.59603502192542e-001,-1.68369899668174e-001

1.76540599258131e+004,-9.59603494909338e-001,-1.70720238064507e-001

1.79005014185594e+004,-9.59603487414387e-001,-1.73103385207428e-001

1.81503831063432e+004,-9.59603479701302e-001,-1.75519799057999e-001

1.84037530124975e+004,-9.59603471763305e-001,-1.77969943970197e-001

1.86606598307361e+004,-9.59603463593876e-001,-1.80454290776243e-001

1.89211529345119e+004,-9.59603455186005e-001,-1.82973316880496e-001

1.91852823865052e+004,-9.59603446532413e-001,-1.85527506351218e-001

1.94530989482457e+004,-9.59603437625594e-001,-1.88117350011455e-001

1.97246540898671e+004,-9.59603428457969e-001,-1.90743345533910e-001

1.99999999999999e+004,-9.59603419021678e-001,-1.93405997536817e-001

2.02791895958005e+004,-9.59603409308417e-001,-1.96105817682152e-001

2.05622765331213e+004,-9.59603399309757e-001,-1.98843324771267e-001

2.08493152168224e+004,-9.59603389017097e-001,-2.01619044845714e-001

2.11403608112276e+004,-9.59603378421281e-001,-2.04433511289180e-001

2.14354692507258e+004,-9.59603367513056e-001,-2.07287264928593e-001

2.17346972505211e+004,-9.59603356282866e-001,-2.10180854137633e-001

2.20381023175322e+004,-9.59603344720696e-001,-2.13114834944643e-001

2.23457427614443e+004,-9.59603332816425e-001,-2.16089771134578e-001

2.26576777059159e+004,-9.59603320559309e-001,-2.19106234363073e-001

2.29739670999406e+004,-9.59603307938595e-001,-2.22164804260334e-001

2.32946717293690e+004,-9.59603294942716e-001,-2.25266068548173e-001

2.36198532285905e+004,-9.59603281560281e-001,-2.28410623146745e-001

2.39495740923785e+004,-9.59603267778902e-001,-2.31599072295405e-001

2.42838976879009e+004,-9.59603253586346e-001,-2.34832028661965e-001

2.46228882668982e+004,-9.59603238969531e-001,-2.38110113466440e-001

2.49666109780322e+004,-9.59603223915187e-001,-2.41433956595312e-001

2.53151318794055e+004,-9.59603208409501e-001,-2.44804196725473e-001

2.56685179512580e+004,-9.59603192438109e-001,-2.48221481446522e-001

2.60268371088386e+004,-9.59603175986337e-001,-2.51686467382760e-001

2.63901582154578e+004,-9.59603159038911e-001,-2.55199820321828e-001

2.67585510957221e+004,-9.59603141579802e-001,-2.58762215341729e-001

2.71320865489533e+004,-9.59603123592931e-001,-2.62374336938331e-001

2.75108363627948e+004,-9.59603105061204e-001,-2.66036879159922e-001

2.78948733270080e+004,-9.59603085967116e-001,-2.69750545738443e-001

2.82842712474618e+004,-9.59603066292589e-001,-2.73516050223807e-001

2.86791049603164e+004,-9.59603046018641e-001,-2.77334116123823e-001

2.90794503464061e+004,-9.59603025126021e-001,-2.81205477038469e-001

2.94853843458219e+004,-9.59603003594415e-001,-2.85130876805269e-001

2.98969849726987e+004,-9.59602981403025e-001,-2.89111069638212e-001

3.03143313302078e+004,-9.59602958530239e-001,-2.93146820274483e-001

3.07375036257601e+004,-9.59602934953531e-001,-2.97238904121071e-001

3.11665831864199e+004,-9.59602910649874e-001,-3.01388107401357e-001

3.16016524745350e+004,-9.59602885595044e-001,-3.05595227309404e-001

3.20427951035848e+004,-9.59602859764102e-001,-3.09861072159986e-001

3.24900958542493e+004,-9.59602833131270e-001,-3.14186461543754e-001

3.29436406907028e+004,-9.59602805669713e-001,-3.18572226486154e-001

3.34035167771346e+004,-9.59602777351483e-001,-3.23019209605424e-001

3.38698124945009e+004,-9.59602748147958e-001,-3.27528265273177e-001

3.43426174575100e+004,-9.59602718028934e-001,-3.32100259781686e-001

3.48220225318448e+004,-9.59602686963555e-001,-3.36736071505068e-001

3.53081198516260e+004,-9.59602654919553e-001,-3.41436591071089e-001

3.58010028371187e+004,-9.59602621863498e-001,-3.46202721530977e-001

3.63007662126863e+004,-9.59602587760642e-001,-3.51035378532630e-001

3.68075060249948e+004,-9.59602552574953e-001,-3.55935490494835e-001

3.73213196614721e+004,-9.59602516269004e-001,-3.60903998787158e-001

3.78423058690237e+004,-9.59602478803971e-001,-3.65941857908074e-001

3.83705647730104e+004,-9.59602440139396e-001,-3.71050035670319e-001

3.89061978964912e+004,-9.59602400233440e-001,-3.76229513383452e-001

3.94493081797342e+004,-9.59602359042392e-001,-3.81481286044970e-001

3.99999999999998e+004,-9.59602316521043e-001,-3.86806362527430e-001

4.05583791916010e+004,-9.59602272622358e-001,-3.92205765774411e-001

4.11245530662425e+004,-9.59602227297366e-001,-3.97680532995332e-001

4.16986304336447e+004,-9.59602180495106e-001,-4.03231715864102e-001

4.22807216224550e+004,-9.59602132162784e-001,-4.08860380720325e-001

4.28709385014515e+004,-9.59602082245385e-001,-4.14567608772779e-001

4.34693945010421e+004,-9.59602030685525e-001,-4.20354496309352e-001

4.40762046350642e+004,-9.59601977423779e-001,-4.26222154902401e-001

4.46914855228886e+004,-9.59601922398098e-001,-4.32171711625287e-001

4.53153554118317e+004,-9.59601865544040e-001,-4.38204309265800e-001

4.59479341998812e+004,-9.59601806794431e-001,-4.44321106545785e-001

4.65893434587380e+004,-9.59601746079331e-001,-4.50523278343173e-001

4.72397064571810e+004,-9.59601683326145e-001,-4.56812015914792e-001

4.78991481847569e+004,-9.59601618458852e-001,-4.63188527127756e-001

4.85677953758016e+004,-9.59601551398667e-001,-4.69654036686415e-001

4.92457765337964e+004,-9.59601482063281e-001,-4.76209786369973e-001

4.99332219560642e+004,-9.59601410366992e-001,-4.82857035267936e-001

5.06302637588109e+004,-9.59601336220632e-001,-4.89597060021010e-001

5.13370359025159e+004,-9.59601259530975e-001,-4.96431155067035e-001

5.20536742176771e+004,-9.59601180201222e-001,-5.03360632885304e-001

5.27803164309155e+004,-9.59601098130014e-001,-5.10386824251027e-001

5.35171021914442e+004,-9.59601013212072e-001,-5.17511078486081e-001

5.42641730979066e+004,-9.59600925337434e-001,-5.24734763719267e-001

5.50216727255895e+004,-9.59600834391353e-001,-5.32059267147838e-001

5.57897466540159e+004,-9.59600740254224e-001,-5.39485995300374e-001

5.65685424949235e+004,-9.59600642801202e-001,-5.47016374308153e-001

5.73582099206328e+004,-9.59600541902032e-001,-5.54651850175736e-001

5.81589006928121e+004,-9.59600437420903e-001,-5.62393889056998e-001

5.89707686916437e+004,-9.59600329215922e-001,-5.70243977536733e-001

5.97939699453972e+004,-9.59600217138977e-001,-5.78203622913238e-001

6.06286626604156e+004,-9.59600101035543e-001,-5.86274353486385e-001

6.14750072515201e+004,-9.59599980744152e-001,-5.94457718849353e-001

6.23331663728396e+004,-9.59599856096283e-001,-6.02755290184608e-001

6.32033049490698e+004,-9.59599726915972e-001,-6.11168660563172e-001

6.40855902071694e+004,-9.59599593019295e-001,-6.19699445249217e-001

6.49801917084985e+004,-9.59599454214282e-001,-6.28349282008393e-001

6.58872813814055e+004,-9.59599310300166e-001,-6.37119831419797e-001

6.68070335542691e+004,-9.59599161067419e-001,-6.46012777192525e-001

6.77396249890018e+004,-9.59599006296896e-001,-6.55029826487794e-001

6.86852349150199e+004,-9.59598845759641e-001,-6.64172710243939e-001

6.96440450636895e+004,-9.59598679216501e-001,-6.73443183505354e-001

7.06162397032520e+004,-9.59598506417235e-001,-6.82843025759767e-001

7.16020056742374e+004,-9.59598327100419e-001,-6.92374041275133e-001

7.26015324253724e+004,-9.59598140992797e-001,-7.02038059444141e-001

7.36150120499896e+004,-9.59597947808438e-001,-7.11836935134192e-001

7.46426393229441e+004,-9.59597747248633e-001,-7.21772549038784e-001

7.56846117380472e+004,-9.59597539000896e-001,-7.31846808037385e-001

7.67411295460207e+004,-9.59597322738402e-001,-7.42061645558636e-001

7.78123957929823e+004,-9.59597098119390e-001,-7.52419021948210e-001

7.88986163594682e+004,-9.59596864786412e-001,-7.62920924842514e-001

7.99999999999995e+004,-9.59596622365538e-001,-7.73569369547392e-001

8.11167583832018e+004,-9.59596370465622e-001,-7.84366399422302e-001

8.22491061324848e+004,-9.59596108677619e-001,-7.95314086268048e-001

8.33972608672892e+004,-9.59595836573423e-001,-8.06414530723498e-001

8.45614432449099e+004,-9.59595553705323e-001,-8.17669862663693e-001

8.57418770029029e+004,-9.59595259604720e-001,-8.29082241607000e-001

8.69387890020841e+004,-9.59594953781461e-001,-8.40653857125308e-001

8.81524092701283e+004,-9.59594635722621e-001,-8.52386929260783e-001

8.93829710457770e+004,-9.59594304891651e-001,-8.64283708948973e-001

9.06307108236633e+004,-9.59593960726982e-001,-8.76346478447638e-001

9.18958683997622e+004,-9.59593602641081e-001,-8.88577551770820e-001

9.31786869174758e+004,-9.59593230019119e-001,-9.00979275129038e-001

9.44794129143618e+004,-9.59592842217799e-001,-9.13554027376974e-001

9.57982963695136e+004,-9.59592438563929e-001,-9.26304220465170e-001

9.71355907516031e+004,-9.59592018353134e-001,-9.39232299900094e-001

9.84915530675926e+004,-9.59591580848364e-001,-9.52340745209149e-001

9.98664439121282e+004,-9.59591125278317e-001,-9.65632070413409e-001

1.01260527517622e+005,-9.59590650836029e-001,-9.79108824505713e-001

1.02674071805032e+005,-9.59590156677125e-001,-9.92773591936070e-001

1.04107348435354e+005,-9.59589641918203e-001,-1.00662899310356e+000

1.05560632861831e+005,-9.59589105634813e-001,-1.02067768485689e+000

1.07034204382888e+005,-9.59588546859988e-001,-1.03492236099778e+000

1.08528346195813e+005,-9.59587964581973e-001,-1.04936575279703e+000

1.10043345451179e+005,-9.59587357742450e-001,-1.06401062951221e+000

1.11579493308032e+005,-9.59586725234170e-001,-1.07885979891767e+000

1.13137084989847e+005,-9.59586065899155e-001,-1.09391610783743e+000

1.14716419841265e+005,-9.59585378526066e-001,-1.10918244268971e+000

1.16317801385624e+005,-9.59584661848153e-001,-1.12466173003560e+000

1.17941537383287e+005,-9.59583914540545e-001,-1.14035693713876e+000

1.19587939890794e+005,-9.59583135217845e-001,-1.15627107253032e+000

1.21257325320831e+005,-9.59582322431460e-001,-1.17240718658313e+000

1.22950014503040e+005,-9.59581474666933e-001,-1.18876837209357e+000

1.24666332745679e+005,-9.59580590340955e-001,-1.20535776487297e+000

1.26406609898139e+005,-9.59579667798535e-001,-1.22217854434541e+000

1.28171180414339e+005,-9.59578705309855e-001,-1.23923393415547e+000

1.29960383416997e+005,-9.59577701067080e-001,-1.25652720278515e+000

1.31774562762811e+005,-9.59576653181238e-001,-1.27406166417677e+000

1.33614067108538e+005,-9.59575559678609e-001,-1.29184067836909e+000

1.35479249978003e+005,-9.59574418497294e-001,-1.30986765213862e+000

1.37370469830040e+005,-9.59573227483578e-001,-1.32814603965250e+000

1.39288090127379e+005,-9.59571984388165e-001,-1.34667934313015e+000

1.41232479406504e+005,-9.59570686862204e-001,-1.36547111351390e+000

1.43204011348474e+005,-9.59569332453313e-001,-1.38452495115055e+000

1.45203064850745e+005,-9.59567918601514e-001,-1.40384450648175e+000

1.47230024099979e+005,-9.59566442634817e-001,-1.42343348074431e+000

1.49285278645888e+005,-9.59564901764787e-001,-1.44329562668189e+000

1.51369223476094e+005,-9.59563293082138e-001,-1.46343474926563e+000

1.53482259092041e+005,-9.59561613551866e-001,-1.48385470642647e+000

1.55624791585964e+005,-9.59559860008496e-001,-1.50455940979725e+000

1.57797232718936e+005,-9.59558029151100e-001,-1.52555282546640e+000

1.59999999999999e+005,-9.59556117538206e-001,-1.54683897474186e+000

1.62233516766403e+005,-9.59554121582473e-001,-1.56842193492681e+000

1.64498212264969e+005,-9.59552037545397e-001,-1.59030584010683e+000

1.66794521734578e+005,-9.59549861531601e-001,-1.61249488194881e+000

1.69122886489819e+005,-9.59547589483346e-001,-1.63499331051068e+000

1.71483754005805e+005,-9.59545217174632e-001,-1.65780543506345e+000

1.73877578004168e+005,-9.59542740205032e-001,-1.68093562492689e+000

1.76304818540256e+005,-9.59540153993962e-001,-1.70438831031524e+000

1.78765942091554e+005,-9.59537453774207e-001,-1.72816798319630e+000

1.81261421647326e+005,-9.59534634585379e-001,-1.75227919816525e+000

1.83791736799524e+005,-9.59531691267713e-001,-1.77672657332692e+000

1.86357373834951e+005,-9.59528618455213e-001,-1.80151479119643e+000

1.88958825828723e+005,-9.59525410568911e-001,-1.82664859960841e+000

1.91596592739027e+005,-9.59522061809803e-001,-1.85213281264425e+000

1.94271181503206e+005,-9.59518566152057e-001,-1.87797231156819e+000

1.96983106135185e+005,-9.59514917335509e-001,-1.90417204578224e+000

1.99732887824256e+005,-9.59511108858670e-001,-1.93073703379087e+000

2.02521055035243e+005,-9.59507133971014e-001,-1.95767236418377e+000

2.05348143610063e+005,-9.59502985665581e-001,-1.98498319663031e+000

2.08214696870707e+005,-9.59498656671284e-001,-2.01267476289025e+000

2.11121265723661e+005,-9.59494139445093e-001,-2.04075236783965e+000

2.14068408765776e+005,-9.59489426164275e-001,-2.06922139050980e+000

2.17056692391625e+005,-9.59484508718196e-001,-2.09808728514480e+000

2.20086690902357e+005,-9.59479378700480e-001,-2.12735558227171e+000

2.23158986616063e+005,-9.59474027400684e-001,-2.15703188978842e+000

2.26274169979693e+005,-9.59468445796054e-001,-2.18712189406631e+000

2.29432839682530e+005,-9.59462624543232e-001,-2.21763136107023e+000

2.32635602771247e+005,-9.59456553969726e-001,-2.24856613749370e+000

2.35883074766574e+005,-9.59450224065465e-001,-2.27993215191140e+000

2.39175879781588e+005,-9.59443624474191e-001,-2.31173541594860e+000

2.42514650641661e+005,-9.59436744484899e-001,-2.34398202546645e+000

2.45900029006080e+005,-9.59429573022904e-001,-2.37667816176646e+000

2.49332665491357e+005,-9.59422098641227e-001,-2.40983009281045e+000

2.52813219796278e+005,-9.59414309511630e-001,-2.44344417445915e+000

2.56342360828676e+005,-9.59406193415912e-001,-2.47752685172778e+000

2.59920766833993e+005,-9.59397737736617e-001,-2.51208466006116e+000

2.63549125525621e+005,-9.59388929448272e-001,-2.54712422662508e+000

2.67228134217075e+005,-9.59379755108207e-001,-2.58265227161734e+000

2.70958499956006e+005,-9.59370200847470e-001,-2.61867560959682e+000

2.74740939660078e+005,-9.59360252361411e-001,-2.65520115083211e+000

2.78576180254757e+005,-9.59349894900736e-001,-2.69223590266775e+000

2.82464958813007e+005,-9.59339113262100e-001,-2.72978697091029e+000

2.86408022696948e+005,-9.59327891778478e-001,-2.76786156123517e+000

2.90406129701488e+005,-9.59316214310075e-001,-2.80646698060984e+000

2.94460048199957e+005,-9.59304064234564e-001,-2.84561063874061e+000

2.98570557291775e+005,-9.59291424437417e-001,-2.88530004953655e+000

3.02738446952187e+005,-9.59278277302532e-001,-2.92554283259422e+000

3.06964518184081e+005,-9.59264604702062e-001,-2.96634671470394e+000

3.11249583171928e+005,-9.59250387986692e-001,-3.00771953137566e+000

3.15594465437872e+005,-9.59235607975572e-001,-3.04966922838601e+000

3.19999999999997e+005,-9.59220244946217e-001,-3.09220386334570e+000

3.24467033532806e+005,-9.59204278624146e-001,-3.13533160728949e+000

3.28996424529938e+005,-9.59187688172327e-001,-3.17906074628723e+000

3.33589043469155e+005,-9.59170452180762e-001,-3.22339968307589e+000

3.38245772979638e+005,-9.59152548655507e-001,-3.26835693871444e+000

3.42967508011610e+005,-9.59133955007524e-001,-3.31394115426154e+000

3.47755156008335e+005,-9.59114648041719e-001,-3.36016109247389e+000

3.52609637080511e+005,-9.59094603945091e-001,-3.40702563952982e+000

3.57531884183106e+005,-9.59073798275169e-001,-3.45454380677427e+000

3.62522843294651e+005,-9.59052205947780e-001,-3.50272473248785e+000

3.67583473599047e+005,-9.59029801224695e-001,-3.55157768367978e+000

3.72714747669902e+005,-9.59006557700824e-001,-3.60111205790488e+000

3.77917651657445e+005,-9.58982448291196e-001,-3.65133738510444e+000

3.83193185478053e+005,-9.58957445217320e-001,-3.70226332947268e+000

3.88542363006410e+005,-9.58931519993276e-001,-3.75389969134777e+000

3.93966212270369e+005,-9.58904643411250e-001,-3.80625640912879e+000

3.99465775648511e+005,-9.58876785526740e-001,-3.85934356121800e+000

4.05042110070485e+005,-9.58847915643225e-001,-3.91317136798975e+000

4.10696287220124e+005,-9.58818002295973e-001,-3.96775019378673e+000

4.16429393741414e+005,-9.58787013235734e-001,-4.02309054894198e+000

4.22242531447321e+005,-9.58754915411551e-001,-4.07920309182996e+000

4.28136817531551e+005,-9.58721674953129e-001,-4.13609863094460e+000

4.34113384783250e+005,-9.58687257152194e-001,-4.19378812700665e+000

4.40173381804713e+005,-9.58651626443563e-001,-4.25228269509990e+000

4.46317973232124e+005,-9.58614746385272e-001,-4.31159360683645e+000

4.52548339959385e+005,-9.58576579638001e-001,-4.37173229255293e+000

4.58865679365059e+005,-9.58537087943525e-001,-4.43271034353665e+000

4.65271205542494e+005,-9.58496232102795e-001,-4.49453951428321e+000

4.71766149533147e+005,-9.58453971952616e-001,-4.55723172478631e+000

4.78351759563174e+005,-9.58410266341845e-001,-4.62079906285886e+000

4.85029301283321e+005,-9.58365073106545e-001,-4.68525378648802e+000

4.91800058012158e+005,-9.58318349044036e-001,-4.75060832622345e+000

4.98665330982714e+005,-9.58270049886389e-001,-4.81687528759974e+000

5.05626439592555e+005,-9.58220130272469e-001,-4.88406745359352e+000

5.12684721657352e+005,-9.58168543719164e-001,-4.95219778711660e+000

5.19841533667984e+005,-9.58115242591591e-001,-5.02127943354473e+000

5.27098251051240e+005,-9.58060178072159e-001,-5.09132572328358e+000

5.34456268434150e+005,-9.58003300128470e-001,-5.16235017437183e+000

5.41916999912011e+005,-9.57944557480205e-001,-5.23436649512325e+000

