Freq.,VOut,OutRef

1.00000000000000e+004,-1.71711208712174e+001,-1.00383807453445e-001

1.01395947979003e+004,-1.71711223949466e+001,-1.01784865566437e-001

1.02811382665607e+004,-1.71711239614589e+001,-1.03205471216652e-001

1.04246576084112e+004,-1.71711255719540e+001,-1.04645896832368e-001

1.05701804056138e+004,-1.71711272276654e+001,-1.06106418623883e-001

1.07177346253629e+004,-1.71711289298609e+001,-1.07587316639099e-001

1.08673486252606e+004,-1.71711306798435e+001,-1.09088874816102e-001

1.10190511587661e+004,-1.71711324789527e+001,-1.10611381034398e-001

1.11728713807222e+004,-1.71711343285658e+001,-1.12155127168647e-001

1.13288388529580e+004,-1.71711362300980e+001,-1.13720409146565e-001

1.14869835499703e+004,-1.71711381850045e+001,-1.15307527002071e-001

1.16473358646846e+004,-1.71711401947811e+001,-1.16916784931005e-001

1.18099266142953e+004,-1.71711422609653e+001,-1.18548491349697e-001

1.19747870461893e+004,-1.71711443851373e+001,-1.20202958954979e-001

1.21419488439505e+004,-1.71711465689220e+001,-1.21880504775507e-001

1.23114441334492e+004,-1.71711488139889e+001,-1.23581450241522e-001

1.24833054890161e+004,-1.71711511220550e+001,-1.25306121232828e-001

1.26575659397028e+004,-1.71711534948840e+001,-1.27054848153059e-001

1.28342589756290e+004,-1.71711559342904e+001,-1.28827965976618e-001

1.30134185544193e+004,-1.71711584421374e+001,-1.30625814327546e-001

1.31950791077289e+004,-1.71711610203419e+001,-1.32448737526140e-001

1.33792755478611e+004,-1.71711636708734e+001,-1.34297084665216e-001

1.35660432744767e+004,-1.71711663957562e+001,-1.36171209672153e-001

1.37554181813974e+004,-1.71711691970712e+001,-1.38071471370911e-001

1.39474366635040e+004,-1.71711720769573e+001,-1.39998233552590e-001

1.41421356237309e+004,-1.71711750376128e+001,-1.41951865042584e-001

1.43395524801583e+004,-1.71711780812977e+001,-1.43932739763567e-001

1.45397251732031e+004,-1.71711812103343e+001,-1.45941236815065e-001

1.47426921729110e+004,-1.71711844271097e+001,-1.47977740534384e-001

1.49484924863494e+004,-1.71711877340777e+001,-1.50042640571251e-001

1.51571656651040e+004,-1.71711911337597e+001,-1.52136331960840e-001

1.53687518128801e+004,-1.71711946287482e+001,-1.54259215192259e-001

1.55832915932100e+004,-1.71711982217067e+001,-1.56411696289203e-001

1.58008262372675e+004,-1.71712019153733e+001,-1.58594186877486e-001

1.60213975517924e+004,-1.71712057125620e+001,-1.60807104265172e-001

1.62450479271247e+004,-1.71712096161651e+001,-1.63050871516981e-001

1.64718203453514e+004,-1.71712136291548e+001,-1.65325917534690e-001

1.67017583885674e+004,-1.71712177545860e+001,-1.67632677131077e-001

1.69349062472505e+004,-1.71712219955986e+001,-1.69971591112242e-001

1.71713087287550e+004,-1.71712263554190e+001,-1.72343106359229e-001

1.74110112659224e+004,-1.71712308373632e+001,-1.74747675907977e-001

1.76540599258131e+004,-1.71712354448394e+001,-1.77185759028177e-001

1.79005014185594e+004,-1.71712401813498e+001,-1.79657821313946e-001

1.81503831063432e+004,-1.71712450504936e+001,-1.82164334762389e-001

1.84037530124975e+004,-1.71712500559695e+001,-1.84705777863346e-001

1.86606598307361e+004,-1.71712552015789e+001,-1.87282635679180e-001

1.89211529345119e+004,-1.71712604912279e+001,-1.89895399941016e-001

1.91852823865052e+004,-1.71712659289304e+001,-1.92544569132766e-001

1.94530989482457e+004,-1.71712715188116e+001,-1.95230648577647e-001

1.97246540898671e+004,-1.71712772651101e+001,-1.97954150535786e-001

1.99999999999999e+004,-1.71712831721815e+001,-2.00715594291158e-001

2.02791895958005e+004,-1.71712892445019e+001,-2.03515506244268e-001

2.05622765331213e+004,-1.71712954866701e+001,-2.06354420010678e-001

2.08493152168224e+004,-1.71713019034122e+001,-2.09232876508132e-001

2.11403608112276e+004,-1.71713084995838e+001,-2.12151424060932e-001

2.14354692507258e+004,-1.71713152801743e+001,-2.15110618492825e-001

2.17346972505211e+004,-1.71713222503103e+001,-2.18111023223821e-001

2.20381023175322e+004,-1.71713294152593e+001,-2.21153209372696e-001

2.23457427614443e+004,-1.71713367804332e+001,-2.24237755856903e-001

2.26576777059159e+004,-1.71713443513924e+001,-2.27365249492935e-001

2.29739670999406e+004,-1.71713521338500e+001,-2.30536285099328e-001

2.32946717293690e+004,-1.71713601336753e+001,-2.33751465600648e-001

2.36198532285905e+004,-1.71713683568984e+001,-2.37011402133369e-001

2.39495740923785e+004,-1.71713768097143e+001,-2.40316714151519e-001

2.42838976879009e+004,-1.71713854984875e+001,-2.43668029531927e-001

2.46228882668982e+004,-1.71713944297562e+001,-2.47065984685865e-001

2.49666109780322e+004,-1.71714036102370e+001,-2.50511224665115e-001

2.53151318794055e+004,-1.71714130468297e+001,-2.54004403276424e-001

2.56685179512580e+004,-1.71714227466218e+001,-2.57546183190500e-001

2.60268371088386e+004,-1.71714327168940e+001,-2.61137236055265e-001

2.63901582154578e+004,-1.71714429651250e+001,-2.64778242610048e-001

2.67585510957221e+004,-1.71714534989965e+001,-2.68469892801378e-001

2.71320865489533e+004,-1.71714643263987e+001,-2.72212885898737e-001

2.75108363627948e+004,-1.71714754554357e+001,-2.76007930612230e-001

2.78948733270080e+004,-1.71714868944312e+001,-2.79855745210644e-001

2.82842712474618e+004,-1.71714986519337e+001,-2.83757057642710e-001

2.86791049603164e+004,-1.71715107367233e+001,-2.87712605654983e-001

2.90794503464061e+004,-1.71715231578167e+001,-2.91723136916510e-001

2.94853843458219e+004,-1.71715359244738e+001,-2.95789409141059e-001

2.98969849726987e+004,-1.71715490462039e+001,-2.99912190208636e-001

3.03143313302078e+004,-1.71715625327720e+001,-3.04092258296329e-001

3.07375036257601e+004,-1.71715763942054e+001,-3.08330401998775e-001

3.11665831864199e+004,-1.71715906408003e+001,-3.12627420458740e-001

3.16016524745350e+004,-1.71716052831291e+001,-3.16984123494289e-001

3.20427951035848e+004,-1.71716203320464e+001,-3.21401331729933e-001

3.24900958542493e+004,-1.71716357986972e+001,-3.25879876724579e-001

3.29436406907028e+004,-1.71716516945239e+001,-3.30420601103267e-001

3.34035167771346e+004,-1.71716680312733e+001,-3.35024358692545e-001

3.38698124945009e+004,-1.71716848210046e+001,-3.39692014650662e-001

3.43426174575100e+004,-1.71717020760971e+001,-3.44424445605103e-001

3.48220225318448e+004,-1.71717198092587e+001,-3.49222539782579e-001

3.53081198516260e+004,-1.71717380335327e+001,-3.54087197153508e-001

3.58010028371187e+004,-1.71717567623076e+001,-3.59019329560032e-001

3.63007662126863e+004,-1.71717760093243e+001,-3.64019860861966e-001

3.68075060249948e+004,-1.71717957886859e+001,-3.69089727070399e-001

3.73213196614721e+004,-1.71718161148651e+001,-3.74229876490757e-001

3.78423058690237e+004,-1.71718370027146e+001,-3.79441269860944e-001

3.83705647730104e+004,-1.71718584674752e+001,-3.84724880493777e-001

3.89061978964912e+004,-1.71718805247855e+001,-3.90081694419939e-001

3.94493081797342e+004,-1.71719031906916e+001,-3.95512710528276e-001

3.99999999999998e+004,-1.71719264816562e+001,-4.01018940711557e-001

4.05583791916010e+004,-1.71719504145692e+001,-4.06601410009032e-001

4.11245530662425e+004,-1.71719750067569e+001,-4.12261156751613e-001

4.16986304336447e+004,-1.71720002759929e+001,-4.17999232707568e-001

4.22807216224550e+004,-1.71720262405077e+001,-4.23816703227158e-001

4.28709385014515e+004,-1.71720529190002e+001,-4.29714647389015e-001

4.34693945010421e+004,-1.71720803306474e+001,-4.35694158147832e-001

4.40762046350642e+004,-1.71721084951161e+001,-4.41756342479436e-001

4.46914855228886e+004,-1.71721374325735e+001,-4.47902321529109e-001

4.53153554118317e+004,-1.71721671636984e+001,-4.54133230759736e-001

4.59479341998812e+004,-1.71721977096929e+001,-4.60450220097585e-001

4.65893434587380e+004,-1.71722290922933e+001,-4.66854454082801e-001

4.72397064571810e+004,-1.71722613337826e+001,-4.73347112014961e-001

4.78991481847569e+004,-1.71722944570017e+001,-4.79929388103096e-001

4.85677953758016e+004,-1.71723284853618e+001,-4.86602491610789e-001

4.92457765337964e+004,-1.71723634428561e+001,-4.93367647007647e-001

4.99332219560642e+004,-1.71723993540724e+001,-5.00226094116008e-001

5.06302637588109e+004,-1.71724362442052e+001,-5.07179088256894e-001

5.13370359025159e+004,-1.71724741390690e+001,-5.14227900397761e-001

5.20536742176771e+004,-1.71725130651095e+001,-5.21373817301531e-001

5.27803164309155e+004,-1.71725530494176e+001,-5.28618141670924e-001

5.35171021914442e+004,-1.71725941197416e+001,-5.35962192294988e-001

5.42641730979066e+004,-1.71726363045005e+001,-5.43407304194173e-001

5.50216727255895e+004,-1.71726796327966e+001,-5.50954828766049e-001

5.57897466540159e+004,-1.71727241344285e+001,-5.58606133928609e-001

5.65685424949235e+004,-1.71727698399048e+001,-5.66362604263204e-001

5.73582099206328e+004,-1.71728167804564e+001,-5.74225641158222e-001

5.81589006928121e+004,-1.71728649880505e+001,-5.82196662947231e-001

5.89707686916437e+004,-1.71729144954031e+001,-5.90277105053754e-001

5.97939699453972e+004,-1.71729653359923e+001,-5.98468420126256e-001

6.06286626604156e+004,-1.71730175440718e+001,-6.06772078177508e-001

6.14750072515201e+004,-1.71730711546835e+001,-6.15189566721627e-001

6.23331663728396e+004,-1.71731262036704e+001,-6.23722390909634e-001

6.32033049490698e+004,-1.71731827276903e+001,-6.32372073659598e-001

6.40855902071694e+004,-1.71732407642276e+001,-6.41140155793815e-001

6.49801917084985e+004,-1.71733003516066e+001,-6.50028196164649e-001

6.58872813814055e+004,-1.71733615290036e+001,-6.59037771786707e-001

6.68070335542691e+004,-1.71734243364597e+001,-6.68170477959343e-001

6.77396249890018e+004,-1.71734888148919e+001,-6.77427928396994e-001

6.86852349150199e+004,-1.71735550061059e+001,-6.86811755347822e-001

6.96440450636895e+004,-1.71736229528072e+001,-6.96323609715423e-001

7.06162397032520e+004,-1.71736926986120e+001,-7.05965161178959e-001

7.16020056742374e+004,-1.71737642880585e+001,-7.15738098308947e-001

7.26015324253724e+004,-1.71738377666170e+001,-7.25644128680318e-001

7.36150120499896e+004,-1.71739131807000e+001,-7.35684978986716e-001

7.46426393229441e+004,-1.71739905776713e+001,-7.45862395148601e-001

7.56846117380472e+004,-1.71740700058559e+001,-7.56178142420298e-001

7.67411295460207e+004,-1.71741515145472e+001,-7.66634005495726e-001

7.78123957929823e+004,-1.71742351540157e+001,-7.77231788610253e-001

7.88986163594682e+004,-1.71743209755154e+001,-7.87973315640032e-001

7.99999999999995e+004,-1.71744090312906e+001,-7.98860430201299e-001

8.11167583832018e+004,-1.71744993745812e+001,-8.09894995742423e-001

8.22491061324848e+004,-1.71745920596274e+001,-8.21078895638927e-001

8.33972608672892e+004,-1.71746871416738e+001,-8.32414033281230e-001

8.45614432449099e+004,-1.71747846769718e+001,-8.43902332164388e-001

8.57418770029029e+004,-1.71748847227817e+001,-8.55545735972103e-001

8.69387890020841e+004,-1.71749873373732e+001,-8.67346208658922e-001

8.81524092701283e+004,-1.71750925800251e+001,-8.79305734533138e-001

8.93829710457770e+004,-1.71752005110235e+001,-8.91426318333425e-001

9.06307108236633e+004,-1.71753111916587e+001,-9.03709985307363e-001

9.18958683997622e+004,-1.71754246842206e+001,-9.16158781285578e-001

9.31786869174758e+004,-1.71755410519933e+001,-9.28774772754881e-001

9.44794129143618e+004,-1.71756603592471e+001,-9.41560046930698e-001

9.57982963695136e+004,-1.71757826712296e+001,-9.54516711828319e-001

9.71355907516031e+004,-1.71759080541549e+001,-9.67646896332121e-001

9.84915530675926e+004,-1.71760365751906e+001,-9.80952750266513e-001

9.98664439121282e+004,-1.71761683024438e+001,-9.94436444462271e-001

1.01260527517622e+005,-1.71763033049439e+001,-1.00810017082816e+000

1.02674071805032e+005,-1.71764416526244e+001,-1.02194614242033e+000

1.04107348435354e+005,-1.71765834163018e+001,-1.03597659351082e+000

1.05560632861831e+005,-1.71767286676527e+001,-1.05019377966173e+000

1.07034204382888e+005,-1.71768774791882e+001,-1.06459997779791e+000

1.08528346195813e+005,-1.71770299242256e+001,-1.07919748628296e+000

1.10043345451179e+005,-1.71771860768584e+001,-1.09398862499916e+000

1.11579493308032e+005,-1.71773460119230e+001,-1.10897573542928e+000

1.13137084989847e+005,-1.71775098049620e+001,-1.12416118074537e+000

1.14716419841265e+005,-1.71776775321867e+001,-1.13954734589859e+000

1.16317801385624e+005,-1.71778492704339e+001,-1.15513663772053e+000

1.17941537383287e+005,-1.71780250971221e+001,-1.17093148502560e+000

1.19587939890794e+005,-1.71782050902029e+001,-1.18693433872534e+000

1.21257325320831e+005,-1.71783893281104e+001,-1.20314767194788e+000

1.22950014503040e+005,-1.71785778897056e+001,-1.21957398017149e+000

1.24666332745679e+005,-1.71787708542199e+001,-1.23621578136399e+000

1.26406609898139e+005,-1.71789683011925e+001,-1.25307561613704e+000

1.28171180414339e+005,-1.71791703104060e+001,-1.27015604791303e+000

1.29960383416997e+005,-1.71793769618177e+001,-1.28745966310583e+000

1.31774562762811e+005,-1.71795883354872e+001,-1.30498907131721e+000

1.33614067108538e+005,-1.71798045115006e+001,-1.32274690555061e+000

1.35479249978003e+005,-1.71800255698904e+001,-1.34073582244383e+000

1.37370469830040e+005,-1.71802515905521e+001,-1.35895850252089e+000

1.39288090127379e+005,-1.71804826531567e+001,-1.37741765046585e+000

1.41232479406504e+005,-1.71807188370589e+001,-1.39611599542063e+000

1.43204011348474e+005,-1.71809602212022e+001,-1.41505629130590e+000

1.45203064850745e+005,-1.71812068840195e+001,-1.43424131717184e+000

1.47230024099979e+005,-1.71814589033300e+001,-1.45367387757346e+000

1.49285278645888e+005,-1.71817163562325e+001,-1.47335680298014e+000

1.51369223476094e+005,-1.71819793189944e+001,-1.49329295021405e+000

1.53482259092041e+005,-1.71822478669371e+001,-1.51348520292652e+000

1.55624791585964e+005,-1.71825220743178e+001,-1.53393647210768e+000

1.57797232718936e+005,-1.71828020142081e+001,-1.55464969663465e+000

1.59999999999999e+005,-1.71830877583681e+001,-1.57562784386257e+000

1.62233516766403e+005,-1.71833793771180e+001,-1.59687391025572e+000

1.64498212264969e+005,-1.71836769392066e+001,-1.61839092206328e+000

1.66794521734578e+005,-1.71839805116756e+001,-1.64018193604368e+000

1.69122886489819e+005,-1.71842901597223e+001,-1.66225004023639e+000

1.71483754005805e+005,-1.71846059465591e+001,-1.68459835478398e+000

1.73877578004168e+005,-1.71849279332706e+001,-1.70723003280908e+000

1.76304818540256e+005,-1.71852561786687e+001,-1.73014826134485e+000

1.78765942091554e+005,-1.71855907391455e+001,-1.75335626232366e+000

1.81261421647326e+005,-1.71859316685246e+001,-1.77685729362555e+000

1.83791736799524e+005,-1.71862790179124e+001,-1.80065465018414e+000

1.86357373834951e+005,-1.71866328355463e+001,-1.82475166516082e+000

1.88958825828723e+005,-1.71869931666442e+001,-1.84915171118032e+000

1.91596592739027e+005,-1.71873600532532e+001,-1.87385820163275e+000

1.94271181503206e+005,-1.71877335340987e+001,-1.89887459204515e+000

1.96983106135185e+005,-1.71881136444344e+001,-1.92420438152137e+000

1.99732887824256e+005,-1.71885004158931e+001,-1.94985111425356e+000

2.02521055035243e+005,-1.71888938763398e+001,-1.97581838110477e+000

2.05348143610063e+005,-1.71892940497267e+001,-2.00210982126529e+000

2.08214696870707e+005,-1.71897009559515e+001,-2.02872912398130e+000

2.11121265723661e+005,-1.71901146107183e+001,-2.05568003036091e+000

2.14068408765776e+005,-1.71905350254028e+001,-2.08296633525170e+000

2.17056692391625e+005,-1.71909622069228e+001,-2.11059188919471e+000

2.20086690902357e+005,-1.71913961576121e+001,-2.13856060045371e+000

2.23158986616063e+005,-1.71918368751020e+001,-2.16687643711878e+000

2.26274169979693e+005,-1.71922843522082e+001,-2.19554342928397e+000

2.29432839682530e+005,-1.71927385768244e+001,-2.22456567129791e+000

2.32635602771247e+005,-1.71931995318252e+001,-2.25394732408685e+000

2.35883074766574e+005,-1.71936671949750e+001,-2.28369261754898e+000

2.39175879781588e+005,-1.71941415388478e+001,-2.31380585301752e+000

2.42514650641661e+005,-1.71946225307557e+001,-2.34429140579026e+000

2.45900029006080e+005,-1.71951101326877e+001,-2.37515372772483e+000

2.49332665491357e+005,-1.71956043012591e+001,-2.40639734989585e+000

2.52813219796278e+005,-1.71961049876731e+001,-2.43802688531157e+000

2.56342360828676e+005,-1.71966121376937e+001,-2.47004703168610e+000

2.59920766833993e+005,-1.71971256916313e+001,-2.50246257426410e+000

2.63549125525621e+005,-1.71976455843412e+001,-2.53527838869600e+000

2.67228134217075e+005,-1.71981717452365e+001,-2.56849944395487e+000

2.70958499956006e+005,-1.71987040983140e+001,-2.60213080529660e+000

2.74740939660078e+005,-1.71992425621952e+001,-2.63617763725279e+000

2.78576180254757e+005,-1.71997870501816e+001,-2.67064520665717e+000

2.82464958813007e+005,-1.72003374703261e+001,-2.70553888569542e+000

2.86408022696948e+005,-1.72008937255188e+001,-2.74086415497637e+000

2.90406129701488e+005,-1.72014557135892e+001,-2.77662660661665e+000

2.94460048199957e+005,-1.72020233274237e+001,-2.81283194733682e+000

2.98570557291775e+005,-1.72025964550999e+001,-2.84948600155667e+000

3.02738446952187e+005,-1.72031749800355e+001,-2.88659471449191e+000

3.06964518184081e+005,-1.72037587811552e+001,-2.92416415523917e+000

3.11249583171928e+005,-1.72043477330714e+001,-2.96220051984652e+000

3.15594465437872e+005,-1.72049417062823e+001,-3.00071013436362e+000

3.19999999999997e+005,-1.72055405673849e+001,-3.03969945786474e+000

3.24467033532806e+005,-1.72061441793031e+001,-3.07917508543653e+000

3.28996424529938e+005,-1.72067524015315e+001,-3.11914375112939e+000

3.33589043469155e+005,-1.72073650903928e+001,-3.15961233086263e+000

3.38245772979638e+005,-1.72079820993101e+001,-3.20058784527760e+000

3.42967508011610e+005,-1.72086032790921e+001,-3.24207746253693e+000

3.47755156008335e+005,-1.72092284782315e+001,-3.28408850106105e+000

3.52609637080511e+005,-1.72098575432159e+001,-3.32662843219811e+000

3.57531884183106e+005,-1.72104903188494e+001,-3.36970488282377e+000

3.62522843294651e+005,-1.72111266485857e+001,-3.41332563786464e+000

3.67583473599047e+005,-1.72117663748707e+001,-3.45749864274370e+000

3.72714747669902e+005,-1.72124093394944e+001,-3.50223200573985e+000

3.77917651657445e+005,-1.72130553839504e+001,-3.54753400026539e+000

3.83193185478053e+005,-1.72137043498032e+001,-3.59341306705055e+000

3.88542363006410e+005,-1.72143560790609e+001,-3.63987781624032e+000

3.93966212270369e+005,-1.72150104145537e+001,-3.68693702939563e+000

3.99465775648511e+005,-1.72156672003157e+001,-3.73459966140137e+000

4.05042110070485e+005,-1.72163262819707e+001,-3.78287484228037e+000

4.10696287220124e+005,-1.72169875071192e+001,-3.83177187890920e+000

4.16429393741414e+005,-1.72176507257264e+001,-3.88130025664216e+000

4.22242531447321e+005,-1.72183157905103e+001,-3.93146964083828e+000

4.28136817531551e+005,-1.72189825573286e+001,-3.98228987829606e+000

4.34113384783250e+005,-1.72196508855629e+001,-4.03377099859783e+000

4.40173381804713e+005,-1.72203206385002e+001,-4.08592321536240e+000

4.46317973232124e+005,-1.72209916837093e+001,-4.13875692741404e+000

4.52548339959385e+005,-1.72216638934137e+001,-4.19228271986573e+000

4.58865679365059e+005,-1.72223371448558e+001,-4.24651136512436e+000

4.65271205542494e+005,-1.72230113206568e+001,-4.30145382382072e+000

4.71766149533147e+005,-1.72236863091668e+001,-4.35712124566506e+000

4.78351759563174e+005,-1.72243620048072e+001,-4.41352497024070e+000

4.85029301283321e+005,-1.72250383084038e+001,-4.47067652773289e+000

4.91800058012158e+005,-1.72257151275097e+001,-4.52858763960331e+000

4.98665330982714e+005,-1.72263923767177e+001,-4.58727021921471e+000

5.05626439592555e+005,-1.72270699779618e+001,-4.64673637240972e+000

5.12684721657352e+005,-1.72277478608069e+001,-4.70699839805383e+000

5.19841533667984e+005,-1.72284259627269e+001,-4.76806878854419e+000

5.27098251051240e+005,-1.72291042293701e+001,-4.82996023029562e+000

5.34456268434150e+005,-1.72297826148129e+001,-4.89268560420478e+000

5.41916999912011e+005,-1.72304610817995e+001,-4.95625798610510e+000

