Freq.,VOut,OutRef

1.00000000000000e+004,-1.61166376695847e+001,-2.08799820894777e-001

1.01395947979003e+004,-1.61166386870644e+001,-2.11714424332677e-001

1.02811382665607e+004,-1.61166397331202e+001,-2.14669708457242e-001

1.04246576084112e+004,-1.61166408085541e+001,-2.17666240908086e-001

1.05701804056138e+004,-1.61166419141900e+001,-2.20704597241841e-001

1.07177346253629e+004,-1.61166430508752e+001,-2.23785361036294e-001

1.08673486252606e+004,-1.61166442194808e+001,-2.26909124005827e-001

1.10190511587661e+004,-1.61166454209022e+001,-2.30076486112342e-001

1.11728713807222e+004,-1.61166466560596e+001,-2.33288055683372e-001

1.13288388529580e+004,-1.61166479258991e+001,-2.36544449523254e-001

1.14869835499703e+004,-1.61166492313934e+001,-2.39846293035011e-001

1.16473358646846e+004,-1.61166505735425e+001,-2.43194220336531e-001

1.18099266142953e+004,-1.61166519533739e+001,-2.46588874386629e-001

1.19747870461893e+004,-1.61166533719442e+001,-2.50030907101964e-001

1.21419488439505e+004,-1.61166548303395e+001,-2.53520979485848e-001

1.23114441334492e+004,-1.61166563296763e+001,-2.57059761750861e-001

1.24833054890161e+004,-1.61166578711020e+001,-2.60647933451168e-001

1.26575659397028e+004,-1.61166594557966e+001,-2.64286183607771e-001

1.28342589756290e+004,-1.61166610849725e+001,-2.67975210843452e-001

1.30134185544193e+004,-1.61166627598763e+001,-2.71715723513883e-001

1.31950791077289e+004,-1.61166644817894e+001,-2.75508439842519e-001

1.33792755478611e+004,-1.61166662520289e+001,-2.79354088058959e-001

1.35660432744767e+004,-1.61166680719486e+001,-2.83253406537773e-001

1.37554181813974e+004,-1.61166699429403e+001,-2.87207143937176e-001

1.39474366635040e+004,-1.61166718664346e+001,-2.91216059343508e-001

1.41421356237309e+004,-1.61166738439019e+001,-2.95280922415978e-001

1.43395524801583e+004,-1.61166758768537e+001,-2.99402513531474e-001

1.45397251732031e+004,-1.61166779668436e+001,-3.03581623935767e-001

1.47426921729110e+004,-1.61166801154686e+001,-3.07819055890960e-001

1.49484924863494e+004,-1.61166823243702e+001,-3.12115622830156e-001

1.51571656651040e+004,-1.61166845952356e+001,-3.16472149512312e-001

1.53687518128801e+004,-1.61166869297989e+001,-3.20889472178779e-001

1.55832915932100e+004,-1.61166893298430e+001,-3.25368438710648e-001

1.58008262372675e+004,-1.61166917971998e+001,-3.29909908792770e-001

1.60213975517924e+004,-1.61166943337528e+001,-3.34514754074302e-001

1.62450479271247e+004,-1.61166969414375e+001,-3.39183858336756e-001

1.64718203453514e+004,-1.61166996222433e+001,-3.43918117660440e-001

1.67017583885674e+004,-1.61167023782153e+001,-3.48718440593827e-001

1.69349062472505e+004,-1.61167052114552e+001,-3.53585748327194e-001

1.71713087287550e+004,-1.61167081241231e+001,-3.58520974867613e-001

1.74110112659224e+004,-1.61167111184392e+001,-3.63525067215399e-001

1.76540599258131e+004,-1.61167141966855e+001,-3.68598985542566e-001

1.79005014185594e+004,-1.61167173612074e+001,-3.73743703376388e-001

1.81503831063432e+004,-1.61167206144151e+001,-3.78960207783601e-001

1.84037530124975e+004,-1.61167239587860e+001,-3.84249499556910e-001

1.86606598307361e+004,-1.61167273968662e+001,-3.89612593403523e-001

1.89211529345119e+004,-1.61167309312724e+001,-3.95050518138901e-001

1.91852823865052e+004,-1.61167345646938e+001,-4.00564316879241e-001

1.94530989482457e+004,-1.61167382998943e+001,-4.06155047240376e-001

1.97246540898671e+004,-1.61167421397143e+001,-4.11823781535571e-001

1.99999999999999e+004,-1.61167460870725e+001,-4.17571606981555e-001

2.02791895958005e+004,-1.61167501449691e+001,-4.23399625899587e-001

2.05622765331213e+004,-1.61167543164867e+001,-4.29308955925457e-001

2.08493152168224e+004,-1.61167586047935e+001,-4.35300730219889e-001

2.11403608112276e+004,-1.61167630131450e+001,-4.41376097683314e-001

2.14354692507258e+004,-1.61167675448871e+001,-4.47536223167966e-001

2.17346972505211e+004,-1.61167722034577e+001,-4.53782287703907e-001

2.20381023175322e+004,-1.61167769923895e+001,-4.60115488715363e-001

2.23457427614443e+004,-1.61167819153134e+001,-4.66537040247204e-001

2.26576777059159e+004,-1.61167869759595e+001,-4.73048173195354e-001

2.29739670999406e+004,-1.61167921781614e+001,-4.79650135535778e-001

2.32946717293690e+004,-1.61167975258578e+001,-4.86344192559552e-001

2.36198532285905e+004,-1.61168030230961e+001,-4.93131627108930e-001

2.39495740923785e+004,-1.61168086740351e+001,-5.00013739819337e-001

2.42838976879009e+004,-1.61168144829477e+001,-5.06991849362636e-001

2.46228882668982e+004,-1.61168204542245e+001,-5.14067292692037e-001

2.49666109780322e+004,-1.61168265923763e+001,-5.21241425296056e-001

2.53151318794055e+004,-1.61168329020381e+001,-5.28515621446647e-001

2.56685179512580e+004,-1.61168393879718e+001,-5.35891274460345e-001

2.60268371088386e+004,-1.61168460550697e+001,-5.43369796956394e-001

2.63901582154578e+004,-1.61168529083582e+001,-5.50952621119442e-001

2.67585510957221e+004,-1.61168599530012e+001,-5.58641198968127e-001

2.71320865489533e+004,-1.61168671943039e+001,-5.66437002622845e-001

2.75108363627948e+004,-1.61168746377161e+001,-5.74341524582566e-001

2.78948733270080e+004,-1.61168822888368e+001,-5.82356277999538e-001

2.82842712474618e+004,-1.61168901534174e+001,-5.90482796961361e-001

2.86791049603164e+004,-1.61168982373662e+001,-5.98722636775751e-001

2.90794503464061e+004,-1.61169065467524e+001,-6.07077374258270e-001

2.94853843458219e+004,-1.61169150878100e+001,-6.15548608023331e-001

2.98969849726987e+004,-1.61169238669428e+001,-6.24137958782299e-001

3.03143313302078e+004,-1.61169328907284e+001,-6.32847069639724e-001

3.07375036257601e+004,-1.61169421659224e+001,-6.41677606399818e-001

3.11665831864199e+004,-1.61169516994642e+001,-6.50631257870225e-001

3.16016524745350e+004,-1.61169614984801e+001,-6.59709736176575e-001

3.20427951035848e+004,-1.61169715702899e+001,-6.68914777073179e-001

3.24900958542493e+004,-1.61169819224109e+001,-6.78248140265332e-001

3.29436406907028e+004,-1.61169925625628e+001,-6.87711609731807e-001

3.34035167771346e+004,-1.61170034986736e+001,-6.97306994050329e-001

3.38698124945009e+004,-1.61170147388849e+001,-7.07036126728387e-001

3.43426174575100e+004,-1.61170262915567e+001,-7.16900866541311e-001

3.48220225318448e+004,-1.61170381652738e+001,-7.26903097867784e-001

3.53081198516260e+004,-1.61170503688507e+001,-7.37044731037538e-001

3.58010028371187e+004,-1.61170629113384e+001,-7.47327702675011e-001

3.63007662126863e+004,-1.61170758020295e+001,-7.57753976053954e-001

3.68075060249948e+004,-1.61170890504649e+001,-7.68325541454320e-001

3.73213196614721e+004,-1.61171026664398e+001,-7.79044416520493e-001

3.78423058690237e+004,-1.61171166600099e+001,-7.89912646629993e-001

3.83705647730104e+004,-1.61171310414984e+001,-8.00932305260170e-001

3.89061978964912e+004,-1.61171458215024e+001,-8.12105494363281e-001

3.94493081797342e+004,-1.61171610108995e+001,-8.23434344746778e-001

3.99999999999998e+004,-1.61171766208549e+001,-8.34921016454387e-001

4.05583791916010e+004,-1.61171926628286e+001,-8.46567699155053e-001

4.11245530662425e+004,-1.61172091485827e+001,-8.58376612535512e-001

4.16986304336447e+004,-1.61172260901884e+001,-8.70350006696761e-001

4.22807216224550e+004,-1.61172435000339e+001,-8.82490162557227e-001

4.28709385014515e+004,-1.61172613908317e+001,-8.94799392258442e-001

4.34693945010421e+004,-1.61172797756268e+001,-9.07280039576908e-001

4.40762046350642e+004,-1.61172986678044e+001,-9.19934480340999e-001

4.46914855228886e+004,-1.61173180810982e+001,-9.32765122850906e-001

4.53153554118317e+004,-1.61173380295985e+001,-9.45774408305524e-001

4.59479341998812e+004,-1.61173585277609e+001,-9.58964811233931e-001

4.65893434587380e+004,-1.61173795904145e+001,-9.72338839929949e-001

4.72397064571810e+004,-1.61174012327709e+001,-9.85899036895603e-001

4.78991481847569e+004,-1.61174234704328e+001,-9.99647979285426e-001

4.85677953758016e+004,-1.61174463194037e+001,-1.01358827935718e+000

4.92457765337964e+004,-1.61174697960961e+001,-1.02772258493047e+000

4.99332219560642e+004,-1.61174939173415e+001,-1.04205357984645e+000

5.06302637588109e+004,-1.61175187003998e+001,-1.05658398443571e+000

5.13370359025159e+004,-1.61175441629686e+001,-1.07131655598824e+000

5.20536742176771e+004,-1.61175703231934e+001,-1.08625408923416e+000

5.27803164309155e+004,-1.61175971996770e+001,-1.10139941682237e+000

5.35171021914442e+004,-1.61176248114902e+001,-1.11675540981174e+000

5.42641730979066e+004,-1.61176531781812e+001,-1.13232497816198e+000

5.50216727255895e+004,-1.61176823197865e+001,-1.14811107123458e+000

5.57897466540159e+004,-1.61177122568412e+001,-1.16411667829488e+000

5.65685424949235e+004,-1.61177430103894e+001,-1.18034482902334e+000

5.73582099206328e+004,-1.61177746019950e+001,-1.19679859402980e+000

5.81589006928121e+004,-1.61178070537526e+001,-1.21348108537472e+000

5.89707686916437e+004,-1.61178403882981e+001,-1.23039545709608e+000

5.97939699453972e+004,-1.61178746288201e+001,-1.24754490574019e+000

6.06286626604156e+004,-1.61179097990707e+001,-1.26493267090047e+000

6.14750072515201e+004,-1.61179459233769e+001,-1.28256203576073e+000

6.23331663728396e+004,-1.61179830266517e+001,-1.30043632764457e+000

6.32033049490698e+004,-1.61180211344057e+001,-1.31855891856907e+000

6.40855902071694e+004,-1.61180602727582e+001,-1.33693322580903e+000

6.49801917084985e+004,-1.61181004684489e+001,-1.35556271245937e+000

6.58872813814055e+004,-1.61181417488494e+001,-1.37445088801229e+000

6.68070335542691e+004,-1.61181841419745e+001,-1.39360130893334e+000

6.77396249890018e+004,-1.61182276764942e+001,-1.41301757924695e+000

6.86852349150199e+004,-1.61182723817448e+001,-1.43270335112845e+000

6.96440450636895e+004,-1.61183182877408e+001,-1.45266232550012e+000

7.06162397032520e+004,-1.61183654251863e+001,-1.47289825263476e+000

7.16020056742374e+004,-1.61184138254867e+001,-1.49341493276614e+000

7.26015324253724e+004,-1.61184635207598e+001,-1.51421621670465e+000

7.36150120499896e+004,-1.61185145438474e+001,-1.53530600646041e+000

7.46426393229441e+004,-1.61185669283266e+001,-1.55668825587138e+000

7.56846117380472e+004,-1.61186207085212e+001,-1.57836697124016e+000

7.67411295460207e+004,-1.61186759195122e+001,-1.60034621197545e+000

7.78123957929823e+004,-1.61187325971494e+001,-1.62263009124244e+000

7.88986163594682e+004,-1.61187907780614e+001,-1.64522277661795e+000

7.99999999999995e+004,-1.61188504996669e+001,-1.66812849075356e+000

8.11167583832018e+004,-1.61189118001846e+001,-1.69135151204657e+000

8.22491061324848e+004,-1.61189747186434e+001,-1.71489617531624e+000

8.33972608672892e+004,-1.61190392948921e+001,-1.73876687249045e+000

8.45614432449099e+004,-1.61191055696090e+001,-1.76296805329588e+000

8.57418770029029e+004,-1.61191735843115e+001,-1.78750422595901e+000

8.69387890020841e+004,-1.61192433813640e+001,-1.81237995791453e+000

8.81524092701283e+004,-1.61193150039873e+001,-1.83759987651942e+000

8.93829710457770e+004,-1.61193884962661e+001,-1.86316866977829e+000

9.06307108236633e+004,-1.61194639031568e+001,-1.88909108707479e+000

9.18958683997622e+004,-1.61195412704946e+001,-1.91537193991300e+000

9.31786869174758e+004,-1.61196206449997e+001,-1.94201610266628e+000

9.44794129143618e+004,-1.61197020742841e+001,-1.96902851333627e+000

9.57982963695136e+004,-1.61197856068559e+001,-1.99641417432129e+000

9.71355907516031e+004,-1.61198712921252e+001,-2.02417815319257e+000

9.84915530675926e+004,-1.61199591804077e+001,-2.05232558348218e+000

9.98664439121282e+004,-1.61200493229278e+001,-2.08086166548007e+000

1.01260527517622e+005,-1.61201417718221e+001,-2.10979166704291e+000

1.02674071805032e+005,-1.61202365801403e+001,-2.13912092441058e+000

1.04107348435354e+005,-1.61203338018468e+001,-2.16885484303846e+000

1.05560632861831e+005,-1.61204334918209e+001,-2.19899889843659e+000

1.07034204382888e+005,-1.61205357058556e+001,-2.22955863702447e+000

1.08528346195813e+005,-1.61206405006564e+001,-2.26053967699575e+000

1.10043345451179e+005,-1.61207479338381e+001,-2.29194770919731e+000

1.11579493308032e+005,-1.61208580639213e+001,-2.32378849802144e+000

1.13137084989847e+005,-1.61209709503276e+001,-2.35606788231113e+000

1.14716419841265e+005,-1.61210866533732e+001,-2.38879177628091e+000

1.16317801385624e+005,-1.61212052342625e+001,-2.42196617045125e+000

1.17941537383287e+005,-1.61213267550788e+001,-2.45559713260034e+000

1.19587939890794e+005,-1.61214512787757e+001,-2.48969080873092e+000

1.21257325320831e+005,-1.61215788691655e+001,-2.52425342405370e+000

1.22950014503040e+005,-1.61217095909072e+001,-2.55929128399022e+000

1.24666332745679e+005,-1.61218435094932e+001,-2.59481077519191e+000

1.26406609898139e+005,-1.61219806912343e+001,-2.63081836657945e+000

1.28171180414339e+005,-1.61221212032434e+001,-2.66732061040199e+000

1.29960383416997e+005,-1.61222651134174e+001,-2.70432414331734e+000

1.31774562762811e+005,-1.61224124904188e+001,-2.74183568749255e+000

1.33614067108538e+005,-1.61225634036545e+001,-2.77986205172905e+000

1.35479249978003e+005,-1.61227179232539e+001,-2.81841013260933e+000

1.37370469830040e+005,-1.61228761200452e+001,-2.85748691566961e+000

1.39288090127379e+005,-1.61230380655307e+001,-2.89709947659676e+000

1.41232479406504e+005,-1.61232038318600e+001,-2.93725498245331e+000

1.43204011348474e+005,-1.61233734918020e+001,-2.97796069292821e+000

1.45203064850745e+005,-1.61235471187155e+001,-3.01922396161793e+000

1.47230024099979e+005,-1.61237247865185e+001,-3.06105223733683e+000

1.49285278645888e+005,-1.61239065696558e+001,-3.10345306545825e+000

1.51369223476094e+005,-1.61240925430654e+001,-3.14643408928812e+000

1.53482259092041e+005,-1.61242827821439e+001,-3.19000305147249e+000

1.55624791585964e+005,-1.61244773627098e+001,-3.23416779544014e+000

1.57797232718936e+005,-1.61246763609665e+001,-3.27893626687897e+000

1.59999999999999e+005,-1.61248798534642e+001,-3.32431651525286e+000

1.62233516766403e+005,-1.61250879170598e+001,-3.37031669535419e+000

1.64498212264969e+005,-1.61253006288769e+001,-3.41694506889924e+000

1.66794521734578e+005,-1.61255180662649e+001,-3.46421000616212e+000

1.69122886489819e+005,-1.61257403067565e+001,-3.51211998765317e+000

1.71483754005805e+005,-1.61259674280262e+001,-3.56068360584063e+000

1.73877578004168e+005,-1.61261995078467e+001,-3.60990956691688e+000

1.76304818540256e+005,-1.61264366240463e+001,-3.65980669261267e+000

1.78765942091554e+005,-1.61266788544659e+001,-3.71038392205835e+000

1.81261421647326e+005,-1.61269262769160e+001,-3.76165031369395e+000

1.83791736799524e+005,-1.61271789691337e+001,-3.81361504723025e+000

1.86357373834951e+005,-1.61274370087414e+001,-3.86628742566087e+000

1.88958825828723e+005,-1.61277004732047e+001,-3.91967687732779e+000

1.91596592739027e+005,-1.61279694397928e+001,-3.97379295803938e+000

1.94271181503206e+005,-1.61282439855389e+001,-4.02864535324516e+000

1.96983106135185e+005,-1.61285241872032e+001,-4.08424388026473e+000

1.99732887824256e+005,-1.61288101212370e+001,-4.14059849057393e+000

2.02521055035243e+005,-1.61291018637495e+001,-4.19771927214982e+000

2.05348143610063e+005,-1.61293994904762e+001,-4.25561645187225e+000

2.08214696870707e+005,-1.61297030767511e+001,-4.31430039798433e+000

2.11121265723661e+005,-1.61300126974814e+001,-4.37378162261537e+000

2.14068408765776e+005,-1.61303284271254e+001,-4.43407078436060e+000

2.17056692391625e+005,-1.61306503396746e+001,-4.49517869092162e+000

2.20086690902357e+005,-1.61309785086403e+001,-4.55711630180933e+000

2.23158986616063e+005,-1.61313130070435e+001,-4.61989473110549e+000

2.26274169979693e+005,-1.61316539074111e+001,-4.68352525028557e+000

2.29432839682530e+005,-1.61320012817763e+001,-4.74801929110189e+000

2.32635602771247e+005,-1.61323552016853e+001,-4.81338844852556e+000

2.35883074766574e+005,-1.61327157382097e+001,-4.87964448375001e+000

2.39175879781588e+005,-1.61330829619653e+001,-4.94679932725102e+000

2.42514650641661e+005,-1.61334569431382e+001,-5.01486508190548e+000

2.45900029006080e+005,-1.61338377515173e+001,-5.08385402616707e+000

2.49332665491357e+005,-1.61342254565352e+001,-5.15377861729722e+000

2.52813219796278e+005,-1.61346201273160e+001,-5.22465149465080e+000

2.56342360828676e+005,-1.61350218327328e+001,-5.29648548301414e+000

2.59920766833993e+005,-1.61354306414723e+001,-5.36929359599429e+000

2.63549125525621e+005,-1.61358466221093e+001,-5.44308903945787e+000

2.67228134217075e+005,-1.61362698431906e+001,-5.51788521501664e+000

2.70958499956006e+005,-1.61367003733277e+001,-5.59369572355883e+000

2.74740939660078e+005,-1.61371382813002e+001,-5.67053436882270e+000

2.78576180254757e+005,-1.61375836361686e+001,-5.74841516101100e+000

2.82464958813007e+005,-1.61380365073982e+001,-5.82735232044321e+000

2.86408022696948e+005,-1.61384969649928e+001,-5.90736028124276e+000

2.90406129701488e+005,-1.61389650796400e+001,-5.98845369505656e+000

2.94460048199957e+005,-1.61394409228667e+001,-6.07064743480459e+000

2.98570557291775e+005,-1.61399245672059e+001,-6.15395659845581e+000

3.02738446952187e+005,-1.61404160863747e+001,-6.23839651282715e+000

3.06964518184081e+005,-1.61409155554638e+001,-6.32398273740365e+000

3.11249583171928e+005,-1.61414230511373e+001,-6.41073106817559e+000

3.15594465437872e+005,-1.61419386518449e+001,-6.49865754149001e+000

3.19999999999997e+005,-1.61424624380443e+001,-6.58777843791345e+000

3.24467033532806e+005,-1.61429944924357e+001,-6.67811028610184e+000

3.28996424529938e+005,-1.61435349002059e+001,-6.76966986667688e+000

3.33589043469155e+005,-1.61440837492851e+001,-6.86247421610280e+000

3.38245772979638e+005,-1.61446411306127e+001,-6.95654063056283e+000

3.42967508011610e+005,-1.61452071384148e+001,-7.05188666983231e+000

3.47755156008335e+005,-1.61457818704910e+001,-7.14853016114377e+000

3.52609637080511e+005,-1.61463654285120e+001,-7.24648920304436e+000

3.57531884183106e+005,-1.61469579183264e+001,-7.34578216924050e+000

3.62522843294651e+005,-1.61475594502769e+001,-7.44642771242957e+000

3.67583473599047e+005,-1.61481701395252e+001,-7.54844476811460e+000

3.72714747669902e+005,-1.61487901063867e+001,-7.65185255840160e+000

3.77917651657445e+005,-1.61494194766716e+001,-7.75667059577725e+000

3.83193185478053e+005,-1.61500583820354e+001,-7.86291868686508e+000

3.88542363006410e+005,-1.61507069603355e+001,-7.97061693615985e+000

3.93966212270369e+005,-1.61513653559959e+001,-8.07978574973784e+000

3.99465775648511e+005,-1.61520337203775e+001,-8.19044583894341e+000

4.05042110070485e+005,-1.61527122121546e+001,-8.30261822405094e+000

4.10696287220124e+005,-1.61534009976972e+001,-8.41632423790128e+000

4.16429393741414e+005,-1.61541002514579e+001,-8.53158552951354e+000

4.22242531447321e+005,-1.61548101563639e+001,-8.64842406767291e+000

4.28136817531551e+005,-1.61555309042132e+001,-8.76686214449238e+000

4.34113384783250e+005,-1.61562626960737e+001,-8.88692237895271e+000

4.40173381804713e+005,-1.61570057426864e+001,-9.00862772041931e+000

4.46317973232124e+005,-1.61577602648717e+001,-9.13200145213710e+000

4.52548339959385e+005,-1.61585264939369e+001,-9.25706719470661e+000

4.58865679365059e+005,-1.61593046720874e+001,-9.38384890954118e+000

4.65271205542494e+005,-1.61600950528381e+001,-9.51237090230807e+000

4.71766149533147e+005,-1.61608979014279e+001,-9.64265782635428e+000

4.78351759563174e+005,-1.61617134952339e+001,-9.77473468612147e+000

4.85029301283321e+005,-1.61625421241872e+001,-9.90862684055054e+000

4.91800058012158e+005,-1.61633840911894e+001,-1.00443600064779e+001

4.98665330982714e+005,-1.61642397125293e+001,-1.01819602620283e+001

5.05626439592555e+005,-1.61651093183000e+001,-1.03214540500047e+001

5.12684721657352e+005,-1.61659932528167e+001,-1.04628681812783e+001

5.19841533667984e+005,-1.61668918750334e+001,-1.06062298381829e+001

5.27098251051240e+005,-1.61678055589613e+001,-1.07515665779148e+001

5.34456268434150e+005,-1.61687346940859e+001,-1.08989063359414e+001

5.41916999912011e+005,-1.61696796857850e+001,-1.10482774294222e+001

