Freq.,VOut,OutRef

1.00000000000000e+004,-1.28191350733762e+001,-6.30593925160703e-002

1.01395947979003e+004,-1.28191364481242e+001,-6.39394371432121e-002

1.02811382665607e+004,-1.28191378614707e+001,-6.48317569049150e-002

1.04246576084112e+004,-1.28191393144978e+001,-6.57365227392970e-002

1.05701804056138e+004,-1.28191408083176e+001,-6.66539079544585e-002

1.07177346253629e+004,-1.28191423440745e+001,-6.75840882533772e-002

1.08673486252606e+004,-1.28191439229434e+001,-6.85272417798389e-002

1.10190511587661e+004,-1.28191455461329e+001,-6.94835491411051e-002

1.11728713807222e+004,-1.28191472148850e+001,-7.04531934457835e-002

1.13288388529580e+004,-1.28191489304771e+001,-7.14363603324356e-002

1.14869835499703e+004,-1.28191506942215e+001,-7.24332380143347e-002

1.16473358646846e+004,-1.28191525074671e+001,-7.34440173075367e-002

1.18099266142953e+004,-1.28191543716011e+001,-7.44688916639280e-002

1.19747870461893e+004,-1.28191562880490e+001,-7.55080572135797e-002

1.21419488439505e+004,-1.28191582582763e+001,-7.65617127953107e-002

1.23114441334492e+004,-1.28191602837894e+001,-7.76300599961977e-002

1.24833054890161e+004,-1.28191623661364e+001,-7.87133031902091e-002

1.26575659397028e+004,-1.28191645069086e+001,-7.98116495733936e-002

1.28342589756290e+004,-1.28191667077423e+001,-8.09253092010585e-002

1.30134185544193e+004,-1.28191689703186e+001,-8.20544950303699e-002

1.31950791077289e+004,-1.28191712963664e+001,-8.31994229525923e-002

1.33792755478611e+004,-1.28191736876618e+001,-8.43603118428451e-002

1.35660432744767e+004,-1.28191761460310e+001,-8.55373835900169e-002

1.37554181813974e+004,-1.28191786733507e+001,-8.67308631455782e-002

1.39474366635040e+004,-1.28191812715503e+001,-8.79409785560956e-002

1.41421356237309e+004,-1.28191839426126e+001,-8.91679610134858e-002

1.43395524801583e+004,-1.28191866885754e+001,-9.04120448921514e-002

1.45397251732031e+004,-1.28191895115339e+001,-9.16734677904798e-002

1.47426921729110e+004,-1.28191924136408e+001,-9.29524705785757e-002

1.49484924863494e+004,-1.28191953971093e+001,-9.42492974372730e-002

1.51571656651040e+004,-1.28191984642134e+001,-9.55641959073760e-002

1.53687518128801e+004,-1.28192016172911e+001,-9.68974169272650e-002

1.55832915932100e+004,-1.28192048587447e+001,-9.82492148853336e-002

1.58008262372675e+004,-1.28192081910438e+001,-9.96198476597776e-002

1.60213975517924e+004,-1.28192116167258e+001,-1.01009576672063e-001

1.62450479271247e+004,-1.28192151383992e+001,-1.02418666925364e-001

1.64718203453514e+004,-1.28192187587445e+001,-1.03847387057264e-001

1.67017583885674e+004,-1.28192224805171e+001,-1.05296009384428e-001

1.69349062472505e+004,-1.28192263065476e+001,-1.06764809959066e-001

1.71713087287550e+004,-1.28192302397464e+001,-1.08254068603710e-001

1.74110112659224e+004,-1.28192342831034e+001,-1.09764068976194e-001

1.76540599258131e+004,-1.28192384396921e+001,-1.11295098608777e-001

1.79005014185594e+004,-1.28192427126705e+001,-1.12847448963484e-001

1.81503831063432e+004,-1.28192471052844e+001,-1.14421415481672e-001

1.84037530124975e+004,-1.28192516208689e+001,-1.16017297639952e-001

1.86606598307361e+004,-1.28192562628516e+001,-1.17635398997271e-001

1.89211529345119e+004,-1.28192610347545e+001,-1.19276027250523e-001

1.91852823865052e+004,-1.28192659401973e+001,-1.20939494287532e-001

1.94530989482457e+004,-1.28192709828989e+001,-1.22626116242712e-001

1.97246540898671e+004,-1.28192761666814e+001,-1.24336213549577e-001

1.99999999999999e+004,-1.28192814954719e+001,-1.26070110996947e-001

2.02791895958005e+004,-1.28192869733058e+001,-1.27828137785671e-001

2.05622765331213e+004,-1.28192926043296e+001,-1.29610627583617e-001

2.08493152168224e+004,-1.28192983928038e+001,-1.31417918584203e-001

2.11403608112276e+004,-1.28193043431061e+001,-1.33250353562785e-001

2.14354692507258e+004,-1.28193104597350e+001,-1.35108279933281e-001

2.17346972505211e+004,-1.28193167473117e+001,-1.36992049812643e-001

2.20381023175322e+004,-1.28193232105846e+001,-1.38902020074910e-001

2.23457427614443e+004,-1.28193298544328e+001,-1.40838552410062e-001

2.26576777059159e+004,-1.28193366838682e+001,-1.42802013391930e-001

2.29739670999406e+004,-1.28193437040409e+001,-1.44792774530078e-001

2.32946717293690e+004,-1.28193509202411e+001,-1.46811212339281e-001

2.36198532285905e+004,-1.28193583379045e+001,-1.48857708394376e-001

2.39495740923785e+004,-1.28193659626149e+001,-1.50932649397782e-001

2.42838976879009e+004,-1.28193738001082e+001,-1.53036427245217e-001

2.46228882668982e+004,-1.28193818562774e+001,-1.55169439081185e-001

2.49666109780322e+004,-1.28193901371760e+001,-1.57332087369594e-001

2.53151318794055e+004,-1.28193986490220e+001,-1.59524779957931e-001

2.56685179512580e+004,-1.28194073982030e+001,-1.61747930140885e-001

2.60268371088386e+004,-1.28194163912799e+001,-1.64001956727553e-001

2.63901582154578e+004,-1.28194256349919e+001,-1.66287284107643e-001

2.67585510957221e+004,-1.28194351362611e+001,-1.68604342316829e-001

2.71320865489533e+004,-1.28194449021969e+001,-1.70953567107465e-001

2.75108363627948e+004,-1.28194549401015e+001,-1.73335400013838e-001

2.78948733270080e+004,-1.28194652574746e+001,-1.75750288419215e-001

2.82842712474618e+004,-1.28194758620180e+001,-1.78198685630004e-001

2.86791049603164e+004,-1.28194867616418e+001,-1.80681050938101e-001

2.90794503464061e+004,-1.28194979644691e+001,-1.83197849696805e-001

2.94853843458219e+004,-1.28195094788416e+001,-1.85749553386639e-001

2.98969849726987e+004,-1.28195213133251e+001,-1.88336639687809e-001

3.03143313302078e+004,-1.28195334767157e+001,-1.90959592550803e-001

3.07375036257601e+004,-1.28195459780454e+001,-1.93618902265265e-001

3.11665831864199e+004,-1.28195588265872e+001,-1.96315065537905e-001

3.16016524745350e+004,-1.28195720318631e+001,-1.99048585556280e-001

3.20427951035848e+004,-1.28195856036487e+001,-2.01819972065130e-001

3.24900958542493e+004,-1.28195995519803e+001,-2.04629741441354e-001

3.29436406907028e+004,-1.28196138871612e+001,-2.07478416762204e-001

3.34035167771346e+004,-1.28196286197689e+001,-2.10366527878295e-001

3.38698124945009e+004,-1.28196437606611e+001,-2.13294611491205e-001

3.43426174575100e+004,-1.28196593209832e+001,-2.16263211223238e-001

3.48220225318448e+004,-1.28196753121754e+001,-2.19272877691396e-001

3.53081198516260e+004,-1.28196917459797e+001,-2.22324168580781e-001

3.58010028371187e+004,-1.28197086344474e+001,-2.25417648719706e-001

3.63007662126863e+004,-1.28197259899466e+001,-2.28553890153866e-001

3.68075060249948e+004,-1.28197438251701e+001,-2.31733472216283e-001

3.73213196614721e+004,-1.28197621531429e+001,-2.34956981605752e-001

3.78423058690237e+004,-1.28197809872307e+001,-2.38225012457037e-001

3.83705647730104e+004,-1.28198003411472e+001,-2.41538166417363e-001

3.89061978964912e+004,-1.28198202289635e+001,-2.44897052717454e-001

3.94493081797342e+004,-1.28198406651155e+001,-2.48302288246901e-001

3.99999999999998e+004,-1.28198616644130e+001,-2.51754497625942e-001

4.05583791916010e+004,-1.28198832420487e+001,-2.55254313278283e-001

4.11245530662425e+004,-1.28199054136066e+001,-2.58802375504246e-001

4.16986304336447e+004,-1.28199281950710e+001,-2.62399332554175e-001

4.22807216224550e+004,-1.28199516028365e+001,-2.66045840695924e-001

4.28709385014515e+004,-1.28199756537162e+001,-2.69742564292472e-001

4.34693945010421e+004,-1.28200003649523e+001,-2.73490175865719e-001

4.40762046350642e+004,-1.28200257542248e+001,-2.77289356172772e-001

4.46914855228886e+004,-1.28200518396618e+001,-2.81140794272206e-001

4.53153554118317e+004,-1.28200786398495e+001,-2.85045187592608e-001

4.59479341998812e+004,-1.28201061738416e+001,-2.89003242004503e-001

4.65893434587380e+004,-1.28201344611705e+001,-2.93015671880660e-001

4.72397064571810e+004,-1.28201635218564e+001,-2.97083200170785e-001

4.78991481847569e+004,-1.28201933764188e+001,-3.01206558460929e-001

4.85677953758016e+004,-1.28202240458867e+001,-3.05386487038152e-001

4.92457765337964e+004,-1.28202555518089e+001,-3.09623734957898e-001

4.99332219560642e+004,-1.28202879162651e+001,-3.13919060102214e-001

5.06302637588109e+004,-1.28203211618768e+001,-3.18273229241548e-001

5.13370359025159e+004,-1.28203553118182e+001,-3.22687018095341e-001

5.20536742176771e+004,-1.28203903898274e+001,-3.27161211387672e-001

5.27803164309155e+004,-1.28204264202170e+001,-3.31696602906928e-001

5.35171021914442e+004,-1.28204634278862e+001,-3.36293995557369e-001

5.42641730979066e+004,-1.28205014383311e+001,-3.40954201414343e-001

5.50216727255895e+004,-1.28205404776565e+001,-3.45678041777261e-001

5.57897466540159e+004,-1.28205805725875e+001,-3.50466347214015e-001

5.65685424949235e+004,-1.28206217504803e+001,-3.55319957613477e-001

5.73582099206328e+004,-1.28206640393336e+001,-3.60239722230923e-001

5.81589006928121e+004,-1.28207074678003e+001,-3.65226499728591e-001

5.89707686916437e+004,-1.28207520651990e+001,-3.70281158216847e-001

5.97939699453972e+004,-1.28207978615246e+001,-3.75404575296787e-001

6.06286626604156e+004,-1.28208448874600e+001,-3.80597638094338e-001

6.14750072515201e+004,-1.28208931743873e+001,-3.85861243293135e-001

6.23331663728396e+004,-1.28209427543988e+001,-3.91196297166657e-001

6.32033049490698e+004,-1.28209936603076e+001,-3.96603715609153e-001

6.40855902071694e+004,-1.28210459256589e+001,-4.02084424158019e-001

6.49801917084985e+004,-1.28210995847407e+001,-4.07639358016089e-001

6.58872813814055e+004,-1.28211546725937e+001,-4.13269462076432e-001

6.68070335542691e+004,-1.28212112250219e+001,-4.18975690934089e-001

6.77396249890018e+004,-1.28212692786025e+001,-4.24759008901939e-001

6.86852349150199e+004,-1.28213288706958e+001,-4.30620390019301e-001

6.96440450636895e+004,-1.28213900394541e+001,-4.36560818061915e-001

7.06162397032520e+004,-1.28214528238316e+001,-4.42581286540796e-001

7.16020056742374e+004,-1.28215172635922e+001,-4.48682798705445e-001

7.26015324253724e+004,-1.28215833993179e+001,-4.54866367539910e-001

7.36150120499896e+004,-1.28216512724174e+001,-4.61133015753164e-001

7.46426393229441e+004,-1.28217209251323e+001,-4.67483775769954e-001

7.56846117380472e+004,-1.28217924005447e+001,-4.73919689714078e-001

7.67411295460207e+004,-1.28218657425829e+001,-4.80441809390548e-001

7.78123957929823e+004,-1.28219409960272e+001,-4.87051196262050e-001

7.88986163594682e+004,-1.28220182065144e+001,-4.93748921423586e-001

7.99999999999995e+004,-1.28220974205426e+001,-5.00536065567803e-001

8.11167583832018e+004,-1.28221786854736e+001,-5.07413718955628e-001

8.22491061324848e+004,-1.28222620495363e+001,-5.14382981371930e-001

8.33972608672892e+004,-1.28223475618279e+001,-5.21444962085603e-001

8.45614432449099e+004,-1.28224352723142e+001,-5.28600779803036e-001

8.57418770029029e+004,-1.28225252318298e+001,-5.35851562614299e-001

8.69387890020841e+004,-1.28226174920762e+001,-5.43198447941894e-001

8.81524092701283e+004,-1.28227121056193e+001,-5.50642582478690e-001

8.93829710457770e+004,-1.28228091258856e+001,-5.58185122127179e-001

9.06307108236633e+004,-1.28229086071565e+001,-5.65827231934602e-001

9.18958683997622e+004,-1.28230106045628e+001,-5.73570086018506e-001

9.31786869174758e+004,-1.28231151740755e+001,-5.81414867499175e-001

9.44794129143618e+004,-1.28232223724971e+001,-5.89362768418941e-001

9.57982963695136e+004,-1.28233322574502e+001,-5.97414989663838e-001

9.71355907516031e+004,-1.28234448873647e+001,-6.05572740881707e-001

9.84915530675926e+004,-1.28235603214627e+001,-6.13837240397694e-001

9.98664439121282e+004,-1.28236786197430e+001,-6.22209715125257e-001

1.01260527517622e+005,-1.28237998429619e+001,-6.30691400476393e-001

1.02674071805032e+005,-1.28239240526131e+001,-6.39283540273241e-001

1.04107348435354e+005,-1.28240513109049e+001,-6.47987386651595e-001

1.05560632861831e+005,-1.28241816807355e+001,-6.56804199972655e-001

1.07034204382888e+005,-1.28243152256661e+001,-6.65735248723174e-001

1.08528346195813e+005,-1.28244520098907e+001,-6.74781809427027e-001

1.10043345451179e+005,-1.28245920982050e+001,-6.83945166548467e-001

1.11579493308032e+005,-1.28247355559710e+001,-6.93226612400609e-001

1.13137084989847e+005,-1.28248824490801e+001,-7.02627447057402e-001

1.14716419841265e+005,-1.28250328439129e+001,-7.12148978260893e-001

1.16317801385624e+005,-1.28251868072962e+001,-7.21792521340904e-001

1.17941537383287e+005,-1.28253444064571e+001,-7.31559399132202e-001

1.19587939890794e+005,-1.28255057089741e+001,-7.41450941897194e-001

1.21257325320831e+005,-1.28256707827250e+001,-7.51468487257313e-001

1.22950014503040e+005,-1.28258396958312e+001,-7.61613380127249e-001

1.24666332745679e+005,-1.28260125165995e+001,-7.71886972658986e-001

1.26406609898139e+005,-1.28261893134601e+001,-7.82290624192061e-001

1.28171180414339e+005,-1.28263701549005e+001,-7.92825701217907e-001

1.29960383416997e+005,-1.28265551093972e+001,-8.03493577349166e-001

1.31774562762811e+005,-1.28267442453428e+001,-8.14295633304785e-001

1.33614067108538e+005,-1.28269376309694e+001,-8.25233256909053e-001

1.35479249978003e+005,-1.28271353342696e+001,-8.36307843099171e-001

1.37370469830040e+005,-1.28273374229117e+001,-8.47520793959123e-001

1.39288090127379e+005,-1.28275439641531e+001,-8.58873518759446e-001

1.41232479406504e+005,-1.28277550247487e+001,-8.70367434024525e-001

1.43204011348474e+005,-1.28279706708558e+001,-8.82003963616404e-001

1.45203064850745e+005,-1.28281909679353e+001,-8.93784538842330e-001

1.47230024099979e+005,-1.28284159806494e+001,-9.05710598582367e-001

1.49285278645888e+005,-1.28286457727545e+001,-9.17783589448989e-001

1.51369223476094e+005,-1.28288804069912e+001,-9.30004965967503e-001

1.53482259092041e+005,-1.28291199449709e+001,-9.42376190788068e-001

1.55624791585964e+005,-1.28293644470574e+001,-9.54898734930496e-001

1.57797232718936e+005,-1.28296139722467e+001,-9.67574078057535e-001

1.59999999999999e+005,-1.28298685780413e+001,-9.80403708786381e-001

1.62233516766403e+005,-1.28301283203237e+001,-9.93389125032779e-001

1.64498212264969e+005,-1.28303932532239e+001,-1.00653183439967e+000

1.66794521734578e+005,-1.28306634289860e+001,-1.01983335459917e+000

1.69122886489819e+005,-1.28309388978305e+001,-1.03329521392234e+000

1.71483754005805e+005,-1.28312197078153e+001,-1.04691895174929e+000

1.73877578004168e+005,-1.28315059046924e+001,-1.06070611910898e+000

1.76304818540256e+005,-1.28317975317641e+001,-1.07465827928356e+000

1.78765942091554e+005,-1.28320946297358e+001,-1.08877700846560e+000

1.81261421647326e+005,-1.28323972365683e+001,-1.10306389646478e+000

1.83791736799524e+005,-1.28327053873275e+001,-1.11752054747171e+000

1.86357373834951e+005,-1.28330191140338e+001,-1.13214858087020e+000

1.88958825828723e+005,-1.28333384455106e+001,-1.14694963211591e+000

1.91596592739027e+005,-1.28336634072320e+001,-1.16192535366324e+000

1.94271181503206e+005,-1.28339940211713e+001,-1.17707741596042e+000

1.96983106135185e+005,-1.28343303056488e+001,-1.19240750850095e+000

1.99732887824256e+005,-1.28346722751819e+001,-1.20791734093872e+000

2.02521055035243e+005,-1.28350199403351e+001,-1.22360864426614e+000

2.05348143610063e+005,-1.28353733075728e+001,-1.23948317205810e+000

2.08214696870707e+005,-1.28357323791136e+001,-1.25554270177814e+000

2.11121265723661e+005,-1.28360971527885e+001,-1.27178903615245e+000

2.14068408765776e+005,-1.28364676219011e+001,-1.28822400460957e+000

2.17056692391625e+005,-1.28368437750929e+001,-1.30484946478286e+000

2.20086690902357e+005,-1.28372255962121e+001,-1.32166730408396e+000

2.23158986616063e+005,-1.28376130641878e+001,-1.33867944133899e+000

2.26274169979693e+005,-1.28380061529104e+001,-1.35588782848706e+000

2.29432839682530e+005,-1.28384048311168e+001,-1.37329445234973e+000

2.32635602771247e+005,-1.28388090622840e+001,-1.39090133645594e+000

2.35883074766574e+005,-1.28392188045283e+001,-1.40871054293511e+000

2.39175879781588e+005,-1.28396340105139e+001,-1.42672417446600e+000

2.42514650641661e+005,-1.28400546273697e+001,-1.44494437628520e+000

2.45900029006080e+005,-1.28404805966143e+001,-1.46337333825220e+000

2.49332665491357e+005,-1.28409118540918e+001,-1.48201329696736e+000

2.52813219796278e+005,-1.28413483299175e+001,-1.50086653793976e+000

2.56342360828676e+005,-1.28417899484336e+001,-1.51993539780445e+000

2.59920766833993e+005,-1.28422366281772e+001,-1.53922226658142e+000

2.63549125525621e+005,-1.28426882818594e+001,-1.55872958997903e+000

2.67228134217075e+005,-1.28431448163566e+001,-1.57845987173041e+000

2.70958499956006e+005,-1.28436061327147e+001,-1.59841567596328e+000

2.74740939660078e+005,-1.28440721261656e+001,-1.61859962960129e+000

2.78576180254757e+005,-1.28445426861581e+001,-1.63901442478262e+000

2.82464958813007e+005,-1.28450176964013e+001,-1.65966282130398e+000

2.86408022696948e+005,-1.28454970349223e+001,-1.68054764907274e+000

2.90406129701488e+005,-1.28459805741381e+001,-1.70167181057155e+000

2.94460048199957e+005,-1.28464681809412e+001,-1.72303828332304e+000

2.98570557291775e+005,-1.28469597168002e+001,-1.74465012235208e+000

3.02738446952187e+005,-1.28474550378739e+001,-1.76651046264338e+000

3.06964518184081e+005,-1.28479539951403e+001,-1.78862252157907e+000

3.11249583171928e+005,-1.28484564345394e+001,-1.81098960136250e+000

3.15594465437872e+005,-1.28489621971300e+001,-1.83361509141377e+000

3.19999999999997e+005,-1.28494711192607e+001,-1.85650247073306e+000

3.24467033532806e+005,-1.28499830327542e+001,-1.87965531022901e+000

3.28996424529938e+005,-1.28504977651048e+001,-1.90307727500344e+000

3.33589043469155e+005,-1.28510151396880e+001,-1.92677212658914e+000

3.38245772979638e+005,-1.28515349759841e+001,-1.95074372513224e+000

3.42967508011610e+005,-1.28520570898115e+001,-1.97499603151773e+000

3.47755156008335e+005,-1.28525812935730e+001,-1.99953310942976e+000

3.52609637080511e+005,-1.28531073965110e+001,-2.02435912734648e+000

3.57531884183106e+005,-1.28536352049738e+001,-2.04947836045778e+000

3.62522843294651e+005,-1.28541645226902e+001,-2.07489519251083e+000

3.67583473599047e+005,-1.28546951510527e+001,-2.10061411757047e+000

3.72714747669902e+005,-1.28552268894079e+001,-2.12663974170049e+000

3.77917651657445e+005,-1.28557595353534e+001,-2.15297678455264e+000

3.83193185478053e+005,-1.28562928850401e+001,-2.17963008087119e+000

3.88542363006410e+005,-1.28568267334800e+001,-2.20660458190014e+000

3.93966212270369e+005,-1.28573608748560e+001,-2.23390535670186e+000

3.99465775648511e+005,-1.28578951028361e+001,-2.26153759337866e+000

4.05042110070485e+005,-1.28584292108875e+001,-2.28950660019757e+000

4.10696287220124e+005,-1.28589629925931e+001,-2.31781780662160e+000

4.16429393741414e+005,-1.28594962419657e+001,-2.34647676424362e+000

4.22242531447321e+005,-1.28600287537618e+001,-2.37548914762628e+000

4.28136817531551e+005,-1.28605603237928e+001,-2.40486075504661e+000

4.34113384783250e+005,-1.28610907492322e+001,-2.43459750914949e+000

4.40173381804713e+005,-1.28616198289191e+001,-2.46470545750941e+000

4.46317973232124e+005,-1.28621473636552e+001,-2.49519077310701e+000

4.52548339959385e+005,-1.28626731564959e+001,-2.52605975471739e+000

4.58865679365059e+005,-1.28631970130347e+001,-2.55731882721970e+000

4.65271205542494e+005,-1.28637187416779e+001,-2.58897454182841e+000

4.71766149533147e+005,-1.28642381539124e+001,-2.62103357624844e+000

4.78351759563174e+005,-1.28647550645614e+001,-2.65350273476711e+000

4.85029301283321e+005,-1.28652692920319e+001,-2.68638894827459e+000

4.91800058012158e+005,-1.28657806585493e+001,-2.71969927423092e+000

4.98665330982714e+005,-1.28662889903814e+001,-2.75344089657623e+000

5.05626439592555e+005,-1.28667941180498e+001,-2.78762112559350e+000

5.12684721657352e+005,-1.28672958765281e+001,-2.82224739772855e+000

5.19841533667984e+005,-1.28677941054276e+001,-2.85732727537388e+000

5.27098251051240e+005,-1.28682886491694e+001,-2.89286844662179e+000

5.34456268434150e+005,-1.28687793571421e+001,-2.92887872499208e+000

5.41916999912011e+005,-1.28692660838462e+001,-2.96536604914308e+000

