Freq.,VOut,OutRef

1.00000000000000e+004,-2.43056873475343e+001,-4.22034419534025e-001

1.01395947979003e+004,-2.43056913824786e+001,-4.27925441485648e-001

1.02811382665607e+004,-2.43056955307887e+001,-4.33898683805728e-001

1.04246576084112e+004,-2.43056997956476e+001,-4.39955293602421e-001

1.05701804056138e+004,-2.43057041803276e+001,-4.46096433968730e-001

1.07177346253629e+004,-2.43057086881927e+001,-4.52323284205682e-001

1.08673486252606e+004,-2.43057133227013e+001,-4.58637040046927e-001

1.10190511587661e+004,-2.43057180874089e+001,-4.65038913885983e-001

1.11728713807222e+004,-2.43057229859701e+001,-4.71530135010796e-001

1.13288388529580e+004,-2.43057280221427e+001,-4.78111949832807e-001

1.14869835499703e+004,-2.43057331997892e+001,-4.84785622130565e-001

1.16473358646846e+004,-2.43057385228807e+001,-4.91552433285378e-001

1.18099266142953e+004,-2.43057439954994e+001,-4.98413682529552e-001

1.19747870461893e+004,-2.43057496218421e+001,-5.05370687190861e-001

1.21419488439505e+004,-2.43057554062228e+001,-5.12424782946339e-001

1.23114441334492e+004,-2.43057613530768e+001,-5.19577324073852e-001

1.24833054890161e+004,-2.43057674669633e+001,-5.26829683712324e-001

1.26575659397028e+004,-2.43057737525694e+001,-5.34183254120977e-001

1.28342589756290e+004,-2.43057802147133e+001,-5.41639446946832e-001

1.30134185544193e+004,-2.43057868583483e+001,-5.49199693490730e-001

1.31950791077289e+004,-2.43057936885663e+001,-5.56865444980520e-001

1.33792755478611e+004,-2.43058007106017e+001,-5.64638172848785e-001

1.35660432744767e+004,-2.43058079298355e+001,-5.72519369008656e-001

1.37554181813974e+004,-2.43058153517994e+001,-5.80510546140492e-001

1.39474366635040e+004,-2.43058229821797e+001,-5.88613237978977e-001

1.41421356237309e+004,-2.43058308268220e+001,-5.96828999602771e-001

1.43395524801583e+004,-2.43058388917353e+001,-6.05159407731052e-001

1.45397251732031e+004,-2.43058471830970e+001,-6.13606061021107e-001

1.47426921729110e+004,-2.43058557072568e+001,-6.22170580374734e-001

1.49484924863494e+004,-2.43058644707424e+001,-6.30854609242797e-001

1.51571656651040e+004,-2.43058734802639e+001,-6.39659813936755e-001

1.53687518128801e+004,-2.43058827427191e+001,-6.48587883946632e-001

1.55832915932100e+004,-2.43058922651983e+001,-6.57640532259212e-001

1.58008262372675e+004,-2.43059020549905e+001,-6.66819495682492e-001

1.60213975517924e+004,-2.43059121195879e+001,-6.76126535175636e-001

1.62450479271247e+004,-2.43059224666923e+001,-6.85563436180445e-001

1.64718203453514e+004,-2.43059331042207e+001,-6.95132008960450e-001

1.67017583885674e+004,-2.43059440403110e+001,-7.04834088942028e-001

1.69349062472505e+004,-2.43059552833287e+001,-7.14671537061640e-001

1.71713087287550e+004,-2.43059668418725e+001,-7.24646240117092e-001

1.74110112659224e+004,-2.43059787247814e+001,-7.34760111123961e-001

1.76540599258131e+004,-2.43059909411410e+001,-7.45015089676359e-001

1.79005014185594e+004,-2.43060035002904e+001,-7.55413142312510e-001

1.81503831063432e+004,-2.43060164118293e+001,-7.65956262884815e-001

1.84037530124975e+004,-2.43060296856251e+001,-7.76646472937057e-001

1.86606598307361e+004,-2.43060433318206e+001,-7.87485822082728e-001

1.89211529345119e+004,-2.43060573608410e+001,-7.98476388392846e-001

1.91852823865052e+004,-2.43060717834023e+001,-8.09620278784845e-001

1.94530989482457e+004,-2.43060866105191e+001,-8.20919629419732e-001

1.97246540898671e+004,-2.43061018535130e+001,-8.32376606102472e-001

1.99999999999999e+004,-2.43061175240206e+001,-8.43993404689411e-001

2.02791895958005e+004,-2.43061336340028e+001,-8.55772251498241e-001

2.05622765331213e+004,-2.43061501957533e+001,-8.67715403728620e-001

2.08493152168224e+004,-2.43061672219081e+001,-8.79825149880385e-001

2.11403608112276e+004,-2.43061847254547e+001,-8.92103810185660e-001

2.14354692507258e+004,-2.43062027197418e+001,-9.04553737041778e-001

2.17346972505211e+004,-2.43062212184893e+001,-9.17177315450026e-001

2.20381023175322e+004,-2.43062402357984e+001,-9.29976963461205e-001

2.23457427614443e+004,-2.43062597861622e+001,-9.42955132628135e-001

2.26576777059159e+004,-2.43062798844765e+001,-9.56114308461133e-001

2.29739670999406e+004,-2.43063005460507e+001,-9.69457010892038e-001

2.32946717293690e+004,-2.43063217866191e+001,-9.82985794743033e-001

2.36198532285905e+004,-2.43063436223527e+001,-9.96703250200975e-001

2.39495740923785e+004,-2.43063660698711e+001,-1.01061200329979e+000

2.42838976879009e+004,-2.43063891462547e+001,-1.02471471640781e+000

2.46228882668982e+004,-2.43064128690576e+001,-1.03901408871984e+000

2.49666109780322e+004,-2.43064372563199e+001,-1.05351285675973e+000

2.53151318794055e+004,-2.43064623265817e+001,-1.06821379488525e+000

2.56685179512580e+004,-2.43064880988962e+001,-1.08311971580063e+000

2.60268371088386e+004,-2.43065145928440e+001,-1.09823347107790e+000

2.63901582154578e+004,-2.43065418285472e+001,-1.11355795168116e+000

2.67585510957221e+004,-2.43065698266843e+001,-1.12909608850007e+000

2.71320865489533e+004,-2.43065986085054e+001,-1.14485085288931e+000

2.75108363627948e+004,-2.43066281958472e+001,-1.16082525721531e+000

2.78948733270080e+004,-2.43066586111499e+001,-1.17702235540832e+000

2.82842712474618e+004,-2.43066898774724e+001,-1.19344524352396e+000

2.86791049603164e+004,-2.43067220185099e+001,-1.21009706030870e+000

2.90794503464061e+004,-2.43067550586105e+001,-1.22698098777573e+000

2.94853843458219e+004,-2.43067890227933e+001,-1.24410025178472e+000

2.98969849726987e+004,-2.43068239367664e+001,-1.26145812263134e+000

3.03143313302078e+004,-2.43068598269452e+001,-1.27905791564307e+000

3.07375036257601e+004,-2.43068967204715e+001,-1.29690299178206e+000

3.11665831864199e+004,-2.43069346452334e+001,-1.31499675825466e+000

3.16016524745350e+004,-2.43069736298849e+001,-1.33334266913152e+000

3.20427951035848e+004,-2.43070137038665e+001,-1.35194422597126e+000

3.24900958542493e+004,-2.43070548974264e+001,-1.37080497845430e+000

3.29436406907028e+004,-2.43070972416420e+001,-1.38992852502419e+000

3.34035167771346e+004,-2.43071407684421e+001,-1.40931851353360e+000

3.38698124945009e+004,-2.43071855106295e+001,-1.42897864190399e+000

3.43426174575100e+004,-2.43072315019042e+001,-1.44891265878723e+000

3.48220225318448e+004,-2.43072787768874e+001,-1.46912436423798e+000

3.53081198516260e+004,-2.43073273711460e+001,-1.48961761039447e+000

3.58010028371187e+004,-2.43073773212173e+001,-1.51039630216499e+000

3.63007662126863e+004,-2.43074286646349e+001,-1.53146439792469e+000

3.68075060249948e+004,-2.43074814399551e+001,-1.55282591022011e+000

3.73213196614721e+004,-2.43075356867836e+001,-1.57448490647976e+000

3.78423058690237e+004,-2.43075914458031e+001,-1.59644550973641e+000

3.83705647730104e+004,-2.43076487588019e+001,-1.61871189935473e+000

3.89061978964912e+004,-2.43077076687025e+001,-1.64128831176848e+000

3.94493081797342e+004,-2.43077682195914e+001,-1.66417904122610e+000

3.99999999999998e+004,-2.43078304567493e+001,-1.68738844054461e+000

4.05583791916010e+004,-2.43078944266825e+001,-1.71092092187256e+000

4.11245530662425e+004,-2.43079601771545e+001,-1.73478095745895e+000

4.16986304336447e+004,-2.43080277572188e+001,-1.75897308043473e+000

4.22807216224550e+004,-2.43080972172518e+001,-1.78350188560010e+000

4.28709385014515e+004,-2.43081686089873e+001,-1.80837203022087e+000

4.34693945010421e+004,-2.43082419855517e+001,-1.83358823483383e+000

4.40762046350642e+004,-2.43083174014989e+001,-1.85915528406196e+000

4.46914855228886e+004,-2.43083949128478e+001,-1.88507802743505e+000

4.53153554118317e+004,-2.43084745771189e+001,-1.91136138022380e+000

4.59479341998812e+004,-2.43085564533731e+001,-1.93801032427852e+000

4.65893434587380e+004,-2.43086406022504e+001,-1.96502990887943e+000

4.72397064571810e+004,-2.43087270860103e+001,-1.99242525159457e+000

4.78991481847569e+004,-2.43088159685722e+001,-2.02020153914628e+000

4.85677953758016e+004,-2.43089073155577e+001,-2.04836402828868e+000

4.92457765337964e+004,-2.43090011943327e+001,-2.07691804669111e+000

4.99332219560642e+004,-2.43090976740517e+001,-2.10586899383356e+000

5.06302637588109e+004,-2.43091968257015e+001,-2.13522234190846e+000

5.13370359025159e+004,-2.43092987221477e+001,-2.16498363673348e+000

5.20536742176771e+004,-2.43094034381803e+001,-2.19515849867233e+000

5.27803164309155e+004,-2.43095110505617e+001,-2.22575262356495e+000

5.35171021914442e+004,-2.43096216380750e+001,-2.25677178366640e+000

5.42641730979066e+004,-2.43097352815732e+001,-2.28822182859544e+000

5.50216727255895e+004,-2.43098520640301e+001,-2.32010868629157e+000

5.57897466540159e+004,-2.43099720705914e+001,-2.35243836398206e+000

5.65685424949235e+004,-2.43100953886272e+001,-2.38521694915632e+000

5.73582099206328e+004,-2.43102221077858e+001,-2.41845061055195e+000

5.81589006928121e+004,-2.43103523200479e+001,-2.45214559914686e+000

5.89707686916437e+004,-2.43104861197826e+001,-2.48630824916345e+000

5.97939699453972e+004,-2.43106236038039e+001,-2.52094497907983e+000

6.06286626604156e+004,-2.43107648714282e+001,-2.55606229265138e+000

6.14750072515201e+004,-2.43109100245336e+001,-2.59166677993974e+000

6.23331663728396e+004,-2.43110591676193e+001,-2.62776511835385e+000

6.32033049490698e+004,-2.43112124078671e+001,-2.66436407369664e+000

6.40855902071694e+004,-2.43113698552028e+001,-2.70147050122410e+000

6.49801917084985e+004,-2.43115316223597e+001,-2.73909134671039e+000

6.58872813814055e+004,-2.43116978249429e+001,-2.77723364752473e+000

6.68070335542691e+004,-2.43118685814941e+001,-2.81590453371578e+000

6.77396249890018e+004,-2.43120440135585e+001,-2.85511122910636e+000

6.86852349150199e+004,-2.43122242457519e+001,-2.89486105239538e+000

6.96440450636895e+004,-2.43124094058293e+001,-2.93516141827121e+000

7.06162397032520e+004,-2.43125996247541e+001,-2.97601983853336e+000

7.16020056742374e+004,-2.43127950367696e+001,-3.01744392322255e+000

7.26015324253724e+004,-2.43129957794696e+001,-3.05944138176134e+000

7.36150120499896e+004,-2.43132019938717e+001,-3.10202002410330e+000

7.46426393229441e+004,-2.43134138244911e+001,-3.14518776189134e+000

7.56846117380472e+004,-2.43136314194147e+001,-3.18895260962576e+000

7.67411295460207e+004,-2.43138549303777e+001,-3.23332268584210e+000

7.78123957929823e+004,-2.43140845128397e+001,-3.27830621429775e+000

7.88986163594682e+004,-2.43143203260624e+001,-3.32391152516820e+000

7.99999999999995e+004,-2.43145625331887e+001,-3.37014705625317e+000

8.11167583832018e+004,-2.43148113013217e+001,-3.41702135419324e+000

8.22491061324848e+004,-2.43150668016052e+001,-3.46454307569451e+000

8.33972608672892e+004,-2.43153292093054e+001,-3.51272098876486e+000

8.45614432449099e+004,-2.43155987038930e+001,-3.56156397395985e+000

8.57418770029029e+004,-2.43158754691256e+001,-3.61108102563864e+000

8.69387890020841e+004,-2.43161596931322e+001,-3.66128125323039e+000

8.81524092701283e+004,-2.43164515684975e+001,-3.71217388251246e+000

8.93829710457770e+004,-2.43167512923471e+001,-3.76376825689741e+000

9.06307108236633e+004,-2.43170590664334e+001,-3.81607383873322e+000

9.18958683997622e+004,-2.43173750972224e+001,-3.86910021061356e+000

9.31786869174758e+004,-2.43176995959810e+001,-3.92285707670020e+000

9.44794129143618e+004,-2.43180327788645e+001,-3.97735426405824e+000

9.57982963695136e+004,-2.43183748670056e+001,-4.03260172400179e+000

9.71355907516031e+004,-2.43187260866026e+001,-4.08860953345448e+000

9.84915530675926e+004,-2.43190866690093e+001,-4.14538789632211e+000

9.98664439121282e+004,-2.43194568508242e+001,-4.20294714487900e+000

1.01260527517622e+005,-2.43198368739815e+001,-4.26129774116872e+000

1.02674071805032e+005,-2.43202269858409e+001,-4.32045027841963e+000

1.04107348435354e+005,-2.43206274392786e+001,-4.38041548247521e+000

1.05560632861831e+005,-2.43210384927788e+001,-4.44120421324087e+000

1.07034204382888e+005,-2.43214604105243e+001,-4.50282746614694e+000

1.08528346195813e+005,-2.43218934624887e+001,-4.56529637362873e+000

1.10043345451179e+005,-2.43223379245273e+001,-4.62862220662555e+000

1.11579493308032e+005,-2.43227940784697e+001,-4.69281637609778e+000

1.13137084989847e+005,-2.43232622122108e+001,-4.75789043456361e+000

1.14716419841265e+005,-2.43237426198036e+001,-4.82385607765710e+000

1.16317801385624e+005,-2.43242356015500e+001,-4.89072514570771e+000

1.17941537383287e+005,-2.43247414640940e+001,-4.95850962534207e+000

1.19587939890794e+005,-2.43252605205126e+001,-5.02722165110996e+000

1.21257325320831e+005,-2.43257930904083e+001,-5.09687350713568e+000

1.22950014503040e+005,-2.43263395000006e+001,-5.16747762879472e+000

1.24666332745679e+005,-2.43269000822183e+001,-5.23904660441940e+000

1.26406609898139e+005,-2.43274751767912e+001,-5.31159317703089e+000

1.28171180414339e+005,-2.43280651303417e+001,-5.38513024610497e+000

1.29960383416997e+005,-2.43286702964772e+001,-5.45967086936665e+000

1.31774562762811e+005,-2.43292910358817e+001,-5.53522826461986e+000

1.33614067108538e+005,-2.43299277164082e+001,-5.61181581161157e+000

1.35479249978003e+005,-2.43305807131713e+001,-5.68944705393265e+000

1.37370469830040e+005,-2.43312504086390e+001,-5.76813570095752e+000

1.39288090127379e+005,-2.43319371927265e+001,-5.84789562982365e+000

1.41232479406504e+005,-2.43326414628894e+001,-5.92874088745344e+000

1.43204011348474e+005,-2.43333636242176e+001,-6.01068569262033e+000

1.45203064850745e+005,-2.43341040895305e+001,-6.09374443806083e+000

1.47230024099979e+005,-2.43348632794722e+001,-6.17793169263461e+000

1.49285278645888e+005,-2.43356416226090e+001,-6.26326220353487e+000

1.51369223476094e+005,-2.43364395555269e+001,-6.34975089855105e+000

1.53482259092041e+005,-2.43372575229316e+001,-6.43741288838586e+000

1.55624791585964e+005,-2.43380959777500e+001,-6.52626346902957e+000

1.57797232718936e+005,-2.43389553812333e+001,-6.61631812419205e+000

1.59999999999999e+005,-2.43398362030632e+001,-6.70759252779656e+000

1.62233516766403e+005,-2.43407389214604e+001,-6.80010254653671e+000

1.64498212264969e+005,-2.43416640232960e+001,-6.89386424249920e+000

1.66794521734578e+005,-2.43426120042070e+001,-6.98889387585301e+000

1.69122886489819e+005,-2.43435833687146e+001,-7.08520790760964e+000

1.71483754005805e+005,-2.43445786303479e+001,-7.18282300245512e+000

1.73877578004168e+005,-2.43455983117720e+001,-7.28175603165431e+000

1.76304818540256e+005,-2.43466429449210e+001,-7.38202407603340e+000

1.78765942091554e+005,-2.43477130711377e+001,-7.48364442903848e+000

1.81261421647326e+005,-2.43488092413193e+001,-7.58663459987462e+000

1.83791736799524e+005,-2.43499320160699e+001,-7.69101231672530e+000

1.86357373834951e+005,-2.43510819658617e+001,-7.79679553005534e+000

1.88958825828723e+005,-2.43522596712038e+001,-7.90400241599773e+000

1.91596592739027e+005,-2.43534657228203e+001,-8.01265137982515e+000

1.94271181503206e+005,-2.43547007218391e+001,-8.12276105950842e+000

1.96983106135185e+005,-2.43559652799902e+001,-8.23435032936195e+000

1.99732887824256e+005,-2.43572600198168e+001,-8.34743830377669e+000

2.02521055035243e+005,-2.43585855748983e+001,-8.46204434104000e+000

2.05348143610063e+005,-2.43599425900863e+001,-8.57818804724612e+000

2.08214696870707e+005,-2.43613317217556e+001,-8.69588928029019e+000

2.11121265723661e+005,-2.43627536380700e+001,-8.81516815395339e+000

2.14068408765776e+005,-2.43642090192641e+001,-8.93604504207135e+000

2.17056692391625e+005,-2.43656985579430e+001,-9.05854058278831e+000

2.20086690902357e+005,-2.43672229593993e+001,-9.18267568289442e+000

2.23158986616063e+005,-2.43687829419503e+001,-9.30847152224398e+000

2.26274169979693e+005,-2.43703792372945e+001,-9.43594955825215e+000

2.29432839682530e+005,-2.43720125908906e+001,-9.56513153046682e+000

2.32635602771247e+005,-2.43736837623578e+001,-9.69603946521333e+000

2.35883074766574e+005,-2.43753935259004e+001,-9.82869568030776e+000

2.39175879781588e+005,-2.43771426707568e+001,-9.96312278983310e+000

2.42514650641661e+005,-2.43789320016738e+001,-1.00993437089761e+001

2.45900029006080e+005,-2.43807623394082e+001,-1.02373816589171e+001

2.49332665491357e+005,-2.43826345212553e+001,-1.03772601717688e+001

2.52813219796278e+005,-2.43845494016070e+001,-1.05190030955567e+001

2.56342360828676e+005,-2.43865078525392e+001,-1.06626345992349e+001

2.59920766833993e+005,-2.43885107644296e+001,-1.08081791777289e+001

2.63549125525621e+005,-2.43905590466080e+001,-1.09556616570004e+001

2.67228134217075e+005,-2.43926536280377e+001,-1.11051071991217e+001

2.70958499956006e+005,-2.43947954580317e+001,-1.12565413073555e+001

2.74740939660078e+005,-2.43969855070019e+001,-1.14099898312264e+001

2.78576180254757e+005,-2.43992247672438e+001,-1.15654789715787e+001

2.82464958813007e+005,-2.44015142537555e+001,-1.17230352856063e+001

2.86408022696948e+005,-2.44038550050945e+001,-1.18826856918485e+001

2.90406129701488e+005,-2.44062480842694e+001,-1.20444574751363e+001

2.94460048199957e+005,-2.44086945796691e+001,-1.22083782914824e+001

2.98570557291775e+005,-2.44111956060296e+001,-1.23744761728995e+001

3.02738446952187e+005,-2.44137523054383e+001,-1.25427795321373e+001

3.06964518184081e+005,-2.44163658483749e+001,-1.27133171673261e+001

3.11249583171928e+005,-2.44190374347917e+001,-1.28861182665133e+001

3.15594465437872e+005,-2.44217682952309e+001,-1.30612124120812e+001

3.19999999999997e+005,-2.44245596919788e+001,-1.32386295850341e+001

3.24467033532806e+005,-2.44274129202585e+001,-1.34184001691401e+001

3.28996424529938e+005,-2.44303293094596e+001,-1.36005549549166e+001

3.33589043469155e+005,-2.44333102244032e+001,-1.37851251434463e+001

3.38245772979638e+005,-2.44363570666446e+001,-1.39721423500098e+001

3.42967508011610e+005,-2.44394712758107e+001,-1.41616386075233e+001

3.47755156008335e+005,-2.44426543309716e+001,-1.43536463697692e+001

3.52609637080511e+005,-2.44459077520477e+001,-1.45481985144055e+001

3.57531884183106e+005,-2.44492331012474e+001,-1.47453283457434e+001

3.62522843294651e+005,-2.44526319845391e+001,-1.49450695972801e+001

3.67583473599047e+005,-2.44561060531523e+001,-1.51474564339764e+001

3.72714747669902e+005,-2.44596570051091e+001,-1.53525234542657e+001

3.77917651657445e+005,-2.44632865867835e+001,-1.55603056917862e+001

3.83193185478053e+005,-2.44669965944884e+001,-1.57708386168222e+001

3.88542363006410e+005,-2.44707888760874e+001,-1.59841581374478e+001

3.93966212270369e+005,-2.44746653326307e+001,-1.62003006003605e+001

3.99465775648511e+005,-2.44786279200139e+001,-1.64193027913971e+001

4.05042110070485e+005,-2.44826786506569e+001,-1.66412019357210e+001

4.10696287220124e+005,-2.44868195952025e+001,-1.68660356976756e+001

4.16429393741414e+005,-2.44910528842324e+001,-1.70938421802917e+001

4.22242531447321e+005,-2.44953807099982e+001,-1.73246599244457e+001

4.28136817531551e+005,-2.44998053281669e+001,-1.75585279076574e+001

4.34113384783250e+005,-2.45043290595784e+001,-1.77954855425244e+001

4.40173381804713e+005,-2.45089542920123e+001,-1.80355726747853e+001

4.46317973232124e+005,-2.45136834819646e+001,-1.82788295810044e+001

4.52548339959385e+005,-2.45185191564288e+001,-1.85252969658773e+001

4.58865679365059e+005,-2.45234639146833e+001,-1.87750159591471e+001

4.65271205542494e+005,-2.45285204300802e+001,-1.90280281121303e+001

4.71766149533147e+005,-2.45336914518355e+001,-1.92843753938474e+001

4.78351759563174e+005,-2.45389798068173e+001,-1.95441001867539e+001

4.85029301283321e+005,-2.45443884013319e+001,-1.98072452820690e+001

4.91800058012158e+005,-2.45499202229036e+001,-2.00738538746976e+001

4.98665330982714e+005,-2.45555783420486e+001,-2.03439695577449e+001

5.05626439592555e+005,-2.45613659140393e+001,-2.06176363166175e+001

5.12684721657352e+005,-2.45672861806578e+001,-2.08948985227116e+001

5.19841533667984e+005,-2.45733424719374e+001,-2.11758009266848e+001

5.27098251051240e+005,-2.45795382078881e+001,-2.14603886513083e+001

5.34456268434150e+005,-2.45858769002070e+001,-2.17487071838978e+001

5.41916999912011e+005,-2.45923621539686e+001,-2.20408023683231e+001

