Freq.,VOut,OutRef

1.00000000000000e+004,-3.16879381824321e+001,-9.29409879453812e-002

1.01395947979003e+004,-3.16879391123788e+001,-9.42382566249528e-002

1.02811382665607e+004,-3.16879400684392e+001,-9.55536285964009e-002

1.04246576084112e+004,-3.16879410513458e+001,-9.68873563213621e-002

1.05701804056138e+004,-3.16879420618515e+001,-9.82396957754153e-002

1.07177346253629e+004,-3.16879431007302e+001,-9.96109064979178e-002

1.08673486252606e+004,-3.16879441687777e+001,-1.01001251636910e-001

1.10190511587661e+004,-3.16879452668118e+001,-1.02410998003007e-001

1.11728713807222e+004,-3.16879463956730e+001,-1.03840416121515e-001

1.13288388529580e+004,-3.16879475562259e+001,-1.05289780276696e-001

1.14869835499703e+004,-3.16879487493587e+001,-1.06759368570766e-001

1.16473358646846e+004,-3.16879499759846e+001,-1.08249462973406e-001

1.18099266142953e+004,-3.16879512370425e+001,-1.09760349375696e-001

1.19747870461893e+004,-3.16879525334974e+001,-1.11292317642796e-001

1.21419488439505e+004,-3.16879538663411e+001,-1.12845661673415e-001

1.23114441334492e+004,-3.16879552365932e+001,-1.14420679449595e-001

1.24833054890161e+004,-3.16879566453022e+001,-1.16017673095222e-001

1.26575659397028e+004,-3.16879580935450e+001,-1.17636948936076e-001

1.28342589756290e+004,-3.16879595824292e+001,-1.19278817553754e-001

1.30134185544193e+004,-3.16879611130934e+001,-1.20943593844520e-001

1.31950791077289e+004,-3.16879626867075e+001,-1.22631597081454e-001

1.33792755478611e+004,-3.16879643044743e+001,-1.24343150972944e-001

1.35660432744767e+004,-3.16879659676301e+001,-1.26078583722950e-001

1.37554181813974e+004,-3.16879676774458e+001,-1.27838228095050e-001

1.39474366635040e+004,-3.16879694352276e+001,-1.29622421471984e-001

1.41421356237309e+004,-3.16879712423180e+001,-1.31431505922797e-001

1.43395524801583e+004,-3.16879731000970e+001,-1.33265828264683e-001

1.45397251732031e+004,-3.16879750099834e+001,-1.35125740127265e-001

1.47426921729110e+004,-3.16879769734349e+001,-1.37011598022223e-001

1.49484924863494e+004,-3.16879789919501e+001,-1.38923763407175e-001

1.51571656651040e+004,-3.16879810670694e+001,-1.40862602755077e-001

1.53687518128801e+004,-3.16879832003759e+001,-1.42828487620808e-001

1.55832915932100e+004,-3.16879853934968e+001,-1.44821794713994e-001

1.58008262372675e+004,-3.16879876481045e+001,-1.46842905967146e-001

1.60213975517924e+004,-3.16879899659180e+001,-1.48892208606824e-001

1.62450479271247e+004,-3.16879923487041e+001,-1.50970095227231e-001

1.64718203453514e+004,-3.16879947982784e+001,-1.53076963865552e-001

1.67017583885674e+004,-3.16879973165076e+001,-1.55213218068884e-001

1.69349062472505e+004,-3.16879999053093e+001,-1.57379266980408e-001

1.71713087287550e+004,-3.16880025666549e+001,-1.59575525406242e-001

1.74110112659224e+004,-3.16880053025707e+001,-1.61802413894838e-001

1.76540599258131e+004,-3.16880081151385e+001,-1.64060358820674e-001

1.79005014185594e+004,-3.16880110064985e+001,-1.66349792455287e-001

1.81503831063432e+004,-3.16880139788499e+001,-1.68671153053154e-001

1.84037530124975e+004,-3.16880170344528e+001,-1.71024884931552e-001

1.86606598307361e+004,-3.16880201756299e+001,-1.73411438552372e-001

1.89211529345119e+004,-3.16880234047683e+001,-1.75831270605660e-001

1.91852823865052e+004,-3.16880267243213e+001,-1.78284844092822e-001

1.94530989482457e+004,-3.16880301368094e+001,-1.80772628416161e-001

1.97246540898671e+004,-3.16880336448235e+001,-1.83295099460322e-001

1.99999999999999e+004,-3.16880372510257e+001,-1.85852739682655e-001

2.02791895958005e+004,-3.16880409581517e+001,-1.88446038203552e-001

2.05622765331213e+004,-3.16880447690129e+001,-1.91075490891382e-001

2.08493152168224e+004,-3.16880486864978e+001,-1.93741600460004e-001

2.11403608112276e+004,-3.16880527135749e+001,-1.96444876555494e-001

2.14354692507258e+004,-3.16880568532945e+001,-1.99185835851786e-001

2.17346972505211e+004,-3.16880611087906e+001,-2.01965002146168e-001

2.20381023175322e+004,-3.16880654832839e+001,-2.04782906452386e-001

2.23457427614443e+004,-3.16880699800835e+001,-2.07640087098967e-001

2.26576777059159e+004,-3.16880746025892e+001,-2.10537089828188e-001

2.29739670999406e+004,-3.16880793542948e+001,-2.13474467891787e-001

2.32946717293690e+004,-3.16880842387894e+001,-2.16452782157051e-001

2.36198532285905e+004,-3.16880892597610e+001,-2.19472601202468e-001

2.39495740923785e+004,-3.16880944209985e+001,-2.22534501425432e-001

2.42838976879009e+004,-3.16880997263948e+001,-2.25639067142735e-001

2.46228882668982e+004,-3.16881051799492e+001,-2.28786890697664e-001

2.49666109780322e+004,-3.16881107857703e+001,-2.31978572568026e-001

2.53151318794055e+004,-3.16881165480795e+001,-2.35214721470116e-001

2.56685179512580e+004,-3.16881224712130e+001,-2.38495954472575e-001

2.60268371088386e+004,-3.16881285596257e+001,-2.41822897102829e-001

2.63901582154578e+004,-3.16881348178936e+001,-2.45196183462000e-001

2.67585510957221e+004,-3.16881412507179e+001,-2.48616456334938e-001

2.71320865489533e+004,-3.16881478629273e+001,-2.52084367307510e-001

2.75108363627948e+004,-3.16881546594819e+001,-2.55600576880617e-001

2.78948733270080e+004,-3.16881616454768e+001,-2.59165754587474e-001

2.82842712474618e+004,-3.16881688261453e+001,-2.62780579112069e-001

2.86791049603164e+004,-3.16881762068624e+001,-2.66445738408875e-001

2.90794503464061e+004,-3.16881837931490e+001,-2.70161929823136e-001

2.94853843458219e+004,-3.16881915906751e+001,-2.73929860215746e-001

2.98969849726987e+004,-3.16881996052643e+001,-2.77750246083691e-001

3.03143313302078e+004,-3.16882078428970e+001,-2.81623813687232e-001

3.07375036257601e+004,-3.16882163097153e+001,-2.85551299175793e-001

3.11665831864199e+004,-3.16882250120265e+001,-2.89533448714989e-001

3.16016524745350e+004,-3.16882339563076e+001,-2.93571018619078e-001

3.20427951035848e+004,-3.16882431492096e+001,-2.97664775476428e-001

3.24900958542493e+004,-3.16882525975621e+001,-3.01815496286591e-001

3.29436406907028e+004,-3.16882623083776e+001,-3.06023968590070e-001

3.34035167771346e+004,-3.16882722888563e+001,-3.10290990605474e-001

3.38698124945009e+004,-3.16882825463907e+001,-3.14617371363834e-001

3.43426174575100e+004,-3.16882930885706e+001,-3.19003930847741e-001

3.48220225318448e+004,-3.16883039231882e+001,-3.23451500128867e-001

3.53081198516260e+004,-3.16883150582427e+001,-3.27960921509763e-001

3.58010028371187e+004,-3.16883265019458e+001,-3.32533048664597e-001

3.63007662126863e+004,-3.16883382627269e+001,-3.37168746784298e-001

3.68075060249948e+004,-3.16883503492387e+001,-3.41868892716422e-001

3.73213196614721e+004,-3.16883627703624e+001,-3.46634375116061e-001

3.78423058690237e+004,-3.16883755352134e+001,-3.51466094591937e-001

3.83705647730104e+004,-3.16883886531473e+001,-3.56364963852488e-001

3.89061978964912e+004,-3.16884021337650e+001,-3.61331907859826e-001

3.94493081797342e+004,-3.16884159869196e+001,-3.66367863978790e-001

3.99999999999998e+004,-3.16884302227221e+001,-3.71473782128332e-001

4.05583791916010e+004,-3.16884448515474e+001,-3.76650624940521e-001

4.11245530662425e+004,-3.16884598840406e+001,-3.81899367912326e-001

4.16986304336447e+004,-3.16884753311239e+001,-3.87220999562356e-001

4.22807216224550e+004,-3.16884912040026e+001,-3.92616521591454e-001

4.28709385014515e+004,-3.16885075141722e+001,-3.98086949039943e-001

4.34693945010421e+004,-3.16885242734248e+001,-4.03633310449903e-001

4.40762046350642e+004,-3.16885414938563e+001,-4.09256648027907e-001

4.46914855228886e+004,-3.16885591878731e+001,-4.14958017805687e-001

4.53153554118317e+004,-3.16885773681997e+001,-4.20738489808071e-001

4.59479341998812e+004,-3.16885960478853e+001,-4.26599148217680e-001

4.65893434587380e+004,-3.16886152403121e+001,-4.32541091540568e-001

4.72397064571810e+004,-3.16886349592015e+001,-4.38565432778251e-001

4.78991481847569e+004,-3.16886552186229e+001,-4.44673299593557e-001

4.85677953758016e+004,-3.16886760330007e+001,-4.50865834484403e-001

4.92457765337964e+004,-3.16886974171222e+001,-4.57144194954599e-001

4.99332219560642e+004,-3.16887193861455e+001,-4.63509553687367e-001

5.06302637588109e+004,-3.16887419556079e+001,-4.69963098718341e-001

5.13370359025159e+004,-3.16887651414334e+001,-4.76506033613546e-001

5.20536742176771e+004,-3.16887889599411e+001,-4.83139577645123e-001

5.27803164309155e+004,-3.16888134278538e+001,-4.89864965965856e-001

5.35171021914442e+004,-3.16888385623058e+001,-4.96683449793128e-001

5.42641730979066e+004,-3.16888643808521e+001,-5.03596296584014e-001

5.50216727255895e+004,-3.16888909014761e+001,-5.10604790218504e-001

5.57897466540159e+004,-3.16889181425987e+001,-5.17710231180431e-001

5.65685424949235e+004,-3.16889461230871e+001,-5.24913936739769e-001

5.73582099206328e+004,-3.16889748622628e+001,-5.32217241137045e-001

5.81589006928121e+004,-3.16890043799112e+001,-5.39621495765629e-001

5.89707686916437e+004,-3.16890346962901e+001,-5.47128069359274e-001

5.97939699453972e+004,-3.16890658321383e+001,-5.54738348177554e-001

6.06286626604156e+004,-3.16890978086847e+001,-5.62453736191294e-001

6.14750072515201e+004,-3.16891306476572e+001,-5.70275655272656e-001

6.23331663728396e+004,-3.16891643712916e+001,-5.78205545380814e-001

6.32033049490698e+004,-3.16891990023402e+001,-5.86244864754148e-001

6.40855902071694e+004,-3.16892345640811e+001,-5.94395090097008e-001

6.49801917084985e+004,-3.16892710803267e+001,-6.02657716771860e-001

6.58872813814055e+004,-3.16893085754326e+001,-6.11034258990306e-001

6.68070335542691e+004,-3.16893470743064e+001,-6.19526250004506e-001

6.77396249890018e+004,-3.16893866024161e+001,-6.28135242299767e-001

6.86852349150199e+004,-3.16894271857988e+001,-6.36862807787895e-001

6.96440450636895e+004,-3.16894688510695e+001,-6.45710537998741e-001

7.06162397032520e+004,-3.16895116254287e+001,-6.54680044277070e-001

7.16020056742374e+004,-3.16895555366711e+001,-6.63772957976163e-001

7.26015324253724e+004,-3.16896006131935e+001,-6.72990930650346e-001

7.36150120499896e+004,-3.16896468840025e+001,-6.82335634255315e-001

7.46426393229441e+004,-3.16896943787223e+001,-6.91808761340742e-001

7.56846117380472e+004,-3.16897431276020e+001,-7.01412025247035e-001

7.67411295460207e+004,-3.16897931615225e+001,-7.11147160305685e-001

7.78123957929823e+004,-3.16898445120037e+001,-7.21015922032702e-001

7.88986163594682e+004,-3.16898972112110e+001,-7.31020087329997e-001

7.99999999999995e+004,-3.16899512919611e+001,-7.41161454683302e-001

8.11167583832018e+004,-3.16900067877281e+001,-7.51441844360131e-001

8.22491061324848e+004,-3.16900637326491e+001,-7.61863098613039e-001

8.33972608672892e+004,-3.16901221615289e+001,-7.72427081876538e-001

8.45614432449099e+004,-3.16901821098445e+001,-7.83135680972041e-001

8.57418770029029e+004,-3.16902436137494e+001,-7.93990805307172e-001

8.69387890020841e+004,-3.16903067100769e+001,-8.04994387081089e-001

8.81524092701283e+004,-3.16903714363430e+001,-8.16148381487471e-001

8.93829710457770e+004,-3.16904378307489e+001,-8.27454766919018e-001

9.06307108236633e+004,-3.16905059321825e+001,-8.38915545174599e-001

9.18958683997622e+004,-3.16905757802195e+001,-8.50532741666846e-001

9.31786869174758e+004,-3.16906474151234e+001,-8.62308405629791e-001

9.44794129143618e+004,-3.16907208778453e+001,-8.74244610330009e-001

9.57982963695136e+004,-3.16907962100226e+001,-8.86343453278090e-001

9.71355907516031e+004,-3.16908734539761e+001,-8.98607056443188e-001

9.84915530675926e+004,-3.16909526527078e+001,-9.11037566468518e-001

9.98664439121282e+004,-3.16910338498962e+001,-9.23637154889487e-001

1.01260527517622e+005,-3.16911170898914e+001,-9.36408018353868e-001

1.02674071805032e+005,-3.16912024177090e+001,-9.49352378846747e-001

1.04107348435354e+005,-3.16912898790229e+001,-9.62472483914913e-001

1.05560632861831e+005,-3.16913795201566e+001,-9.75770606897959e-001

1.07034204382888e+005,-3.16914713880740e+001,-9.89249047161171e-001

1.08528346195813e+005,-3.16915655303683e+001,-1.00291013033292e+000

1.10043345451179e+005,-3.16916619952497e+001,-1.01675620854646e+000

1.11579493308032e+005,-3.16917608315323e+001,-1.03078966068646e+000

1.13137084989847e+005,-3.16918620886186e+001,-1.04501289263989e+000

1.14716419841265e+005,-3.16919658164838e+001,-1.05942833755442e+000

1.16317801385624e+005,-3.16920720656569e+001,-1.07403845610117e+000

1.17941537383287e+005,-3.16921808872025e+001,-1.08884573674375e+000

1.19587939890794e+005,-3.16922923326984e+001,-1.10385269601748e+000

1.21257325320831e+005,-3.16924064542140e+001,-1.11906187881233e+000

1.22950014503040e+005,-3.16925233042852e+001,-1.13447585866733e+000

1.24666332745679e+005,-3.16926429358883e+001,-1.15009723807198e+000

1.26406609898139e+005,-3.16927654024125e+001,-1.16592864877911e+000

1.28171180414339e+005,-3.16928907576297e+001,-1.18197275212618e+000

1.29960383416997e+005,-3.16930190556631e+001,-1.19823223936889e+000

1.31774562762811e+005,-3.16931503509533e+001,-1.21470983202864e+000

1.33614067108538e+005,-3.16932846982238e+001,-1.23140828224677e+000

1.35479249978003e+005,-3.16934221524428e+001,-1.24833037315981e+000

1.37370469830040e+005,-3.16935627687845e+001,-1.26547891928405e+000

1.39288090127379e+005,-3.16937066025874e+001,-1.28285676691828e+000

1.41232479406504e+005,-3.16938537093115e+001,-1.30046679456036e+000

1.43204011348474e+005,-3.16940041444930e+001,-1.31831191334426e+000

1.45203064850745e+005,-3.16941579636970e+001,-1.33639506749388e+000

1.47230024099979e+005,-3.16943152224689e+001,-1.35471923479475e+000

1.49285278645888e+005,-3.16944759762827e+001,-1.37328742709078e+000

1.51369223476094e+005,-3.16946402804889e+001,-1.39210269079718e+000

1.53482259092041e+005,-3.16948081902591e+001,-1.41116810744150e+000

1.55624791585964e+005,-3.16949797605298e+001,-1.43048679422508e+000

1.57797232718936e+005,-3.16951550459440e+001,-1.45006190460978e+000

1.59999999999999e+005,-3.16953341007911e+001,-1.46989662893453e+000

1.62233516766403e+005,-3.16955169789454e+001,-1.48999419505526e+000

1.64498212264969e+005,-3.16957037338029e+001,-1.51035786901729e+000

1.66794521734578e+005,-3.16958944182170e+001,-1.53099095575416e+000

1.69122886489819e+005,-3.16960890844323e+001,-1.55189679982171e+000

1.71483754005805e+005,-3.16962877840175e+001,-1.57307878616278e+000

1.73877578004168e+005,-3.16964905677981e+001,-1.59454034090411e+000

1.76304818540256e+005,-3.16966974857865e+001,-1.61628493219207e+000

1.78765942091554e+005,-3.16969085871131e+001,-1.63831607106201e+000

1.81261421647326e+005,-3.16971239199555e+001,-1.66063731234550e+000

1.83791736799524e+005,-3.16973435314684e+001,-1.68325225561597e+000

1.86357373834951e+005,-3.16975674677129e+001,-1.70616454617573e+000

1.88958825828723e+005,-3.16977957735857e+001,-1.72937787608071e+000

1.91596592739027e+005,-3.16980284927488e+001,-1.75289598521051e+000

1.94271181503206e+005,-3.16982656675602e+001,-1.77672266237769e+000

1.96983106135185e+005,-3.16985073390048e+001,-1.80086174648228e+000

1.99732887824256e+005,-3.16987535466267e+001,-1.82531712771201e+000

2.02521055035243e+005,-3.16990043284629e+001,-1.85009274878517e+000

2.05348143610063e+005,-3.16992597209788e+001,-1.87519260624006e+000

2.08214696870707e+005,-3.16995197590056e+001,-1.90062075177106e+000

2.11121265723661e+005,-3.16997844756800e+001,-1.92638129361156e+000

2.14068408765776e+005,-3.17000539023869e+001,-1.95247839796242e+000

2.17056692391625e+005,-3.17003280687049e+001,-1.97891629046953e+000

2.20086690902357e+005,-3.17006070023549e+001,-2.00569925774668e+000

2.23158986616063e+005,-3.17008907291535e+001,-2.03283164894650e+000

2.26274169979693e+005,-3.17011792729692e+001,-2.06031787737756e+000

2.29432839682530e+005,-3.17014726556841e+001,-2.08816242216929e+000

2.32635602771247e+005,-3.17017708971598e+001,-2.11636982998123e+000

2.35883074766574e+005,-3.17020740152094e+001,-2.14494471675675e+000

2.39175879781588e+005,-3.17023820255741e+001,-2.17389176952463e+000

2.42514650641661e+005,-3.17026949419066e+001,-2.20321574823901e+000

2.45900029006080e+005,-3.17030127757607e+001,-2.23292148766511e+000

2.49332665491357e+005,-3.17033355365870e+001,-2.26301389930381e+000

2.52813219796278e+005,-3.17036632317371e+001,-2.29349797335606e+000

2.56342360828676e+005,-3.17039958664738e+001,-2.32437878072242e+000

2.59920766833993e+005,-3.17043334439894e+001,-2.35566147504246e+000

2.63549125525621e+005,-3.17046759654335e+001,-2.38735129476190e+000

2.67228134217075e+005,-3.17050234299467e+001,-2.41945356523524e+000

2.70958499956006e+005,-3.17053758347053e+001,-2.45197370085436e+000

2.74740939660078e+005,-3.17057331749736e+001,-2.48491720720489e+000

2.78576180254757e+005,-3.17060954441658e+001,-2.51828968324490e+000

2.82464958813007e+005,-3.17064626339170e+001,-2.55209682350462e+000

2.86408022696948e+005,-3.17068347341646e+001,-2.58634442030345e+000

2.90406129701488e+005,-3.17072117332382e+001,-2.62103836598182e+000

2.94460048199957e+005,-3.17075936179606e+001,-2.65618465514478e+000

2.98570557291775e+005,-3.17079803737575e+001,-2.69178938691307e+000

3.02738446952187e+005,-3.17083719847782e+001,-2.72785876717901e+000

3.06964518184081e+005,-3.17087684340261e+001,-2.76439911086548e+000

3.11249583171928e+005,-3.17091697034987e+001,-2.80141684418042e+000

3.15594465437872e+005,-3.17095757743382e+001,-2.83891850686888e+000

3.19999999999997e+005,-3.17099866269917e+001,-2.87691075445423e+000

3.24467033532806e+005,-3.17104022413811e+001,-2.91540036046829e+000

3.28996424529938e+005,-3.17108225970826e+001,-2.95439421866742e+000

3.33589043469155e+005,-3.17112476735162e+001,-2.99389934522713e+000

3.38245772979638e+005,-3.17116774501429e+001,-3.03392288091835e+000

3.42967508011610e+005,-3.17121119066725e+001,-3.07447209325586e+000

3.47755156008335e+005,-3.17125510232790e+001,-3.11555437862204e+000

3.52609637080511e+005,-3.17129947808245e+001,-3.15717726435744e+000

3.57531884183106e+005,-3.17134431610905e+001,-3.19934841082139e+000

3.62522843294651e+005,-3.17138961470180e+001,-3.24207561341332e+000

3.67583473599047e+005,-3.17143537229527e+001,-3.28536680456043e+000

3.72714747669902e+005,-3.17148158748987e+001,-3.32923005566182e+000

3.77917651657445e+005,-3.17152825907771e+001,-3.37367357899562e+000

3.83193185478053e+005,-3.17157538606905e+001,-3.41870572957843e+000

3.88542363006410e+005,-3.17162296771930e+001,-3.46433500698432e+000

3.93966212270369e+005,-3.17167100355642e+001,-3.51057005711578e+000

3.99465775648511e+005,-3.17171949340874e+001,-3.55741967393068e+000

4.05042110070485e+005,-3.17176843743318e+001,-3.60489280112232e+000

4.10696287220124e+005,-3.17181783614370e+001,-3.65299853375120e+000

4.16429393741414e+005,-3.17186769043998e+001,-3.70174611983321e+000

4.22242531447321e+005,-3.17191800163637e+001,-3.75114496187911e+000

4.28136817531551e+005,-3.17196877149090e+001,-3.80120461838984e+000

4.34113384783250e+005,-3.17202000223434e+001,-3.85193480530718e+000

4.40173381804713e+005,-3.17207169659938e+001,-3.90334539742092e+000

4.46317973232124e+005,-3.17212385784972e+001,-3.95544642973469e+000

4.52548339959385e+005,-3.17217648980907e+001,-4.00824809879105e+000

4.58865679365059e+005,-3.17222959689009e+001,-4.06176076396014e+000

4.65271205542494e+005,-3.17228318412312e+001,-4.11599494868979e+000

4.71766149533147e+005,-3.17233725718474e+001,-4.17096134172609e+000

4.78351759563174e+005,-3.17239182242605e+001,-4.22667079829913e+000

4.85029301283321e+005,-3.17244688690072e+001,-4.28313434128473e+000

4.91800058012158e+005,-3.17250245839270e+001,-4.34036316233893e+000

4.98665330982714e+005,-3.17255854544363e+001,-4.39836862301077e+000

5.05626439592555e+005,-3.17261515737985e+001,-4.45716225583824e+000

5.12684721657352e+005,-3.17267230433909e+001,-4.51675576542767e+000

5.19841533667984e+005,-3.17272999729674e+001,-4.57716102952242e+000

5.27098251051240e+005,-3.17278824809171e+001,-4.63839010006264e+000

5.34456268434150e+005,-3.17284706945190e+001,-4.70045520424091e+000

5.41916999912011e+005,-3.17290647501927e+001,-4.76336874555781e+000

