Freq.,VOut,OutRef

1.00000000000000e+004,-1.35719205269245e+001,-1.48568362677712e-001

1.01395947979003e+004,-1.35719211115222e+001,-1.50642205711052e-001

1.02811382665607e+004,-1.35719217125344e+001,-1.52744994525387e-001

1.04246576084112e+004,-1.35719223304215e+001,-1.54877133019497e-001

1.05701804056138e+004,-1.35719229656566e+001,-1.57039030722997e-001

1.07177346253629e+004,-1.35719236187261e+001,-1.59231102875823e-001

1.08673486252606e+004,-1.35719242901300e+001,-1.61453770505182e-001

1.10190511587661e+004,-1.35719249803825e+001,-1.63707460507861e-001

1.11728713807222e+004,-1.35719256900116e+001,-1.65992605733728e-001

1.13288388529580e+004,-1.35719264195605e+001,-1.68309645063068e-001

1.14869835499703e+004,-1.35719271695877e+001,-1.70659023495099e-001

1.16473358646846e+004,-1.35719279406668e+001,-1.73041192231573e-001

1.18099266142953e+004,-1.35719287333879e+001,-1.75456608761608e-001

1.19747870461893e+004,-1.35719295483573e+001,-1.77905736951796e-001

1.21419488439505e+004,-1.35719303861983e+001,-1.80389047132474e-001

1.23114441334492e+004,-1.35719312475517e+001,-1.82907016187519e-001

1.24833054890161e+004,-1.35719321330761e+001,-1.85460127646625e-001

1.26575659397028e+004,-1.35719330434483e+001,-1.88048871778912e-001

1.28342589756290e+004,-1.35719339793645e+001,-1.90673745680551e-001

1.30134185544193e+004,-1.35719349415397e+001,-1.93335253377456e-001

1.31950791077289e+004,-1.35719359307090e+001,-1.96033905916391e-001

1.33792755478611e+004,-1.35719369476284e+001,-1.98770221462532e-001

1.35660432744767e+004,-1.35719379930748e+001,-2.01544725399046e-001

1.37554181813974e+004,-1.35719390678461e+001,-2.04357950431326e-001

1.39474366635040e+004,-1.35719401727634e+001,-2.07210436678797e-001

1.41421356237309e+004,-1.35719413086702e+001,-2.10102731787798e-001

1.43395524801583e+004,-1.35719424764334e+001,-2.13035391030927e-001

1.45397251732031e+004,-1.35719436769442e+001,-2.16008977412092e-001

1.47426921729110e+004,-1.35719449111184e+001,-2.19024061778210e-001

1.49484924863494e+004,-1.35719461798977e+001,-2.22081222919827e-001

1.51571656651040e+004,-1.35719474842495e+001,-2.25181047691568e-001

1.53687518128801e+004,-1.35719488251685e+001,-2.28324131114518e-001

1.55832915932100e+004,-1.35719502036768e+001,-2.31511076494697e-001

1.58008262372675e+004,-1.35719516208250e+001,-2.34742495536124e-001

1.60213975517924e+004,-1.35719530776928e+001,-2.38019008456486e-001

1.62450479271247e+004,-1.35719545753899e+001,-2.41341244107358e-001

1.64718203453514e+004,-1.35719561150570e+001,-2.44709840088984e-001

1.67017583885674e+004,-1.35719576978662e+001,-2.48125442877424e-001

1.69349062472505e+004,-1.35719593250222e+001,-2.51588707941347e-001

1.71713087287550e+004,-1.35719609977631e+001,-2.55100299870558e-001

1.74110112659224e+004,-1.35719627173615e+001,-2.58660892499489e-001

1.76540599258131e+004,-1.35719644851248e+001,-2.62271169037567e-001

1.79005014185594e+004,-1.35719663023972e+001,-2.65931822194733e-001

1.81503831063432e+004,-1.35719681705596e+001,-2.69643554317207e-001

1.84037530124975e+004,-1.35719700910315e+001,-2.73407077516115e-001

1.86606598307361e+004,-1.35719720652712e+001,-2.77223113807662e-001

1.89211529345119e+004,-1.35719740947780e+001,-2.81092395241613e-001

1.91852823865052e+004,-1.35719761810919e+001,-2.85015664049180e-001

1.94530989482457e+004,-1.35719783257958e+001,-2.88993672776420e-001

1.97246540898671e+004,-1.35719805305163e+001,-2.93027184429232e-001

1.99999999999999e+004,-1.35719827969250e+001,-2.97116972615995e-001

2.02791895958005e+004,-1.35719851267391e+001,-3.01263821696301e-001

2.05622765331213e+004,-1.35719875217238e+001,-3.05468526925445e-001

2.08493152168224e+004,-1.35719899836925e+001,-3.09731894606288e-001

2.11403608112276e+004,-1.35719925145085e+001,-3.14054742242410e-001

2.14354692507258e+004,-1.35719951160864e+001,-3.18437898689654e-001

2.17346972505211e+004,-1.35719977903937e+001,-3.22882204312720e-001

2.20381023175322e+004,-1.35720005394515e+001,-3.27388511145520e-001

2.23457427614443e+004,-1.35720033653371e+001,-3.31957683047085e-001

2.26576777059159e+004,-1.35720062701841e+001,-3.36590595868272e-001

2.29739670999406e+004,-1.35720092561848e+001,-3.41288137614984e-001

2.32946717293690e+004,-1.35720123255919e+001,-3.46051208611729e-001

2.36198532285905e+004,-1.35720154807194e+001,-3.50880721676822e-001

2.39495740923785e+004,-1.35720187239448e+001,-3.55777602286366e-001

2.42838976879009e+004,-1.35720220577106e+001,-3.60742788752430e-001

2.46228882668982e+004,-1.35720254845260e+001,-3.65777232398353e-001

2.49666109780322e+004,-1.35720290069687e+001,-3.70881897733924e-001

2.53151318794055e+004,-1.35720326276866e+001,-3.76057762638312e-001

2.56685179512580e+004,-1.35720363494002e+001,-3.81305818540928e-001

2.60268371088386e+004,-1.35720401749033e+001,-3.86627070609537e-001

2.63901582154578e+004,-1.35720441070663e+001,-3.92022537933654e-001

2.67585510957221e+004,-1.35720481488375e+001,-3.97493253716783e-001

2.71320865489533e+004,-1.35720523032451e+001,-4.03040265468301e-001

2.75108363627948e+004,-1.35720565733996e+001,-4.08664635198398e-001

2.78948733270080e+004,-1.35720609624955e+001,-4.14367439616160e-001

2.82842712474618e+004,-1.35720654738141e+001,-4.20149770328602e-001

2.86791049603164e+004,-1.35720701107253e+001,-4.26012734041943e-001

2.90794503464061e+004,-1.35720748766898e+001,-4.31957452770334e-001

2.94853843458219e+004,-1.35720797752620e+001,-4.37985064040705e-001

2.98969849726987e+004,-1.35720848100916e+001,-4.44096721104088e-001

3.03143313302078e+004,-1.35720899849269e+001,-4.50293593148894e-001

3.07375036257601e+004,-1.35720953036171e+001,-4.56576865514713e-001

3.11665831864199e+004,-1.35721007701140e+001,-4.62947739916484e-001

3.16016524745350e+004,-1.35721063884759e+001,-4.69407434659354e-001

3.20427951035848e+004,-1.35721121628696e+001,-4.75957184866194e-001

3.24900958542493e+004,-1.35721180975733e+001,-4.82598242704927e-001

3.29436406907028e+004,-1.35721241969792e+001,-4.89331877616724e-001

3.34035167771346e+004,-1.35721304655969e+001,-4.96159376550008e-001

3.38698124945009e+004,-1.35721369080555e+001,-5.03082044195949e-001

3.43426174575100e+004,-1.35721435291075e+001,-5.10101203226811e-001

3.48220225318448e+004,-1.35721503336312e+001,-5.17218194538032e-001

3.53081198516260e+004,-1.35721573266341e+001,-5.24434377492914e-001

3.58010028371187e+004,-1.35721645132563e+001,-5.31751130167616e-001

3.63007662126863e+004,-1.35721718987730e+001,-5.39169849608037e-001

3.68075060249948e+004,-1.35721794885990e+001,-5.46691952075616e-001

3.73213196614721e+004,-1.35721872882905e+001,-5.54318873312484e-001

3.78423058690237e+004,-1.35721953035504e+001,-5.62052068793757e-001

3.83705647730104e+004,-1.35722035402303e+001,-5.69893013997778e-001

3.89061978964912e+004,-1.35722120043347e+001,-5.77843204667086e-001

3.94493081797342e+004,-1.35722207020250e+001,-5.85904157081400e-001

3.99999999999998e+004,-1.35722296396223e+001,-5.94077408329411e-001

4.05583791916010e+004,-1.35722388236120e+001,-6.02364516585403e-001

4.11245530662425e+004,-1.35722482606476e+001,-6.10767061387578e-001

4.16986304336447e+004,-1.35722579575540e+001,-6.19286643923276e-001

4.22807216224550e+004,-1.35722679213323e+001,-6.27924887312898e-001

4.28709385014515e+004,-1.35722781591630e+001,-6.36683436901849e-001

4.34693945010421e+004,-1.35722886784111e+001,-6.45563960550624e-001

4.40762046350642e+004,-1.35722994866294e+001,-6.54568148935529e-001

4.46914855228886e+004,-1.35723105915634e+001,-6.63697715844012e-001

4.53153554118317e+004,-1.35723220011553e+001,-6.72954398482101e-001

4.59479341998812e+004,-1.35723337235482e+001,-6.82339957780168e-001

4.65893434587380e+004,-1.35723457670913e+001,-6.91856178701695e-001

4.72397064571810e+004,-1.35723581403434e+001,-7.01504870561622e-001

4.78991481847569e+004,-1.35723708520785e+001,-7.11287867339314e-001

4.85677953758016e+004,-1.35723839112894e+001,-7.21207028004415e-001

4.92457765337964e+004,-1.35723973271933e+001,-7.31264236839431e-001

4.99332219560642e+004,-1.35724111092359e+001,-7.41461403769193e-001

5.06302637588109e+004,-1.35724252670965e+001,-7.51800464694507e-001

5.13370359025159e+004,-1.35724398106928e+001,-7.62283381826366e-001

5.20536742176771e+004,-1.35724547501857e+001,-7.72912144028291e-001

5.27803164309155e+004,-1.35724700959842e+001,-7.83688767158920e-001

5.35171021914442e+004,-1.35724858587506e+001,-7.94615294420170e-001

5.42641730979066e+004,-1.35725020494051e+001,-8.05693796709002e-001

5.50216727255895e+004,-1.35725186791313e+001,-8.16926372972705e-001

5.57897466540159e+004,-1.35725357593808e+001,-8.28315150567840e-001

5.65685424949235e+004,-1.35725533018786e+001,-8.39862285625742e-001

5.73582099206328e+004,-1.35725713186282e+001,-8.51569963415892e-001

5.81589006928121e+004,-1.35725898219163e+001,-8.63440398722167e-001

5.89707686916437e+004,-1.35726088243185e+001,-8.75475836213976e-001

5.97939699453972e+004,-1.35726283387039e+001,-8.87678550827679e-001

6.06286626604156e+004,-1.35726483782405e+001,-9.00050848150386e-001

6.14750072515201e+004,-1.35726689564002e+001,-9.12595064806537e-001

6.23331663728396e+004,-1.35726900869638e+001,-9.25313568850518e-001

6.32033049490698e+004,-1.35727117840261e+001,-9.38208760161597e-001

6.40855902071694e+004,-1.35727340620011e+001,-9.51283070844892e-001

6.49801917084985e+004,-1.35727569356262e+001,-9.64538965636938e-001

6.58872813814055e+004,-1.35727804199682e+001,-9.77978942310835e-001

6.68070335542691e+004,-1.35728045304270e+001,-9.91605532094201e-001

6.77396249890018e+004,-1.35728292827411e+001,-1.00542130008193e+000

6.86852349150199e+004,-1.35728546929919e+001,-1.01942884566116e+000

6.96440450636895e+004,-1.35728807776082e+001,-1.03363080293625e+000

7.06162397032520e+004,-1.35729075533708e+001,-1.04802984116005e+000

7.16020056742374e+004,-1.35729350374166e+001,-1.06262866516841e+000

7.26015324253724e+004,-1.35729632472427e+001,-1.07743001582155e+000

7.36150120499896e+004,-1.35729922007107e+001,-1.09243667044749e+000

7.46426393229441e+004,-1.35730219160498e+001,-1.10765144329183e+000

7.56846117380472e+004,-1.35730524118613e+001,-1.12307718597149e+000

7.67411295460207e+004,-1.35730837071210e+001,-1.13871678793405e+000

7.78123957929823e+004,-1.35731158211833e+001,-1.15457317692194e+000

7.88986163594682e+004,-1.35731487737831e+001,-1.17064931944017e+000

7.99999999999995e+004,-1.35731825850393e+001,-1.18694822123167e+000

8.11167583832018e+004,-1.35732172754565e+001,-1.20347292775472e+000

8.22491061324848e+004,-1.35732528659274e+001,-1.22022652466861e+000

8.33972608672892e+004,-1.35732893777342e+001,-1.23721213832266e+000

8.45614432449099e+004,-1.35733268325499e+001,-1.25443293625193e+000

8.57418770029029e+004,-1.35733652524394e+001,-1.27189212767652e+000

8.69387890020841e+004,-1.35734046598601e+001,-1.28959296400948e+000

8.81524092701283e+004,-1.35734450776614e+001,-1.30753873936803e+000

8.93829710457770e+004,-1.35734865290850e+001,-1.32573279109188e+000

9.06307108236633e+004,-1.35735290377634e+001,-1.34417850026678e+000

9.18958683997622e+004,-1.35735726277190e+001,-1.36287929225609e+000

9.31786869174758e+004,-1.35736173233616e+001,-1.38183863723639e+000

9.44794129143618e+004,-1.35736631494863e+001,-1.40106005074129e+000

9.57982963695136e+004,-1.35737101312700e+001,-1.42054709421201e+000

9.71355907516031e+004,-1.35737582942679e+001,-1.44030337555263e+000

9.84915530675926e+004,-1.35738076644085e+001,-1.46033254969690e+000

9.98664439121282e+004,-1.35738582679887e+001,-1.48063831917757e+000

1.01260527517622e+005,-1.35739101316678e+001,-1.50122443470710e+000

1.02674071805032e+005,-1.35739632824609e+001,-1.52209469576396e+000

1.04107348435354e+005,-1.35740177477307e+001,-1.54325295118868e+000

1.05560632861831e+005,-1.35740735551798e+001,-1.56470309978631e+000

1.07034204382888e+005,-1.35741307328409e+001,-1.58644909094021e+000

1.08528346195813e+005,-1.35741893090665e+001,-1.60849492523328e+000

1.10043345451179e+005,-1.35742493125180e+001,-1.63084465507860e+000

1.11579493308032e+005,-1.35743107721533e+001,-1.65350238536006e+000

1.13137084989847e+005,-1.35743737172132e+001,-1.67647227408367e+000

1.14716419841265e+005,-1.35744381772075e+001,-1.69975853303944e+000

1.16317801385624e+005,-1.35745041818992e+001,-1.72336542847302e+000

1.17941537383287e+005,-1.35745717612882e+001,-1.74729728177000e+000

1.19587939890794e+005,-1.35746409455929e+001,-1.77155847015116e+000

1.21257325320831e+005,-1.35747117652320e+001,-1.79615342738195e+000

1.22950014503040e+005,-1.35747842508034e+001,-1.82108664449168e+000

1.24666332745679e+005,-1.35748584330631e+001,-1.84636267051041e+000

1.26406609898139e+005,-1.35749343429022e+001,-1.87198611321489e+000

1.28171180414339e+005,-1.35750120113226e+001,-1.89796163989367e+000

1.29960383416997e+005,-1.35750914694117e+001,-1.92429397812495e+000

1.31774562762811e+005,-1.35751727483149e+001,-1.95098791657039e+000

1.33614067108538e+005,-1.35752558792078e+001,-1.97804830578610e+000

1.35479249978003e+005,-1.35753408932658e+001,-2.00548005905088e+000

1.37370469830040e+005,-1.35754278216332e+001,-2.03328815321215e+000

1.39288090127379e+005,-1.35755166953904e+001,-2.06147762955031e+000

1.41232479406504e+005,-1.35756075455197e+001,-2.09005359466247e+000

1.43204011348474e+005,-1.35757004028693e+001,-2.11902122136860e+000

1.45203064850745e+005,-1.35757952981168e+001,-2.14838574963416e+000

1.47230024099979e+005,-1.35758922617299e+001,-2.17815248752021e+000

1.49285278645888e+005,-1.35759913239269e+001,-2.20832681215205e+000

1.51369223476094e+005,-1.35760925146348e+001,-2.23891417071332e+000

1.53482259092041e+005,-1.35761958634463e+001,-2.26992008146503e+000

1.55624791585964e+005,-1.35763013995761e+001,-2.30135013478853e+000

1.57797232718936e+005,-1.35764091518146e+001,-2.33320999425664e+000

1.59999999999999e+005,-1.35765191484810e+001,-2.36550539773129e+000

1.62233516766403e+005,-1.35766314173753e+001,-2.39824215848999e+000

1.64498212264969e+005,-1.35767459857285e+001,-2.43142616638122e+000

1.66794521734578e+005,-1.35768628801526e+001,-2.46506338900949e+000

1.69122886489819e+005,-1.35769821265879e+001,-2.49915987295389e+000

1.71483754005805e+005,-1.35771037502512e+001,-2.53372174501735e+000

1.73877578004168e+005,-1.35772277755818e+001,-2.56875521350876e+000

1.76304818540256e+005,-1.35773542261871e+001,-2.60426656956042e+000

1.78765942091554e+005,-1.35774831247877e+001,-2.64026218848089e+000

1.81261421647326e+005,-1.35776144931614e+001,-2.67674853114351e+000

1.83791736799524e+005,-1.35777483520873e+001,-2.71373214541063e+000

1.86357373834951e+005,-1.35778847212892e+001,-2.75121966759991e+000

1.88958825828723e+005,-1.35780236193790e+001,-2.78921782398520e+000

1.91596592739027e+005,-1.35781650637999e+001,-2.82773343233895e+000

1.94271181503206e+005,-1.35783090707701e+001,-2.86677340351657e+000

1.96983106135185e+005,-1.35784556552262e+001,-2.90634474307966e+000

1.99732887824256e+005,-1.35786048307679e+001,-2.94645455296328e+000

2.02521055035243e+005,-1.35787566096025e+001,-2.98711003318468e+000

2.05348143610063e+005,-1.35789110024909e+001,-3.02831848359619e+000

2.08214696870707e+005,-1.35790680186947e+001,-3.07008730568131e+000

2.11121265723661e+005,-1.35792276659241e+001,-3.11242400439607e+000

2.14068408765776e+005,-1.35793899502876e+001,-3.15533619005418e+000

2.17056692391625e+005,-1.35795548762439e+001,-3.19883158025803e+000

2.20086690902357e+005,-1.35797224465550e+001,-3.24291800187412e+000

2.23158986616063e+005,-1.35798926622417e+001,-3.28760339305423e+000

2.26274169979693e+005,-1.35800655225423e+001,-3.33289580530346e+000

2.29432839682530e+005,-1.35802410248729e+001,-3.37880340559046e+000

2.32635602771247e+005,-1.35804191647915e+001,-3.42533447850614e+000

2.35883074766574e+005,-1.35805999359648e+001,-3.47249742846590e+000

2.39175879781588e+005,-1.35807833301389e+001,-3.52030078195566e+000

2.42514650641661e+005,-1.35809693371130e+001,-3.56875318982359e+000

2.45900029006080e+005,-1.35811579447177e+001,-3.61786342961467e+000

2.49332665491357e+005,-1.35813491387971e+001,-3.66764040794774e+000

2.52813219796278e+005,-1.35815429031956e+001,-3.71809316293379e+000

2.56342360828676e+005,-1.35817392197486e+001,-3.76923086663787e+000

2.59920766833993e+005,-1.35819380682793e+001,-3.82106282757774e+000

2.63549125525621e+005,-1.35821394265988e+001,-3.87359849326354e+000

2.67228134217075e+005,-1.35823432705132e+001,-3.92684745277379e+000

2.70958499956006e+005,-1.35825495738349e+001,-3.98081943936782e+000

2.74740939660078e+005,-1.35827583084000e+001,-4.03552433313407e+000

2.78576180254757e+005,-1.35829694440913e+001,-4.09097216366836e+000

2.82464958813007e+005,-1.35831829488667e+001,-4.14717311278778e+000

2.86408022696948e+005,-1.35833987887947e+001,-4.20413751727033e+000

2.90406129701488e+005,-1.35836169280948e+001,-4.26187587162611e+000

2.94460048199957e+005,-1.35838373291842e+001,-4.32039883089108e+000

2.98570557291775e+005,-1.35840599527315e+001,-4.37971721344785e+000

3.02738446952187e+005,-1.35842847577159e+001,-4.43984200386704e+000

3.06964518184081e+005,-1.35845117014922e+001,-4.50078435576974e+000

3.11249583171928e+005,-1.35847407398629e+001,-4.56255559470785e+000

3.15594465437872e+005,-1.35849718271563e+001,-4.62516722106064e+000

3.19999999999997e+005,-1.35852049163095e+001,-4.68863091294583e+000

3.24467033532806e+005,-1.35854399589590e+001,-4.75295852914284e+000

3.28996424529938e+005,-1.35856769055359e+001,-4.81816211202711e+000

3.33589043469155e+005,-1.35859157053673e+001,-4.88425389051161e+000

3.38245772979638e+005,-1.35861563067832e+001,-4.95124628299676e+000

3.42967508011610e+005,-1.35863986572281e+001,-5.01915190032404e+000

3.47755156008335e+005,-1.35866427033789e+001,-5.08798354873425e+000

3.52609637080511e+005,-1.35868883912660e+001,-5.15775423282588e+000

3.57531884183106e+005,-1.35871356664005e+001,-5.22847715851645e+000

3.62522843294651e+005,-1.35873844739046e+001,-5.30016573600087e+000

3.67583473599047e+005,-1.35876347586461e+001,-5.37283358270890e+000

3.72714747669902e+005,-1.35878864653772e+001,-5.44649452625961e+000

3.77917651657445e+005,-1.35881395388754e+001,-5.52116260741283e+000

3.83193185478053e+005,-1.35883939240887e+001,-5.59685208301435e+000

3.88542363006410e+005,-1.35886495662819e+001,-5.67357742893872e+000

3.93966212270369e+005,-1.35889064111861e+001,-5.75135334302543e+000

3.99465775648511e+005,-1.35891644051495e+001,-5.83019474801047e+000

4.05042110070485e+005,-1.35894234952897e+001,-5.91011679445285e+000

4.10696287220124e+005,-1.35896836296471e+001,-5.99113486365753e+000

4.16429393741414e+005,-1.35899447573383e+001,-6.07326457059167e+000

4.22242531447321e+005,-1.35902068287102e+001,-6.15652176680056e+000

4.28136817531551e+005,-1.35904697954941e+001,-6.24092254331854e+000

4.34113384783250e+005,-1.35907336109584e+001,-6.32648323358052e+000

4.40173381804713e+005,-1.35909982300609e+001,-6.41322041633286e+000

4.46317973232124e+005,-1.35912636095996e+001,-6.50115091854502e+000

4.52548339959385e+005,-1.35915297083618e+001,-6.59029181832552e+000

4.58865679365059e+005,-1.35917964872709e+001,-6.68066044784327e+000

4.65271205542494e+005,-1.35920639095314e+001,-6.77227439625461e+000

4.71766149533147e+005,-1.35923319407704e+001,-6.86515151264153e+000

4.78351759563174e+005,-1.35926005491769e+001,-6.95930990896035e+000

4.85029301283321e+005,-1.35928697056373e+001,-7.05476796300579e+000

4.91800058012158e+005,-1.35931393838679e+001,-7.15154432139087e+000

4.98665330982714e+005,-1.35934095605433e+001,-7.24965790254732e+000

5.05626439592555e+005,-1.35936802154211e+001,-7.34912789974833e+000

5.12684721657352e+005,-1.35939513314624e+001,-7.44997378415626e+000

5.19841533667984e+005,-1.35942228949488e+001,-7.55221530789901e+000

5.27098251051240e+005,-1.35944948955937e+001,-7.65587250717861e+000

5.34456268434150e+005,-1.35947673266508e+001,-7.76096570541308e+000

5.41916999912011e+005,-1.35950401850173e+001,-7.86751551641687e+000

