Freq.,VOut,OutRef

1.00000000000000e+004,-2.41509547181086e+001,-2.66431713658380e-001

1.01395947979003e+004,-2.41509567142957e+001,-2.70150759239384e-001

1.02811382665607e+004,-2.41509587665606e+001,-2.73921712167648e-001

1.04246576084112e+004,-2.41509608764773e+001,-2.77745296679081e-001

1.05701804056138e+004,-2.41509630456642e+001,-2.81622247102416e-001

1.07177346253629e+004,-2.41509652757847e+001,-2.85553308003576e-001

1.08673486252606e+004,-2.41509675685491e+001,-2.89539234323266e-001

1.10190511587661e+004,-2.41509699257155e+001,-2.93580791523691e-001

1.11728713807222e+004,-2.41509723490913e+001,-2.97678755734546e-001

1.13288388529580e+004,-2.41509748405345e+001,-3.01833913901364e-001

1.14869835499703e+004,-2.41509774019552e+001,-3.06047063934479e-001

1.16473358646846e+004,-2.41509800353168e+001,-3.10319014862917e-001

1.18099266142953e+004,-2.41509827426381e+001,-3.14650586986083e-001

1.19747870461893e+004,-2.41509855259938e+001,-3.19042612034744e-001

1.21419488439505e+004,-2.41509883875173e+001,-3.23495933323487e-001

1.23114441334492e+004,-2.41509913294015e+001,-3.28011405917363e-001

1.24833054890161e+004,-2.41509943539004e+001,-3.32589896791980e-001

1.26575659397028e+004,-2.41509974633315e+001,-3.37232284997407e-001

1.28342589756290e+004,-2.41510006600769e+001,-3.41939461829049e-001

1.30134185544193e+004,-2.41510039465856e+001,-3.46712330994528e-001

1.31950791077289e+004,-2.41510073253748e+001,-3.51551808787891e-001

1.33792755478611e+004,-2.41510107990323e+001,-3.56458824261068e-001

1.35660432744767e+004,-2.41510143702183e+001,-3.61434319404778e-001

1.37554181813974e+004,-2.41510180416674e+001,-3.66479249323719e-001

1.39474366635040e+004,-2.41510218161903e+001,-3.71594582422164e-001

1.41421356237309e+004,-2.41510256966770e+001,-3.76781300582820e-001

1.43395524801583e+004,-2.41510296860974e+001,-3.82040399360488e-001

1.45397251732031e+004,-2.41510337875053e+001,-3.87372888163761e-001

1.47426921729110e+004,-2.41510380040391e+001,-3.92779790453661e-001

1.49484924863494e+004,-2.41510423389253e+001,-3.98262143931665e-001

1.51571656651040e+004,-2.41510467954802e+001,-4.03821000742523e-001

1.53687518128801e+004,-2.41510513771132e+001,-4.09457427669308e-001

1.55832915932100e+004,-2.41510560873285e+001,-4.15172506338859e-001

1.58008262372675e+004,-2.41510609297282e+001,-4.20967333425166e-001

1.60213975517924e+004,-2.41510659080150e+001,-4.26843020858044e-001

1.62450479271247e+004,-2.41510710259949e+001,-4.32800696033734e-001

1.64718203453514e+004,-2.41510762875803e+001,-4.38841502027813e-001

1.67017583885674e+004,-2.41510816967922e+001,-4.44966597813518e-001

1.69349062472505e+004,-2.41510872577643e+001,-4.51177158479353e-001

1.71713087287550e+004,-2.41510929747453e+001,-4.57474375450974e-001

1.74110112659224e+004,-2.41510988521023e+001,-4.63859456718435e-001

1.76540599258131e+004,-2.41511048943243e+001,-4.70333627062816e-001

1.79005014185594e+004,-2.41511111060252e+001,-4.76898128289443e-001

1.81503831063432e+004,-2.41511174919475e+001,-4.83554219459610e-001

1.84037530124975e+004,-2.41511240569656e+001,-4.90303177131938e-001

1.86606598307361e+004,-2.41511308060898e+001,-4.97146295600044e-001

1.89211529345119e+004,-2.41511377444698e+001,-5.04084887138044e-001

1.91852823865052e+004,-2.41511448773986e+001,-5.11120282247717e-001

1.94530989482457e+004,-2.41511522103165e+001,-5.18253829908398e-001

1.97246540898671e+004,-2.41511597488149e+001,-5.25486897832912e-001

1.99999999999999e+004,-2.41511674986408e+001,-5.32820872722907e-001

2.02791895958005e+004,-2.41511754657008e+001,-5.40257160529957e-001

2.05622765331213e+004,-2.41511836560656e+001,-5.47797186721472e-001

2.08493152168224e+004,-2.41511920759747e+001,-5.55442396545335e-001

2.11403608112276e+004,-2.41512007318405e+001,-5.63194255305553e-001

2.14354692507258e+004,-2.41512096302539e+001,-5.71054248631402e-001

2.17346972505211e+004,-2.41512187779879e+001,-5.79023882762212e-001

2.20381023175322e+004,-2.41512281820040e+001,-5.87104684824293e-001

2.23457427614443e+004,-2.41512378494564e+001,-5.95298203119681e-001

2.26576777059159e+004,-2.41512477876974e+001,-6.03606007416039e-001

2.29739670999406e+004,-2.41512580042832e+001,-6.12029689237494e-001

2.32946717293690e+004,-2.41512685069795e+001,-6.20570862163797e-001

2.36198532285905e+004,-2.41512793037662e+001,-6.29231162131988e-001

2.39495740923785e+004,-2.41512904028445e+001,-6.38012247740764e-001

2.42838976879009e+004,-2.41513018126423e+001,-6.46915800558644e-001

2.46228882668982e+004,-2.41513135418204e+001,-6.55943525438108e-001

2.49666109780322e+004,-2.41513255992787e+001,-6.65097150833035e-001

2.53151318794055e+004,-2.41513379941630e+001,-6.74378429118952e-001

2.56685179512580e+004,-2.41513507358716e+001,-6.83789136919221e-001

2.60268371088386e+004,-2.41513638340620e+001,-6.93331075433592e-001

2.63901582154578e+004,-2.41513772986577e+001,-7.03006070773230e-001

2.67585510957221e+004,-2.41513911398561e+001,-7.12815974298050e-001

2.71320865489533e+004,-2.41514053681350e+001,-7.22762662960332e-001

2.75108363627948e+004,-2.41514199942607e+001,-7.32848039649323e-001

2.78948733270080e+004,-2.41514350292956e+001,-7.43074033544713e-001

2.82842712474618e+004,-2.41514504846065e+001,-7.53442600470051e-001

2.86791049603164e+004,-2.41514663718721e+001,-7.63955723255731e-001

2.90794503464061e+004,-2.41514827030918e+001,-7.74615412101946e-001

2.94853843458219e+004,-2.41514994905945e+001,-7.85423704947150e-001

2.98969849726987e+004,-2.41515167470466e+001,-7.96382667844695e-001

3.03143313302078e+004,-2.41515344854621e+001,-8.07494395339234e-001

3.07375036257601e+004,-2.41515527192108e+001,-8.18761010851758e-001

3.11665831864199e+004,-2.41515714620287e+001,-8.30184667065404e-001

3.16016524745350e+004,-2.41515907280268e+001,-8.41767546322138e-001

3.20427951035848e+004,-2.41516105317021e+001,-8.53511861017148e-001

3.24900958542493e+004,-2.41516308879467e+001,-8.65419854003551e-001

3.29436406907028e+004,-2.41516518120592e+001,-8.77493798999750e-001

3.34035167771346e+004,-2.41516733197548e+001,-8.89736001002334e-001

3.38698124945009e+004,-2.41516954271768e+001,-9.02148796702814e-001

3.43426174575100e+004,-2.41517181509072e+001,-9.14734554912447e-001

3.48220225318448e+004,-2.41517415079787e+001,-9.27495676988775e-001

3.53081198516260e+004,-2.41517655158866e+001,-9.40434597269213e-001

3.58010028371187e+004,-2.41517901926003e+001,-9.53553783509706e-001

3.63007662126863e+004,-2.41518155565764e+001,-9.66855737328168e-001

3.68075060249948e+004,-2.41518416267706e+001,-9.80342994653813e-001

3.73213196614721e+004,-2.41518684226513e+001,-9.94018126181142e-001

3.78423058690237e+004,-2.41518959642128e+001,-1.00788373782965e+000

3.83705647730104e+004,-2.41519242719885e+001,-1.02194247120885e+000

3.89061978964912e+004,-2.41519533670650e+001,-1.03619700409021e+000

3.94493081797342e+004,-2.41519832710966e+001,-1.05065005088094e+000

3.99999999999998e+004,-2.41520140063194e+001,-1.06530436310778e+000

4.05583791916010e+004,-2.41520455955665e+001,-1.08016272990349e+000

4.11245530662425e+004,-2.41520780622832e+001,-1.09522797849875e+000

4.16986304336447e+004,-2.41521114305423e+001,-1.11050297472328e+000

4.22807216224550e+004,-2.41521457250607e+001,-1.12599062350638e+000

4.28709385014515e+004,-2.41521809712145e+001,-1.14169386939060e+000

4.34693945010421e+004,-2.41522171950569e+001,-1.15761569704558e+000

4.40762046350642e+004,-2.41522544233343e+001,-1.17375913178934e+000

4.46914855228886e+004,-2.41522926835043e+001,-1.19012724011652e+000

4.53153554118317e+004,-2.41523320037529e+001,-1.20672313023135e+000

4.59479341998812e+004,-2.41523724130129e+001,-1.22354995258697e+000

4.65893434587380e+004,-2.41524139409826e+001,-1.24061090043007e+000

4.72397064571810e+004,-2.41524566181442e+001,-1.25790921035245e+000

4.78991481847569e+004,-2.41525004757836e+001,-1.27544816284815e+000

4.85677953758016e+004,-2.41525455460097e+001,-1.29323108287608e+000

4.92457765337964e+004,-2.41525918617745e+001,-1.31126134043000e+000

4.99332219560642e+004,-2.41526394568939e+001,-1.32954235111276e+000

5.06302637588109e+004,-2.41526883660685e+001,-1.34807757671820e+000

5.13370359025159e+004,-2.41527386249046e+001,-1.36687052581933e+000

5.20536742176771e+004,-2.41527902699362e+001,-1.38592475436123e+000

5.27803164309155e+004,-2.41528433386471e+001,-1.40524386626076e+000

5.35171021914442e+004,-2.41528978694933e+001,-1.42483151401346e+000

5.42641730979066e+004,-2.41529539019263e+001,-1.44469139930590e+000

5.50216727255895e+004,-2.41530114764158e+001,-1.46482727363394e+000

5.57897466540159e+004,-2.41530706344745e+001,-1.48524293892777e+000

5.65685424949235e+004,-2.41531314186815e+001,-1.50594224818350e+000

5.73582099206328e+004,-2.41531938727071e+001,-1.52692910610115e+000

5.81589006928121e+004,-2.41532580413384e+001,-1.54820746972721e+000

5.89707686916437e+004,-2.41533239705040e+001,-1.56978134910754e+000

5.97939699453972e+004,-2.41533917073005e+001,-1.59165480794204e+000

6.06286626604156e+004,-2.41534613000184e+001,-1.61383196424982e+000

6.14750072515201e+004,-2.41535327981693e+001,-1.63631699103755e+000

6.23331663728396e+004,-2.41536062525126e+001,-1.65911411697660e+000

6.32033049490698e+004,-2.41536817150831e+001,-1.68222762708691e+000

6.40855902071694e+004,-2.41537592392193e+001,-1.70566186342431e+000

6.49801917084985e+004,-2.41538388795913e+001,-1.72942122577904e+000

6.58872813814055e+004,-2.41539206922297e+001,-1.75351017237642e+000

6.68070335542691e+004,-2.41540047345546e+001,-1.77793322058836e+000

6.77396249890018e+004,-2.41540910654053e+001,-1.80269494764811e+000

6.86852349150199e+004,-2.41541797450697e+001,-1.82779999137361e+000

6.96440450636895e+004,-2.41542708353152e+001,-1.85325305089733e+000

7.06162397032520e+004,-2.41543643994181e+001,-1.87905888740359e+000

7.16020056742374e+004,-2.41544605021956e+001,-1.90522232487040e+000

7.26015324253724e+004,-2.41545592100362e+001,-1.93174825082187e+000

7.36150120499896e+004,-2.41546605909313e+001,-1.95864161708510e+000

7.46426393229441e+004,-2.41547647145072e+001,-1.98590744055383e+000

7.56846117380472e+004,-2.41548716520567e+001,-2.01355080396163e+000

7.67411295460207e+004,-2.41549814765717e+001,-2.04157685666078e+000

7.78123957929823e+004,-2.41550942627754e+001,-2.06999081540786e+000

7.88986163594682e+004,-2.41552100871551e+001,-2.09879796515832e+000

7.99999999999995e+004,-2.41553290279951e+001,-2.12800365986772e+000

8.11167583832018e+004,-2.41554511654099e+001,-2.15761332330057e+000

8.22491061324848e+004,-2.41555765813767e+001,-2.18763244984751e+000

8.33972608672892e+004,-2.41557053597698e+001,-2.21806660534937e+000

8.45614432449099e+004,-2.41558375863928e+001,-2.24892142793071e+000

8.57418770029029e+004,-2.41559733490129e+001,-2.28020262884068e+000

8.69387890020841e+004,-2.41561127373942e+001,-2.31191599330160e+000

8.81524092701283e+004,-2.41562558433308e+001,-2.34406738136784e+000

8.93829710457770e+004,-2.41564027606805e+001,-2.37666272879176e+000

9.06307108236633e+004,-2.41565535853986e+001,-2.40970804790008e+000

9.18958683997622e+004,-2.41567084155705e+001,-2.44320942847830e+000

9.31786869174758e+004,-2.41568673514452e+001,-2.47717303866516e+000

9.44794129143618e+004,-2.41570304954684e+001,-2.51160512585691e+000

9.57982963695136e+004,-2.41571979523153e+001,-2.54651201762116e+000

9.71355907516031e+004,-2.41573698289229e+001,-2.58190012262231e+000

9.84915530675926e+004,-2.41575462345226e+001,-2.61777593155524e+000

9.98664439121282e+004,-2.41577272806719e+001,-2.65414601809318e+000

1.01260527517622e+005,-2.41579130812864e+001,-2.69101703984481e+000

1.02674071805032e+005,-2.41581037526707e+001,-2.72839573932351e+000

1.04107348435354e+005,-2.41582994135494e+001,-2.76628894493062e+000

1.05560632861831e+005,-2.41585001850973e+001,-2.80470357194883e+000

1.07034204382888e+005,-2.41587061909693e+001,-2.84364662355161e+000

1.08528346195813e+005,-2.41589175573298e+001,-2.88312519182403e+000

1.10043345451179e+005,-2.41591344128811e+001,-2.92314645880046e+000

1.11579493308032e+005,-2.41593568888917e+001,-2.96371769751535e+000

1.13137084989847e+005,-2.41595851192234e+001,-3.00484627307122e+000

1.14716419841265e+005,-2.41598192403586e+001,-3.04653964372166e+000

1.16317801385624e+005,-2.41600593914257e+001,-3.08880536197217e+000

1.17941537383287e+005,-2.41603057142246e+001,-3.13165107570041e+000

1.19587939890794e+005,-2.41605583532509e+001,-3.17508452929184e+000

1.21257325320831e+005,-2.41608174557199e+001,-3.21911356479822e+000

1.22950014503040e+005,-2.41610831715891e+001,-3.26374612311479e+000

1.24666332745679e+005,-2.41613556535804e+001,-3.30899024517928e+000

1.26406609898139e+005,-2.41616350572008e+001,-3.35485407319407e+000

1.28171180414339e+005,-2.41619215407630e+001,-3.40134585187028e+000

1.29960383416997e+005,-2.41622152654045e+001,-3.44847392969871e+000

1.31774562762811e+005,-2.41625163951064e+001,-3.49624676024381e+000

1.33614067108538e+005,-2.41628250967106e+001,-3.54467290346739e+000

1.35479249978003e+005,-2.41631415399367e+001,-3.59376102707769e+000

1.37370469830040e+005,-2.41634658973983e+001,-3.64351990790958e+000

1.39288090127379e+005,-2.41637983446177e+001,-3.69395843333565e+000

1.41232479406504e+005,-2.41641390600408e+001,-3.74508560270763e+000

1.43204011348474e+005,-2.41644882250504e+001,-3.79691052883315e+000

1.45203064850745e+005,-2.41648460239796e+001,-3.84944243948657e+000

1.47230024099979e+005,-2.41652126441244e+001,-3.90269067895634e+000

1.49285278645888e+005,-2.41655882757560e+001,-3.95666470962968e+000

1.51369223476094e+005,-2.41659731121320e+001,-4.01137411361825e+000

1.53482259092041e+005,-2.41663673495085e+001,-4.06682859442357e+000

1.55624791585964e+005,-2.41667711871512e+001,-4.12303797864519e+000

1.57797232718936e+005,-2.41671848273471e+001,-4.18001221773399e+000

1.59999999999999e+005,-2.41676084754157e+001,-4.23776138979105e+000

1.62233516766403e+005,-2.41680423397215e+001,-4.29629570141361e+000

1.64498212264969e+005,-2.41684866316863e+001,-4.35562548959170e+000

1.66794521734578e+005,-2.41689415658024e+001,-4.41576122365383e+000

1.69122886489819e+005,-2.41694073596470e+001,-4.47671350726809e+000

1.71483754005805e+005,-2.41698842338979e+001,-4.53849308049412e+000

1.73877578004168e+005,-2.41703724123504e+001,-4.60111082189455e+000

1.76304818540256e+005,-2.41708721219364e+001,-4.66457775070123e+000

1.78765942091554e+005,-2.41713835927451e+001,-4.72890502904265e+000

1.81261421647326e+005,-2.41719070580468e+001,-4.79410396423122e+000

1.83791736799524e+005,-2.41724427543189e+001,-4.86018601111189e+000

1.86357373834951e+005,-2.41729909212754e+001,-4.92716277447668e+000

1.88958825828723e+005,-2.41735518019001e+001,-4.99504601154134e+000

1.91596592739027e+005,-2.41741256424833e+001,-5.06384763449054e+000

1.94271181503206e+005,-2.41747126926637e+001,-5.13357971308910e+000

1.96983106135185e+005,-2.41753132054742e+001,-5.20425447736188e+000

1.99732887824256e+005,-2.41759274373939e+001,-5.27588432034314e+000

2.02521055035243e+005,-2.41765556484060e+001,-5.34848180089614e+000

2.05348143610063e+005,-2.41771981020611e+001,-5.42205964660263e+000

2.08214696870707e+005,-2.41778550655488e+001,-5.49663075672514e+000

2.11121265723661e+005,-2.41785268097757e+001,-5.57220820523905e+000

2.14068408765776e+005,-2.41792136094522e+001,-5.64880524393785e+000

2.17056692391625e+005,-2.41799157431875e+001,-5.72643530560881e+000

2.20086690902357e+005,-2.41806334935943e+001,-5.80511200728106e+000

2.23158986616063e+005,-2.41813671474027e+001,-5.88484915354477e+000

2.26274169979693e+005,-2.41821169955853e+001,-5.96566073993848e+000

2.29432839682530e+005,-2.41828833334935e+001,-6.04756095640908e+000

2.32635602771247e+005,-2.41836664610048e+001,-6.13056419083717e+000

2.35883074766574e+005,-2.41844666826831e+001,-6.21468503263054e+000

2.39175879781588e+005,-2.41852843079524e+001,-6.29993827638260e+000

2.42514650641661e+005,-2.41861196512833e+001,-6.38633892559359e+000

2.45900029006080e+005,-2.41869730323947e+001,-6.47390219645347e+000

2.49332665491357e+005,-2.41878447764702e+001,-6.56264352168277e+000

2.52813219796278e+005,-2.41887352143903e+001,-6.65257855442921e+000

2.56342360828676e+005,-2.41896446829802e+001,-6.74372317221792e+000

2.59920766833993e+005,-2.41905735252755e+001,-6.83609348095040e+000

2.63549125525621e+005,-2.41915220908043e+001,-6.92970581894968e+000

2.67228134217075e+005,-2.41924907358883e+001,-7.02457676104837e+000

2.70958499956006e+005,-2.41934798239613e+001,-7.12072312271392e+000

2.74740939660078e+005,-2.41944897259078e+001,-7.21816196420838e+000

2.78576180254757e+005,-2.41955208204204e+001,-7.31691059477746e+000

2.82464958813007e+005,-2.41965734943777e+001,-7.41698657686474e+000

2.86408022696948e+005,-2.41976481432416e+001,-7.51840773034416e+000

2.90406129701488e+005,-2.41987451714769e+001,-7.62119213676882e+000

2.94460048199957e+005,-2.41998649929903e+001,-7.72535814362751e+000

2.98570557291775e+005,-2.42010080315920e+001,-7.83092436860600e+000

3.02738446952187e+005,-2.42021747214783e+001,-7.93790970384602e+000

3.06964518184081e+005,-2.42033655077360e+001,-8.04633332019662e+000

3.11249583171928e+005,-2.42045808468690e+001,-8.15621467145216e+000

3.15594465437872e+005,-2.42058212073468e+001,-8.26757349857084e+000

3.19999999999997e+005,-2.42070870701751e+001,-8.38042983386839e+000

3.24467033532806e+005,-2.42083789294884e+001,-8.49480400517991e+000

3.28996424529938e+005,-2.42096972931646e+001,-8.61071663998471e+000

3.33589043469155e+005,-2.42110426834621e+001,-8.72818866948841e+000

3.38245772979638e+005,-2.42124156376776e+001,-8.84724133265554e+000

3.42967508011610e+005,-2.42138167088264e+001,-8.96789618018775e+000

3.47755156008335e+005,-2.42152464663439e+001,-9.09017507844102e+000

3.52609637080511e+005,-2.42167054968075e+001,-9.21410021327786e+000

3.57531884183106e+005,-2.42181944046799e+001,-9.33969409384757e+000

3.62522843294651e+005,-2.42197138130724e+001,-9.46697955628931e+000

3.67583473599047e+005,-2.42212643645281e+001,-9.59597976735490e+000

3.72714747669902e+005,-2.42228467218243e+001,-9.72671822794466e+000

3.77917651657445e+005,-2.42244615687945e+001,-9.85921877655222e+000

3.83193185478053e+005,-2.42261096111682e+001,-9.99350559261453e+000

3.88542363006410e+005,-2.42277915774287e+001,-1.01296031997623e+001

3.93966212270369e+005,-2.42295082196884e+001,-1.02675364689682e+001

3.99465775648511e+005,-2.42312603145808e+001,-1.04073306215879e+001

4.05042110070485e+005,-2.42330486641684e+001,-1.05490112322921e+001

4.10696287220124e+005,-2.42348740968667e+001,-1.06926042318853e+001

4.16429393741414e+005,-2.42367374683822e+001,-1.08381359100117e+001

4.22242531447321e+005,-2.42386396626658e+001,-1.09856329177407e+001

4.28136817531551e+005,-2.42405815928794e+001,-1.11351222700352e+001

4.34113384783250e+005,-2.42425642023752e+001,-1.12866313480987e+001

4.40173381804713e+005,-2.42445884656886e+001,-1.14401879015987e+001

4.46317973232124e+005,-2.42466553895422e+001,-1.15958200507679e+001

4.52548339959385e+005,-2.42487660138617e+001,-1.17535562883787e+001

4.58865679365059e+005,-2.42509214128028e+001,-1.19134254815937e+001

4.65271205542494e+005,-2.42531226957881e+001,-1.20754568736895e+001

4.71766149533147e+005,-2.42553710085544e+001,-1.22396800856539e+001

4.78351759563174e+005,-2.42576675342098e+001,-1.24061251176559e+001

4.85029301283321e+005,-2.42600134942989e+001,-1.25748223503888e+001

4.91800058012158e+005,-2.42624101498785e+001,-1.27458025462866e+001

4.98665330982714e+005,-2.42648588026002e+001,-1.29190968506125e+001

5.05626439592555e+005,-2.42673607958023e+001,-1.30947367924201e+001

5.12684721657352e+005,-2.42699175156090e+001,-1.32727542853885e+001

5.19841533667984e+005,-2.42725303920381e+001,-1.34531816285284e+001

5.27098251051240e+005,-2.42752009001157e+001,-1.36360515067624e+001

5.34456268434150e+005,-2.42779305609988e+001,-1.38213969913764e+001

5.41916999912011e+005,-2.42807209431052e+001,-1.40092515403439e+001

