Freq.,VOut,OutRef

1.00000000000000e+004,-2.21819443096612e+001,-2.85054759038048e-001

1.01395947979003e+004,-2.21819472593520e+001,-2.89033610705272e-001

1.02811382665607e+004,-2.21819502918914e+001,-2.93067989607675e-001

1.04246576084112e+004,-2.21819534096041e+001,-2.97158670220315e-001

1.05701804056138e+004,-2.21819566148799e+001,-3.01306437802439e-001

1.07177346253629e+004,-2.21819599101757e+001,-3.05512088545700e-001

1.08673486252606e+004,-2.21819632980168e+001,-3.09776429726739e-001

1.10190511587661e+004,-2.21819667809994e+001,-3.14100279859871e-001

1.11728713807222e+004,-2.21819703617927e+001,-3.18484468850887e-001

1.13288388529580e+004,-2.21819740431400e+001,-3.22929838158141e-001

1.14869835499703e+004,-2.21819778278619e+001,-3.27437240951097e-001

1.16473358646846e+004,-2.21819817188574e+001,-3.32007542271166e-001

1.18099266142953e+004,-2.21819857191072e+001,-3.36641619195388e-001

1.19747870461893e+004,-2.21819898316750e+001,-3.41340361005948e-001

1.21419488439505e+004,-2.21819940597100e+001,-3.46104669357059e-001

1.23114441334492e+004,-2.21819984064501e+001,-3.50935458443653e-001

1.24833054890161e+004,-2.21820028752233e+001,-3.55833655177788e-001

1.26575659397028e+004,-2.21820074694505e+001,-3.60800199364702e-001

1.28342589756290e+004,-2.21820121926487e+001,-3.65836043876687e-001

1.30134185544193e+004,-2.21820170484327e+001,-3.70942154837346e-001

1.31950791077289e+004,-2.21820220405187e+001,-3.76119511803117e-001

1.33792755478611e+004,-2.21820271727265e+001,-3.81369107947959e-001

1.35660432744767e+004,-2.21820324489827e+001,-3.86691950251423e-001

1.37554181813974e+004,-2.21820378733234e+001,-3.92089059689985e-001

1.39474366635040e+004,-2.21820434498977e+001,-3.97561471426922e-001

1.41421356237309e+004,-2.21820491829702e+001,-4.03110235011864e-001

1.43395524801583e+004,-2.21820550769247e+001,-4.08736414575930e-001

1.45397251732031e+004,-2.21820611362675e+001,-4.14441089031835e-001

1.47426921729110e+004,-2.21820673656304e+001,-4.20225352279398e-001

1.49484924863494e+004,-2.21820737697744e+001,-4.26090313411028e-001

1.51571656651040e+004,-2.21820803535934e+001,-4.32037096918700e-001

1.53687518128801e+004,-2.21820871221177e+001,-4.38066842909074e-001

1.55832915932100e+004,-2.21820940805179e+001,-4.44180707313667e-001

1.58008262372675e+004,-2.21821012341084e+001,-4.50379862109312e-001

1.60213975517924e+004,-2.21821085883520e+001,-4.56665495536636e-001

1.62450479271247e+004,-2.21821161488637e+001,-4.63038812323319e-001

1.64718203453514e+004,-2.21821239214146e+001,-4.69501033910135e-001

1.67017583885674e+004,-2.21821319119368e+001,-4.76053398680190e-001

1.69349062472505e+004,-2.21821401265270e+001,-4.82697162191404e-001

1.71713087287550e+004,-2.21821485714521e+001,-4.89433597408891e-001

1.74110112659224e+004,-2.21821572531530e+001,-4.96263994946743e-001

1.76540599258131e+004,-2.21821661782499e+001,-5.03189663305562e-001

1.79005014185594e+004,-2.21821753535467e+001,-5.10211929120715e-001

1.81503831063432e+004,-2.21821847860369e+001,-5.17332137404983e-001

1.84037530124975e+004,-2.21821944829078e+001,-5.24551651805158e-001

1.86606598307361e+004,-2.21822044515468e+001,-5.31871854849442e-001

1.89211529345119e+004,-2.21822146995459e+001,-5.39294148211231e-001

1.91852823865052e+004,-2.21822252347081e+001,-5.46819952965138e-001

1.94530989482457e+004,-2.21822360650530e+001,-5.54450709852803e-001

1.97246540898671e+004,-2.21822471988223e+001,-5.62187879550607e-001

1.99999999999999e+004,-2.21822586444862e+001,-5.70032942939654e-001

2.02791895958005e+004,-2.21822704107499e+001,-5.77987401379982e-001

2.05622765331213e+004,-2.21822825065597e+001,-5.86052776989138e-001

2.08493152168224e+004,-2.21822949411092e+001,-5.94230612923400e-001

2.11403608112276e+004,-2.21823077238469e+001,-6.02522473662249e-001

2.14354692507258e+004,-2.21823208644825e+001,-6.10929945296666e-001

2.17346972505211e+004,-2.21823343729942e+001,-6.19454635823115e-001

2.20381023175322e+004,-2.21823482596362e+001,-6.28098175436493e-001

2.23457427614443e+004,-2.21823625349455e+001,-6.36862216832540e-001

2.26576777059159e+004,-2.21823772097505e+001,-6.45748435509689e-001

2.29739670999406e+004,-2.21823922951782e+001,-6.54758530077180e-001

2.32946717293690e+004,-2.21824078026627e+001,-6.63894222564330e-001

2.36198532285905e+004,-2.21824237439531e+001,-6.73157258737686e-001

2.39495740923785e+004,-2.21824401311223e+001,-6.82549408418814e-001

2.42838976879009e+004,-2.21824569765759e+001,-6.92072465805384e-001

2.46228882668982e+004,-2.21824742930606e+001,-7.01728249800490e-001

2.49666109780322e+004,-2.21824920936740e+001,-7.11518604341845e-001

2.53151318794055e+004,-2.21825103918733e+001,-7.21445398737664e-001

2.56685179512580e+004,-2.21825292014858e+001,-7.31510528002489e-001

2.60268371088386e+004,-2.21825485367181e+001,-7.41715913204605e-001

2.63901582154578e+004,-2.21825684121667e+001,-7.52063501809073e-001

2.67585510957221e+004,-2.21825888428282e+001,-7.62555268030467e-001

2.71320865489533e+004,-2.21826098441103e+001,-7.73193213188853e-001

2.75108363627948e+004,-2.21826314318419e+001,-7.83979366068847e-001

2.78948733270080e+004,-2.21826536222854e+001,-7.94915783283285e-001

2.82842712474618e+004,-2.21826764321475e+001,-8.06004549640857e-001

2.86791049603164e+004,-2.21826998785913e+001,-8.17247778520606e-001

2.90794503464061e+004,-2.21827239792482e+001,-8.28647612246310e-001

2.94853843458219e+004,-2.21827487522302e+001,-8.40206222470100e-001

2.98969849726987e+004,-2.21827742161430e+001,-8.51925810555149e-001

3.03143313302078e+004,-2.21828003900985e+001,-8.63808607968819e-001

3.07375036257601e+004,-2.21828272937284e+001,-8.75856876675164e-001

3.11665831864199e+004,-2.21828549471976e+001,-8.88072909535071e-001

3.16016524745350e+004,-2.21828833712184e+001,-9.00459030708542e-001

3.20427951035848e+004,-2.21829125870649e+001,-9.13017596063385e-001

3.24900958542493e+004,-2.21829426165870e+001,-9.25750993588660e-001

3.29436406907028e+004,-2.21829734822260e+001,-9.38661643809633e-001

3.34035167771346e+004,-2.21830052070298e+001,-9.51752000212206e-001

3.38698124945009e+004,-2.21830378146684e+001,-9.65024549666208e-001

3.43426174575100e+004,-2.21830713294502e+001,-9.78481812859593e-001

3.48220225318448e+004,-2.21831057763382e+001,-9.92126344731020e-001

3.53081198516260e+004,-2.21831411809670e+001,-1.00596073491233e+000

3.58010028371187e+004,-2.21831775696601e+001,-1.01998760817183e+000

3.63007662126863e+004,-2.21832149694471e+001,-1.03420962486487e+000

3.68075060249948e+004,-2.21832534080819e+001,-1.04862948138836e+000

3.73213196614721e+004,-2.21832929140611e+001,-1.06324991063832e+000

3.78423058690237e+004,-2.21833335166431e+001,-1.07807368247443e+000

3.83705647730104e+004,-2.21833752458667e+001,-1.09310360418868e+000

3.89061978964912e+004,-2.21834181325712e+001,-1.10834252097784e+000

3.94493081797342e+004,-2.21834622084163e+001,-1.12379331642104e+000

3.99999999999998e+004,-2.21835075059026e+001,-1.13945891296310e+000

4.05583791916010e+004,-2.21835540583924e+001,-1.15534227240080e+000

4.11245530662425e+004,-2.21836019001317e+001,-1.17144639637422e+000

4.16986304336447e+004,-2.21836510662711e+001,-1.18777432686549e+000

4.22807216224550e+004,-2.21837015928885e+001,-1.20432914669763e+000

4.28709385014515e+004,-2.21837535170123e+001,-1.22111398004138e+000

4.34693945010421e+004,-2.21838068766436e+001,-1.23813199292654e+000

4.40762046350642e+004,-2.21838617107808e+001,-1.25538639375466e+000

4.46914855228886e+004,-2.21839180594431e+001,-1.27288043382212e+000

4.53153554118317e+004,-2.21839759636953e+001,-1.29061740784155e+000

4.59479341998812e+004,-2.21840354656730e+001,-1.30860065447301e+000

4.65893434587380e+004,-2.21840966086078e+001,-1.32683355685596e+000

4.72397064571810e+004,-2.21841594368535e+001,-1.34531954314849e+000

4.78991481847569e+004,-2.21842239959128e+001,-1.36406208706805e+000

4.85677953758016e+004,-2.21842903324637e+001,-1.38306470844127e+000

4.92457765337964e+004,-2.21843584943876e+001,-1.40233097375297e+000

4.99332219560642e+004,-2.21844285307967e+001,-1.42186449670247e+000

5.06302637588109e+004,-2.21845004920625e+001,-1.44166893876544e+000

5.13370359025159e+004,-2.21845744298449e+001,-1.46174800975547e+000

5.20536742176771e+004,-2.21846503971213e+001,-1.48210546839601e+000

5.27803164309155e+004,-2.21847284482163e+001,-1.50274512289095e+000

5.35171021914442e+004,-2.21848086388322e+001,-1.52367083150396e+000

5.42641730979066e+004,-2.21848910260797e+001,-1.54488650313746e+000

5.50216727255895e+004,-2.21849756685089e+001,-1.56639609792013e+000

5.57897466540159e+004,-2.21850626261407e+001,-1.58820362779573e+000

5.65685424949235e+004,-2.21851519604995e+001,-1.61031315711623e+000

5.73582099206328e+004,-2.21852437346448e+001,-1.63272880323997e+000

5.81589006928121e+004,-2.21853380132050e+001,-1.65545473713169e+000

5.89707686916437e+004,-2.21854348624097e+001,-1.67849518397014e+000

5.97939699453972e+004,-2.21855343501240e+001,-1.70185442375374e+000

6.06286626604156e+004,-2.21856365458823e+001,-1.72553679191608e+000

6.14750072515201e+004,-2.21857415209227e+001,-1.74954667994112e+000

6.23331663728396e+004,-2.21858493482216e+001,-1.77388853598272e+000

6.32033049490698e+004,-2.21859601025291e+001,-1.79856686548829e+000

6.40855902071694e+004,-2.21860738604036e+001,-1.82358623182703e+000

6.49801917084985e+004,-2.21861907002482e+001,-1.84895125691865e+000

6.58872813814055e+004,-2.21863107023459e+001,-1.87466662186836e+000

6.68070335542691e+004,-2.21864339488962e+001,-1.90073706760358e+000

6.77396249890018e+004,-2.21865605240508e+001,-1.92716739551522e+000

6.86852349150199e+004,-2.21866905139504e+001,-1.95396246810016e+000

6.96440450636895e+004,-2.21868240067610e+001,-1.98112720961035e+000

7.06162397032520e+004,-2.21869610927109e+001,-2.00866660670066e+000

7.16020056742374e+004,-2.21871018641269e+001,-2.03658570908515e+000

7.26015324253724e+004,-2.21872464154712e+001,-2.06488963019145e+000

7.36150120499896e+004,-2.21873948433782e+001,-2.09358354782218e+000

7.46426393229441e+004,-2.21875472466911e+001,-2.12267270481726e+000

7.56846117380472e+004,-2.21877037264980e+001,-2.15216240972068e+000

7.67411295460207e+004,-2.21878643861689e+001,-2.18205803744999e+000

7.78123957929823e+004,-2.21880293313910e+001,-2.21236502996840e+000

7.88986163594682e+004,-2.21881986702053e+001,-2.24308889696194e+000

7.99999999999995e+004,-2.21883725130414e+001,-2.27423521651837e+000

8.11167583832018e+004,-2.21885509727532e+001,-2.30580963581023e+000

8.22491061324848e+004,-2.21887341646532e+001,-2.33781787178145e+000

8.33972608672892e+004,-2.21889222065465e+001,-2.37026571183711e+000

8.45614432449099e+004,-2.21891152187649e+001,-2.40315901453767e+000

8.57418770029029e+004,-2.21893133241992e+001,-2.43650371029707e+000

8.69387890020841e+004,-2.21895166483314e+001,-2.47030580208514e+000

8.81524092701283e+004,-2.21897253192664e+001,-2.50457136613273e+000

8.93829710457770e+004,-2.21899394677623e+001,-2.53930655264450e+000

9.06307108236633e+004,-2.21901592272596e+001,-2.57451758651340e+000

9.18958683997622e+004,-2.21903847339096e+001,-2.61021076804296e+000

9.31786869174758e+004,-2.21906161266021e+001,-2.64639247367266e+000

9.44794129143618e+004,-2.21908535469911e+001,-2.68306915671127e+000

9.57982963695136e+004,-2.21910971395193e+001,-2.72024734807519e+000

9.71355907516031e+004,-2.21913470514417e+001,-2.75793365703454e+000

9.84915530675926e+004,-2.21916034328472e+001,-2.79613477196425e+000

9.98664439121282e+004,-2.21918664366786e+001,-2.83485746110635e+000

1.01260527517622e+005,-2.21921362187512e+001,-2.87410857333728e+000

1.02674071805032e+005,-2.21924129377692e+001,-2.91389503894649e+000

1.04107348435354e+005,-2.21926967553403e+001,-2.95422387042291e+000

1.05560632861831e+005,-2.21929878359884e+001,-2.99510216325367e+000

1.07034204382888e+005,-2.21932863471644e+001,-3.03653709673237e+000

1.08528346195813e+005,-2.21935924592537e+001,-3.07853593477978e+000

1.10043345451179e+005,-2.21939063455828e+001,-3.12110602677912e+000

1.11579493308032e+005,-2.21942281824224e+001,-3.16425480842204e+000

1.13137084989847e+005,-2.21945581489884e+001,-3.20798980257412e+000

1.14716419841265e+005,-2.21948964274404e+001,-3.25231862015118e+000

1.16317801385624e+005,-2.21952432028768e+001,-3.29724896101845e+000

1.17941537383287e+005,-2.21955986633279e+001,-3.34278861490382e+000

1.19587939890794e+005,-2.21959629997454e+001,-3.38894546233398e+000

1.21257325320831e+005,-2.21963364059897e+001,-3.43572747559104e+000

1.22950014503040e+005,-2.21967190788127e+001,-3.48314271969213e+000

1.24666332745679e+005,-2.21971112178394e+001,-3.53119935339276e+000

1.26406609898139e+005,-2.21975130255443e+001,-3.57990563021866e+000

1.28171180414339e+005,-2.21979247072262e+001,-3.62926989952309e+000

1.29960383416997e+005,-2.21983464709782e+001,-3.67930060757591e+000

1.31774562762811e+005,-2.21987785276556e+001,-3.73000629868342e+000

1.33614067108538e+005,-2.21992210908394e+001,-3.78139561634293e+000

1.35479249978003e+005,-2.21996743767972e+001,-3.83347730443156e+000

1.37370469830040e+005,-2.22001386044399e+001,-3.88626020843602e+000

1.39288090127379e+005,-2.22006139952755e+001,-3.93975327672041e+000

1.41232479406504e+005,-2.22011007733597e+001,-3.99396556183805e+000

1.43204011348474e+005,-2.22015991652423e+001,-4.04890622188827e+000

1.45203064850745e+005,-2.22021093999114e+001,-4.10458452192122e+000

1.47230024099979e+005,-2.22026317087335e+001,-4.16100983539271e+000

1.49285278645888e+005,-2.22031663253910e+001,-4.21819164567283e+000

1.51369223476094e+005,-2.22037134858168e+001,-4.27613954760983e+000

1.53482259092041e+005,-2.22042734281255e+001,-4.33486324915279e+000

1.55624791585964e+005,-2.22048463925428e+001,-4.39437257303572e+000

1.57797232718936e+005,-2.22054326213317e+001,-4.45467745852651e+000

1.59999999999999e+005,-2.22060323587167e+001,-4.51578796324244e+000

1.62233516766403e+005,-2.22066458508066e+001,-4.57771426503647e+000

1.64498212264969e+005,-2.22072733455146e+001,-4.64046666395669e+000

1.66794521734578e+005,-2.22079150924779e+001,-4.70405558428159e+000

1.69122886489819e+005,-2.22085713429758e+001,-4.76849157663537e+000

1.71483754005805e+005,-2.22092423498475e+001,-4.83378532018452e+000

1.73877578004168e+005,-2.22099283674095e+001,-4.89994762491982e+000

1.76304818540256e+005,-2.22106296513733e+001,-4.96698943402673e+000

1.78765942091554e+005,-2.22113464587637e+001,-5.03492182634569e+000

1.81261421647326e+005,-2.22120790478389e+001,-5.10375601892613e+000

1.83791736799524e+005,-2.22128276780114e+001,-5.17350336967810e+000

1.86357373834951e+005,-2.22135926097726e+001,-5.24417538012005e+000

1.88958825828723e+005,-2.22143741046196e+001,-5.31578369822961e+000

1.91596592739027e+005,-2.22151724249857e+001,-5.38834012139733e+000

1.94271181503206e+005,-2.22159878341762e+001,-5.46185659948513e+000

1.96983106135185e+005,-2.22168205963084e+001,-5.53634523799277e+000

1.99732887824256e+005,-2.22176709762582e+001,-5.61181830133320e+000

2.02521055035243e+005,-2.22185392396135e+001,-5.68828821621761e+000

2.05348143610063e+005,-2.22194256526350e+001,-5.76576757515339e+000

2.08214696870707e+005,-2.22203304822258e+001,-5.84426914005291e+000

2.11121265723661e+005,-2.22212539959103e+001,-5.92380584595664e+000

2.14068408765776e+005,-2.22221964618236e+001,-6.00439080486935e+000

2.17056692391625e+005,-2.22231581487123e+001,-6.08603730970917e+000

2.20086690902357e+005,-2.22241393259478e+001,-6.16875883837051e+000

2.23158986616063e+005,-2.22251402635527e+001,-6.25256905789762e+000

2.26274169979693e+005,-2.22261612322416e+001,-6.33748182877084e+000

2.29432839682530e+005,-2.22272025034779e+001,-6.42351120930099e+000

2.32635602771247e+005,-2.22282643495464e+001,-6.51067146013155e+000

2.35883074766574e+005,-2.22293470436440e+001,-6.59897704884553e+000

2.39175879781588e+005,-2.22304508599886e+001,-6.68844265467484e+000

2.42514650641661e+005,-2.22315760739478e+001,-6.77908317330790e+000

2.45900029006080e+005,-2.22327229621886e+001,-6.87091372179152e+000

2.49332665491357e+005,-2.22338918028480e+001,-6.96394964352504e+000

2.52813219796278e+005,-2.22350828757274e+001,-7.05820651333785e+000

2.56342360828676e+005,-2.22362964625096e+001,-7.15370014264953e+000

2.59920766833993e+005,-2.22375328470014e+001,-7.25044658470366e+000

2.63549125525621e+005,-2.22387923154009e+001,-7.34846213987045e+000

2.67228134217075e+005,-2.22400751565917e+001,-7.44776336101201e+000

2.70958499956006e+005,-2.22413816624640e+001,-7.54836705890146e+000

2.74740939660078e+005,-2.22427121282644e+001,-7.65029030769079e+000

2.78576180254757e+005,-2.22440668529731e+001,-7.75355045041786e+000

2.82464958813007e+005,-2.22454461397117e+001,-7.85816510454463e+000

2.86408022696948e+005,-2.22468502961799e+001,-7.96415216751903e+000

2.90406129701488e+005,-2.22482796351235e+001,-8.07152982234963e+000

2.94460048199957e+005,-2.22497344748323e+001,-8.18031654318649e+000

2.98570557291775e+005,-2.22512151396697e+001,-8.29053110089655e+000

3.02738446952187e+005,-2.22527219606338e+001,-8.40219256862411e+000

3.06964518184081e+005,-2.22542552759495e+001,-8.51532032732960e+000

3.11249583171928e+005,-2.22558154316924e+001,-8.62993407129125e+000

3.15594465437872e+005,-2.22574027824452e+001,-8.74605381356543e+000

3.19999999999997e+005,-2.22590176919837e+001,-8.86369989139131e+000

3.24467033532806e+005,-2.22606605339962e+001,-8.98289297153230e+000

3.28996424529938e+005,-2.22623316928324e+001,-9.10365405554303e+000

3.33589043469155e+005,-2.22640315642833e+001,-9.22600448495292e+000

3.38245772979638e+005,-2.22657605563914e+001,-9.34996594635565e+000

3.42967508011610e+005,-2.22675190902899e+001,-9.47556047639646e+000

3.47755156008335e+005,-2.22693076010715e+001,-9.60281046664652e+000

3.52609637080511e+005,-2.22711265386843e+001,-9.73173866835637e+000

3.57531884183106e+005,-2.22729763688552e+001,-9.86236819708060e+000

3.62522843294651e+005,-2.22748575740403e+001,-9.99472253716368e+000

3.67583473599047e+005,-2.22767706543994e+001,-1.01288255460808e+001

3.72714747669902e+005,-2.22787161287958e+001,-1.02647014586265e+001

3.77917651657445e+005,-2.22806945358182e+001,-1.04023748909428e+001

3.83193185478053e+005,-2.22827064348254e+001,-1.05418708443837e+001

3.88542363006410e+005,-2.22847524070114e+001,-1.06832147092064e+001

3.93966212270369e+005,-2.22868330564893e+001,-1.08264322680876e+001

3.99465775648511e+005,-2.22889490113948e+001,-1.09715496994592e+001

4.05042110070485e+005,-2.22911009250050e+001,-1.11185935806591e+001

4.10696287220124e+005,-2.22932894768735e+001,-1.12675908908945e+001

4.16429393741414e+005,-2.22955153739799e+001,-1.14185690140156e+001

4.22242531447321e+005,-2.22977793518915e+001,-1.15715557410967e+001

4.28136817531551e+005,-2.23000821759369e+001,-1.17265792728235e+001

4.34113384783250e+005,-2.23024246423898e+001,-1.18836682216875e+001

4.40173381804713e+005,-2.23048075796618e+001,-1.20428516139850e+001

4.46317973232124e+005,-2.23072318495028e+001,-1.22041588916223e+001

4.52548339959385e+005,-2.23096983482078e+001,-1.23676199137283e+001

4.58865679365059e+005,-2.23122080078295e+001,-1.25332649580757e+001

4.65271205542494e+005,-2.23147617973947e+001,-1.27011247223116e+001

4.71766149533147e+005,-2.23173607241237e+001,-1.28712303250018e+001

4.78351759563174e+005,-2.23200058346534e+001,-1.30436133064895e+001

4.85029301283321e+005,-2.23226982162595e+001,-1.32183056295731e+001

4.91800058012158e+005,-2.23254389980813e+001,-1.33953396800051e+001

4.98665330982714e+005,-2.23282293523452e+001,-1.35747482668155e+001

5.05626439592555e+005,-2.23310704955871e+001,-1.37565646224655e+001

5.12684721657352e+005,-2.23339636898746e+001,-1.39408224028318e+001

5.19841533667984e+005,-2.23369102440256e+001,-1.41275556870295e+001

5.27098251051240e+005,-2.23399115148256e+001,-1.43167989770724e+001

5.34456268434150e+005,-2.23429689082420e+001,-1.45085871973808e+001

5.41916999912011e+005,-2.23460838806351e+001,-1.47029556941335e+001

