Freq.,VOut,OutRef

1.00000000000000e+004,-2.56174206738639e+001,-3.11403053587424e-001

1.01395947979003e+004,-2.56174232455132e+001,-3.15749831867265e-001

1.02811382665607e+004,-2.56174258894100e+001,-3.20157278458389e-001

1.04246576084112e+004,-2.56174286075829e+001,-3.24626239814234e-001

1.05701804056138e+004,-2.56174314021169e+001,-3.29157574187846e-001

1.07177346253629e+004,-2.56174342751554e+001,-3.33752151792516e-001

1.08673486252606e+004,-2.56174372289023e+001,-3.38410854968000e-001

1.10190511587661e+004,-2.56174402656227e+001,-3.43134578351224e-001

1.11728713807222e+004,-2.56174433876456e+001,-3.47924229045648e-001

1.13288388529580e+004,-2.56174465973651e+001,-3.52780726792601e-001

1.14869835499703e+004,-2.56174498972423e+001,-3.57705004150069e-001

1.16473358646846e+004,-2.56174532898075e+001,-3.62698006668535e-001

1.18099266142953e+004,-2.56174567776617e+001,-3.67760693071310e-001

1.19747870461893e+004,-2.56174603634787e+001,-3.72894035437579e-001

1.21419488439505e+004,-2.56174640500072e+001,-3.78099019389429e-001

1.23114441334492e+004,-2.56174678400729e+001,-3.83376644276831e-001

1.24833054890161e+004,-2.56174717365808e+001,-3.88727923368330e-001

1.26575659397028e+004,-2.56174757425171e+001,-3.94153884046952e-001

1.28342589756290e+004,-2.56174798609512e+001,-3.99655568003751e-001

1.30134185544193e+004,-2.56174840950393e+001,-4.05234031433977e-001

1.31950791077289e+004,-2.56174884480250e+001,-4.10890345243379e-001

1.33792755478611e+004,-2.56174929232432e+001,-4.16625595247352e-001

1.35660432744767e+004,-2.56174975241220e+001,-4.22440882379754e-001

1.37554181813974e+004,-2.56175022541854e+001,-4.28337322901465e-001

1.39474366635040e+004,-2.56175071170559e+001,-4.34316048612381e-001

1.41421356237309e+004,-2.56175121164574e+001,-4.40378207068079e-001

1.43395524801583e+004,-2.56175172562180e+001,-4.46524961795527e-001

1.45397251732031e+004,-2.56175225402725e+001,-4.52757492516169e-001

1.47426921729110e+004,-2.56175279726661e+001,-4.59076995369393e-001

1.49484924863494e+004,-2.56175335575568e+001,-4.65484683138019e-001

1.51571656651040e+004,-2.56175392992190e+001,-4.71981785479948e-001

1.53687518128801e+004,-2.56175452020464e+001,-4.78569549162496e-001

1.55832915932100e+004,-2.56175512705553e+001,-4.85249238295890e-001

1.58008262372675e+004,-2.56175575093886e+001,-4.92022134574442e-001

1.60213975517924e+004,-2.56175639233182e+001,-4.98889537520955e-001

1.62450479271247e+004,-2.56175705172500e+001,-5.05852764729405e-001

1.64718203453514e+004,-2.56175772962262e+001,-5.12913152116840e-001

1.67017583885674e+004,-2.56175842654302e+001,-5.20072054176020e-001

1.69349062472505e+004,-2.56175914301896e+001,-5.27330844230706e-001

1.71713087287550e+004,-2.56175987959810e+001,-5.34690914696285e-001

1.74110112659224e+004,-2.56176063684335e+001,-5.42153677342087e-001

1.76540599258131e+004,-2.56176141533334e+001,-5.49720563558072e-001

1.79005014185594e+004,-2.56176221566281e+001,-5.57393024626063e-001

1.81503831063432e+004,-2.56176303844311e+001,-5.65172531992463e-001

1.84037530124975e+004,-2.56176388430259e+001,-5.73060577547094e-001

1.86606598307361e+004,-2.56176475388712e+001,-5.81058673903178e-001

1.89211529345119e+004,-2.56176564786056e+001,-5.89168354683361e-001

1.91852823865052e+004,-2.56176656690525e+001,-5.97391174807056e-001

1.94530989482457e+004,-2.56176751172254e+001,-6.05728710785306e-001

1.97246540898671e+004,-2.56176848303330e+001,-6.14182561015021e-001

1.99999999999999e+004,-2.56176948157841e+001,-6.22754346081722e-001

2.02791895958005e+004,-2.56177050811941e+001,-6.31445709062429e-001

2.05622765331213e+004,-2.56177156343901e+001,-6.40258315834145e-001

2.08493152168224e+004,-2.56177264834165e+001,-6.49193855387251e-001

2.11403608112276e+004,-2.56177376365412e+001,-6.58254040142859e-001

2.14354692507258e+004,-2.56177491022623e+001,-6.67440606271468e-001

2.17346972505211e+004,-2.56177608893133e+001,-6.76755314019513e-001

2.20381023175322e+004,-2.56177730066705e+001,-6.86199948039399e-001

2.23457427614443e+004,-2.56177854635591e+001,-6.95776317722472e-001

2.26576777059159e+004,-2.56177982694604e+001,-7.05486257536531e-001

2.29739670999406e+004,-2.56178114341183e+001,-7.15331627368465e-001

2.32946717293690e+004,-2.56178249675472e+001,-7.25314312873470e-001

2.36198532285905e+004,-2.56178388800386e+001,-7.35436225822604e-001

2.39495740923785e+004,-2.56178531821693e+001,-7.45699304463118e-001

2.42838976879009e+004,-2.56178678848089e+001,-7.56105513875008e-001

2.46228882668982e+004,-2.56178829991276e+001,-7.66656846339940e-001

2.49666109780322e+004,-2.56178985366046e+001,-7.77355321709838e-001

2.53151318794055e+004,-2.56179145090369e+001,-7.88202987780361e-001

2.56685179512580e+004,-2.56179309285470e+001,-7.99201920673242e-001

2.60268371088386e+004,-2.56179478075923e+001,-8.10354225219915e-001

2.63901582154578e+004,-2.56179651589746e+001,-8.21662035348896e-001

2.67585510957221e+004,-2.56179829958483e+001,-8.33127514483976e-001

2.71320865489533e+004,-2.56180013317312e+001,-8.44752855940459e-001

2.75108363627948e+004,-2.56180201805132e+001,-8.56540283331897e-001

2.78948733270080e+004,-2.56180395564673e+001,-8.68492050978311e-001

2.82842712474618e+004,-2.56180594742591e+001,-8.80610444322397e-001

2.86791049603164e+004,-2.56180799489581e+001,-8.92897780348408e-001

2.90794503464061e+004,-2.56181009960479e+001,-9.05356408008798e-001

2.94853843458219e+004,-2.56181226314381e+001,-9.17988708653180e-001

2.98969849726987e+004,-2.56181448714749e+001,-9.30797096467393e-001

3.03143313302078e+004,-2.56181677329532e+001,-9.43784018911974e-001

3.07375036257601e+004,-2.56181912331289e+001,-9.56951957170683e-001

3.11665831864199e+004,-2.56182153897307e+001,-9.70303426603654e-001

3.16016524745350e+004,-2.56182402209729e+001,-9.83840977204835e-001

3.20427951035848e+004,-2.56182657455684e+001,-9.97567194065221e-001

3.24900958542493e+004,-2.56182919827419e+001,-1.01148469784462e+000

3.29436406907028e+004,-2.56183189522438e+001,-1.02559614524368e+000

3.34035167771346e+004,-2.56183466743633e+001,-1.03990422948904e+000

3.38698124945009e+004,-2.56183751699438e+001,-1.05441168081560e+000

3.43426174575100e+004,-2.56184044603965e+001,-1.06912126696370e+000

3.48220225318448e+004,-2.56184345677164e+001,-1.08403579367448e+000

3.53081198516260e+004,-2.56184655144966e+001,-1.09915810519774e+000

3.58010028371187e+004,-2.56184973239447e+001,-1.11449108479941e+000

3.63007662126863e+004,-2.56185300198989e+001,-1.13003765528104e+000

3.68075060249948e+004,-2.56185636268442e+001,-1.14580077950164e+000

3.73213196614721e+004,-2.56185981699297e+001,-1.16178346090666e+000

3.78423058690237e+004,-2.56186336749854e+001,-1.17798874406440e+000

3.83705647730104e+004,-2.56186701685403e+001,-1.19441971520622e+000

3.89061978964912e+004,-2.56187076778406e+001,-1.21107950277625e+000

3.94493081797342e+004,-2.56187462308678e+001,-1.22797127798393e+000

3.99999999999998e+004,-2.56187858563584e+001,-1.24509825536570e+000

4.05583791916010e+004,-2.56188265838226e+001,-1.26246369335212e+000

4.11245530662425e+004,-2.56188684435648e+001,-1.28007089484154e+000

4.16986304336447e+004,-2.56189114667037e+001,-1.29792320777946e+000

4.22807216224550e+004,-2.56189556851928e+001,-1.31602402574636e+000

4.28709385014515e+004,-2.56190011318426e+001,-1.33437678854980e+000

4.34693945010421e+004,-2.56190478403416e+001,-1.35298498282503e+000

4.40762046350642e+004,-2.56190958452786e+001,-1.37185214264248e+000

4.46914855228886e+004,-2.56191451821659e+001,-1.39098185011850e+000

4.53153554118317e+004,-2.56191958874621e+001,-1.41037773603866e+000

4.59479341998812e+004,-2.56192479985964e+001,-1.43004348048113e+000

4.65893434587380e+004,-2.56193015539924e+001,-1.44998281345346e+000

4.72397064571810e+004,-2.56193565930934e+001,-1.47019951553040e+000

4.78991481847569e+004,-2.56194131563870e+001,-1.49069741850347e+000

4.85677953758016e+004,-2.56194712854319e+001,-1.51148040603333e+000

4.92457765337964e+004,-2.56195310228839e+001,-1.53255241431200e+000

4.99332219560642e+004,-2.56195924125226e+001,-1.55391743273109e+000

5.06302637588109e+004,-2.56196554992796e+001,-1.57557950455551e+000

5.13370359025159e+004,-2.56197203292661e+001,-1.59754272760714e+000

5.20536742176771e+004,-2.56197869498016e+001,-1.61981125495402e+000

5.27803164309155e+004,-2.56198554094435e+001,-1.64238929560435e+000

5.35171021914442e+004,-2.56199257580166e+001,-1.66528111521243e+000

5.42641730979066e+004,-2.56199980466434e+001,-1.68849103678773e+000

5.50216727255895e+004,-2.56200723277755e+001,-1.71202344141257e+000

5.57897466540159e+004,-2.56201486552249e+001,-1.73588276896689e+000

5.65685424949235e+004,-2.56202270841962e+001,-1.76007351885971e+000

5.73582099206328e+004,-2.56203076713191e+001,-1.78460025076875e+000

5.81589006928121e+004,-2.56203904746822e+001,-1.80946758538722e+000

5.89707686916437e+004,-2.56204755538667e+001,-1.83468020517493e+000

5.97939699453972e+004,-2.56205629699810e+001,-1.86024285512232e+000

6.06286626604156e+004,-2.56206527856957e+001,-1.88616034351580e+000

6.14750072515201e+004,-2.56207450652794e+001,-1.91243754271496e+000

6.23331663728396e+004,-2.56208398746351e+001,-1.93907938993382e+000

6.32033049490698e+004,-2.56209372813369e+001,-1.96609088803227e+000

6.40855902071694e+004,-2.56210373546676e+001,-1.99347710631249e+000

6.49801917084985e+004,-2.56211401656569e+001,-2.02124318132398e+000

6.58872813814055e+004,-2.56212457871200e+001,-2.04939431767586e+000

6.68070335542691e+004,-2.56213542936965e+001,-2.07793578885693e+000

6.77396249890018e+004,-2.56214657618906e+001,-2.10687293806260e+000

6.86852349150199e+004,-2.56215802701113e+001,-2.13621117902959e+000

6.96440450636895e+004,-2.56216978987133e+001,-2.16595599687861e+000

7.06162397032520e+004,-2.56218187300383e+001,-2.19611294896411e+000

7.16020056742374e+004,-2.56219428484571e+001,-2.22668766573136e+000

7.26015324253724e+004,-2.56220703404122e+001,-2.25768585158337e+000

7.36150120499896e+004,-2.56222012944604e+001,-2.28911328575217e+000

7.46426393229441e+004,-2.56223358013167e+001,-2.32097582318124e+000

7.56846117380472e+004,-2.56224739538978e+001,-2.35327939541360e+000

7.67411295460207e+004,-2.56226158473669e+001,-2.38603001148891e+000

7.78123957929823e+004,-2.56227615791782e+001,-2.41923375884866e+000

7.88986163594682e+004,-2.56229112491224e+001,-2.45289680424900e+000

7.99999999999995e+004,-2.56230649593722e+001,-2.48702539468195e+000

8.11167583832018e+004,-2.56232228145281e+001,-2.52162585830620e+000

8.22491061324848e+004,-2.56233849216652e+001,-2.55670460538452e+000

8.33972608672892e+004,-2.56235513903797e+001,-2.59226812923083e+000

8.45614432449099e+004,-2.56237223328356e+001,-2.62832300716623e+000

8.57418770029029e+004,-2.56238978638125e+001,-2.66487590148394e+000

8.69387890020841e+004,-2.56240781007525e+001,-2.70193356042264e+000

8.81524092701283e+004,-2.56242631638082e+001,-2.73950281915078e+000

8.93829710457770e+004,-2.56244531758908e+001,-2.77759060075774e+000

9.06307108236633e+004,-2.56246482627175e+001,-2.81620391725837e+000

9.18958683997622e+004,-2.56248485528601e+001,-2.85534987060435e+000

9.31786869174758e+004,-2.56250541777933e+001,-2.89503565370782e+000

9.44794129143618e+004,-2.56252652719426e+001,-2.93526855147460e+000

9.57982963695136e+004,-2.56254819727326e+001,-2.97605594184943e+000

9.71355907516031e+004,-2.56257044206352e+001,-3.01740529687159e+000

9.84915530675926e+004,-2.56259327592182e+001,-3.05932418374195e+000

9.98664439121282e+004,-2.56261671351925e+001,-3.10182026590362e+000

1.01260527517622e+005,-2.56264076984607e+001,-3.14490130413355e+000

1.02674071805032e+005,-2.56266546021643e+001,-3.18857515764760e+000

1.04107348435354e+005,-2.56269080027314e+001,-3.23284978521947e+000

1.05560632861831e+005,-2.56271680599236e+001,-3.27773324631365e+000

1.07034204382888e+005,-2.56274349368832e+001,-3.32323370223218e+000

1.08528346195813e+005,-2.56277088001793e+001,-3.36935941727677e+000

1.10043345451179e+005,-2.56279898198542e+001,-3.41611875992872e+000

1.11579493308032e+005,-2.56282781694691e+001,-3.46352020404175e+000

1.13137084989847e+005,-2.56285740261488e+001,-3.51157233005592e+000

1.14716419841265e+005,-2.56288775706272e+001,-3.56028382622638e+000

1.16317801385624e+005,-2.56291889872910e+001,-3.60966348987360e+000

1.17941537383287e+005,-2.56295084642235e+001,-3.65972022865133e+000

1.19587939890794e+005,-2.56298361932473e+001,-3.71046306183704e+000

1.21257325320831e+005,-2.56301723699677e+001,-3.76190112164202e+000

1.22950014503040e+005,-2.56305171938134e+001,-3.81404365454612e+000

1.24666332745679e+005,-2.56308708680788e+001,-3.86690002265486e+000

1.26406609898139e+005,-2.56312335999638e+001,-3.92047970508149e+000

1.28171180414339e+005,-2.56316056006143e+001,-3.97479229935630e+000

1.29960383416997e+005,-2.56319870851613e+001,-4.02984752286182e+000

1.31774562762811e+005,-2.56323782727601e+001,-4.08565521429693e+000

1.33614067108538e+005,-2.56327793866277e+001,-4.14222533517114e+000

1.35479249978003e+005,-2.56331906540813e+001,-4.19956797133037e+000

1.37370469830040e+005,-2.56336123065746e+001,-4.25769333451495e+000

1.39288090127379e+005,-2.56340445797354e+001,-4.31661176395119e+000

1.41232479406504e+005,-2.56344877134009e+001,-4.37633372798054e+000

1.43204011348474e+005,-2.56349419516544e+001,-4.43686982572482e+000

1.45203064850745e+005,-2.56354075428608e+001,-4.49823078878983e+000

1.47230024099979e+005,-2.56358847397019e+001,-4.56042748301129e+000

1.49285278645888e+005,-2.56363737992125e+001,-4.62347091024207e+000

1.51369223476094e+005,-2.56368749828156e+001,-4.68737221018354e+000

1.53482259092041e+005,-2.56373885563589e+001,-4.75214266226327e+000

1.55624791585964e+005,-2.56379147901507e+001,-4.81779368756022e+000

1.57797232718936e+005,-2.56384539589975e+001,-4.88433685077946e+000

1.59999999999999e+005,-2.56390063422413e+001,-4.95178386227838e+000

1.62233516766403e+005,-2.56395722237988e+001,-5.02014658014650e+000

1.64498212264969e+005,-2.56401518922016e+001,-5.08943701233986e+000

1.66794521734578e+005,-2.56407456406382e+001,-5.15966731887318e+000

1.69122886489819e+005,-2.56413537669970e+001,-5.23084981406981e+000

1.71483754005805e+005,-2.56419765739129e+001,-5.30299696887402e+000

1.73877578004168e+005,-2.56426143688148e+001,-5.37612141322446e+000

1.76304818540256e+005,-2.56432674639774e+001,-5.45023593849256e+000

1.78765942091554e+005,-2.56439361765752e+001,-5.52535349998706e+000

1.81261421647326e+005,-2.56446208287409e+001,-5.60148721952555e+000

1.83791736799524e+005,-2.56453217476274e+001,-5.67865038807645e+000

1.86357373834951e+005,-2.56460392654743e+001,-5.75685646847086e+000

1.88958825828723e+005,-2.56467737196802e+001,-5.83611909818694e+000

1.91596592739027e+005,-2.56475254528797e+001,-5.91645209220784e+000

1.94271181503206e+005,-2.56482948130268e+001,-5.99786944595450e+000

1.96983106135185e+005,-2.56490821534852e+001,-6.08038533829363e+000

1.99732887824256e+005,-2.56498878331259e+001,-6.16401413462249e+000

2.02521055035243e+005,-2.56507122164321e+001,-6.24877039003155e+000

2.05348143610063e+005,-2.56515556736130e+001,-6.33466885254442e+000

2.08214696870707e+005,-2.56524185807271e+001,-6.42172446643559e+000

2.11121265723661e+005,-2.56533013198148e+001,-6.50995237562806e+000

2.14068408765776e+005,-2.56542042790420e+001,-6.59936792716749e+000

2.17056692391625e+005,-2.56551278528543e+001,-6.68998667477479e+000

2.20086690902357e+005,-2.56560724421447e+001,-6.78182438247689e+000

2.23158986616063e+005,-2.56570384544318e+001,-6.87489702831249e+000

2.26274169979693e+005,-2.56580263040539e+001,-6.96922080811521e+000

2.29432839682530e+005,-2.56590364123758e+001,-7.06481213936765e+000

2.32635602771247e+005,-2.56600692080114e+001,-7.16168766513153e+000

2.35883074766574e+005,-2.56611251270620e+001,-7.25986425804474e+000

2.39175879781588e+005,-2.56622046133711e+001,-7.35935902438776e+000

2.42514650641661e+005,-2.56633081187969e+001,-7.46018930821580e+000

2.45900029006080e+005,-2.56644361035032e+001,-7.56237269555174e+000

2.49332665491357e+005,-2.56655890362686e+001,-7.66592701863932e+000

2.52813219796278e+005,-2.56667673948163e+001,-7.77087036025116e+000

2.56342360828676e+005,-2.56679716661634e+001,-7.87722105804753e+000

2.59920766833993e+005,-2.56692023469928e+001,-7.98499770898289e+000

2.63549125525621e+005,-2.56704599440457e+001,-8.09421917375448e+000

2.67228134217075e+005,-2.56717449745374e+001,-8.20490458128810e+000

2.70958499956006e+005,-2.56730579665963e+001,-8.31707333325586e+000

2.74740939660078e+005,-2.56743994597267e+001,-8.43074510862066e+000

2.78576180254757e+005,-2.56757700052957e+001,-8.54593986820118e+000

2.82464958813007e+005,-2.56771701670460e+001,-8.66267785925038e+000

2.86408022696948e+005,-2.56786005216328e+001,-8.78097962004351e+000

2.90406129701488e+005,-2.56800616591884e+001,-8.90086598446556e+000

2.94460048199957e+005,-2.56815541839110e+001,-9.02235808659435e+000

2.98570557291775e+005,-2.56830787146820e+001,-9.14547736526965e+000

3.02738446952187e+005,-2.56846358857092e+001,-9.27024556864297e+000

3.06964518184081e+005,-2.56862263471975e+001,-9.39668475869932e+000

3.11249583171928e+005,-2.56878507660467e+001,-9.52481731574325e+000

3.15594465437872e+005,-2.56895098265772e+001,-9.65466594284309e+000

3.19999999999997e+005,-2.56912042312826e+001,-9.78625367022306e+000

3.24467033532806e+005,-2.56929347016101e+001,-9.91960385959786e+000

3.28996424529938e+005,-2.56947019787682e+001,-1.00547402084400e+001

3.33589043469155e+005,-2.56965068245619e+001,-1.01916867541738e+001

3.38245772979638e+005,-2.56983500222543e+001,-1.03304678782865e+001

3.42967508011610e+005,-2.57002323774555e+001,-1.04711083103500e+001

3.47755156008335e+005,-2.57021547190377e+001,-1.06136331319459e+001

3.52609637080511e+005,-2.57041179000765e+001,-1.07580677804845e+001

3.57531884183106e+005,-2.57061227988179e+001,-1.09044380529127e+001

3.62522843294651e+005,-2.57081703196697e+001,-1.10527701093032e+001

3.67583473599047e+005,-2.57102613942183e+001,-1.12030904763162e+001

3.72714747669902e+005,-2.57123969822691e+001,-1.13554260505301e+001

3.77917651657445e+005,-2.57145780729103e+001,-1.15098041016318e+001

3.83193185478053e+005,-2.57168056855991e+001,-1.16662522754632e+001

3.88542363006410e+005,-2.57190808712700e+001,-1.18247985969158e+001

3.93966212270369e+005,-2.57214047134647e+001,-1.19854714726690e+001

3.99465775648511e+005,-2.57237783294813e+001,-1.21482996937677e+001

4.05042110070485e+005,-2.57262028715445e+001,-1.23133124380317e+001

4.10696287220124e+005,-2.57286795279936e+001,-1.24805392722962e+001

4.16429393741414e+005,-2.57312095244888e+001,-1.26500101544754e+001

4.22242531447321e+005,-2.57337941252347e+001,-1.28217554354475e+001

4.28136817531551e+005,-2.57364346342201e+001,-1.29958058607576e+001

4.34113384783250e+005,-2.57391323964736e+001,-1.31721925721336e+001

4.40173381804713e+005,-2.57418887993328e+001,-1.33509471088138e+001

4.46317973232124e+005,-2.57447052737289e+001,-1.35321014086826e+001

4.52548339959385e+005,-2.57475832954832e+001,-1.37156878092121e+001

4.58865679365059e+005,-2.57505243866165e+001,-1.39017390482076e+001

4.65271205542494e+005,-2.57535301166694e+001,-1.40902882643542e+001

4.71766149533147e+005,-2.57566021040342e+001,-1.42813689975634e+001

4.78351759563174e+005,-2.57597420172964e+001,-1.44750151891182e+001

4.85029301283321e+005,-2.57629515765857e+001,-1.46712611816145e+001

4.91800058012158e+005,-2.57662325549357e+001,-1.48701417186973e+001

4.98665330982714e+005,-2.57695867796519e+001,-1.50716919445911e+001

5.05626439592555e+005,-2.57730161336874e+001,-1.52759474034227e+001

5.12684721657352e+005,-2.57765225570250e+001,-1.54829440383344e+001

5.19841533667984e+005,-2.57801080480671e+001,-1.56927181903870e+001

5.27098251051240e+005,-2.57837746650298e+001,-1.59053065972515e+001

5.34456268434150e+005,-2.57875245273444e+001,-1.61207463916858e+001

5.41916999912011e+005,-2.57913598170630e+001,-1.63390750997973e+001

