Freq.,VOut,OutRef

1.00000000000000e+004,-1.52429290584819e+001,-1.97555874136046e-001

1.01395947979003e+004,-1.52429302648036e+001,-2.00313473053933e-001

1.02811382665607e+004,-1.52429315050007e+001,-2.03109559051183e-001

1.04246576084112e+004,-1.52429327800229e+001,-2.05944669069837e-001

1.05701804056138e+004,-1.52429340908472e+001,-2.08819347527953e-001

1.07177346253629e+004,-1.52429354384778e+001,-2.11734146431783e-001

1.08673486252606e+004,-1.52429368239465e+001,-2.14689625480175e-001

1.10190511587661e+004,-1.52429382483144e+001,-2.17686352167544e-001

1.11728713807222e+004,-1.52429397126722e+001,-2.20724901893887e-001

1.13288388529580e+004,-1.52429412181411e+001,-2.23805858076304e-001

1.14869835499703e+004,-1.52429427658735e+001,-2.26929812258281e-001

1.16473358646846e+004,-1.52429443570543e+001,-2.30097364221324e-001

1.18099266142953e+004,-1.52429459929012e+001,-2.33309122103132e-001

1.19747870461893e+004,-1.52429476746661e+001,-2.36565702508978e-001

1.21419488439505e+004,-1.52429494036357e+001,-2.39867730632300e-001

1.23114441334492e+004,-1.52429511811330e+001,-2.43215840370629e-001

1.24833054890161e+004,-1.52429530085175e+001,-2.46610674451252e-001

1.26575659397028e+004,-1.52429548871872e+001,-2.50052884546516e-001

1.28342589756290e+004,-1.52429568185786e+001,-2.53543131404065e-001

1.30134185544193e+004,-1.52429588041684e+001,-2.57082084970307e-001

1.31950791077289e+004,-1.52429608454748e+001,-2.60670424515923e-001

1.33792755478611e+004,-1.52429629440582e+001,-2.64308838765806e-001

1.35660432744767e+004,-1.52429651015222e+001,-2.67998026033503e-001

1.37554181813974e+004,-1.52429673195158e+001,-2.71738694347350e-001

1.39474366635040e+004,-1.52429695997334e+001,-2.75531561590817e-001

1.41421356237309e+004,-1.52429719439169e+001,-2.79377355634166e-001

1.43395524801583e+004,-1.52429743538565e+001,-2.83276814477371e-001

1.45397251732031e+004,-1.52429768313927e+001,-2.87230686384019e-001

1.47426921729110e+004,-1.52429793784169e+001,-2.91239730029449e-001

1.49484924863494e+004,-1.52429819968732e+001,-2.95304714640202e-001

1.51571656651040e+004,-1.52429846887600e+001,-2.99426420139805e-001

1.53687518128801e+004,-1.52429874561314e+001,-3.03605637299031e-001

1.55832915932100e+004,-1.52429903010981e+001,-3.07843167885399e-001

1.58008262372675e+004,-1.52429932258300e+001,-3.12139824811283e-001

1.60213975517924e+004,-1.52429962325575e+001,-3.16496432290225e-001

1.62450479271247e+004,-1.52429993235724e+001,-3.20913825993955e-001

1.64718203453514e+004,-1.52430025012306e+001,-3.25392853208151e-001

1.67017583885674e+004,-1.52430057679535e+001,-3.29934372991800e-001

1.69349062472505e+004,-1.52430091262296e+001,-3.34539256341707e-001

1.71713087287550e+004,-1.52430125786163e+001,-3.39208386356541e-001

1.74110112659224e+004,-1.52430161277423e+001,-3.43942658400779e-001

1.76540599258131e+004,-1.52430197763091e+001,-3.48742980275471e-001

1.79005014185594e+004,-1.52430235270930e+001,-3.53610272390067e-001

1.81503831063432e+004,-1.52430273829475e+001,-3.58545467932436e-001

1.84037530124975e+004,-1.52430313468050e+001,-3.63549513048456e-001

1.86606598307361e+004,-1.52430354216791e+001,-3.68623367016863e-001

1.89211529345119e+004,-1.52430396106668e+001,-3.73768002431066e-001

1.91852823865052e+004,-1.52430439169511e+001,-3.78984405380228e-001

1.94530989482457e+004,-1.52430483438028e+001,-3.84273575635895e-001

1.97246540898671e+004,-1.52430528945830e+001,-3.89636526840240e-001

1.99999999999999e+004,-1.52430575727460e+001,-3.95074286692907e-001

2.02791895958005e+004,-1.52430623818414e+001,-4.00587897145503e-001

2.05622765331213e+004,-1.52430673255167e+001,-4.06178414597731e-001

2.08493152168224e+004,-1.52430724075202e+001,-4.11846910092563e-001

2.11403608112276e+004,-1.52430776317034e+001,-4.17594469517984e-001

2.14354692507258e+004,-1.52430830020242e+001,-4.23422193808326e-001

2.17346972505211e+004,-1.52430885225493e+001,-4.29331199151947e-001

2.20381023175322e+004,-1.52430941974576e+001,-4.35322617196651e-001

2.23457427614443e+004,-1.52431000310427e+001,-4.41397595263100e-001

2.26576777059159e+004,-1.52431060277165e+001,-4.47557296556191e-001

2.29739670999406e+004,-1.52431121920122e+001,-4.53802900382051e-001

2.32946717293690e+004,-1.52431185285874e+001,-4.60135602367809e-001

2.36198532285905e+004,-1.52431250422274e+001,-4.66556614683374e-001

2.39495740923785e+004,-1.52431317378489e+001,-4.73067166264501e-001

2.42838976879009e+004,-1.52431386205034e+001,-4.79668503043752e-001

2.46228882668982e+004,-1.52431456953808e+001,-4.86361888176570e-001

2.49666109780322e+004,-1.52431529678127e+001,-4.93148602280267e-001

2.53151318794055e+004,-1.52431604432771e+001,-5.00029943664394e-001

2.56685179512580e+004,-1.52431681274011e+001,-5.07007228576047e-001

2.60268371088386e+004,-1.52431760259657e+001,-5.14081791439478e-001

2.63901582154578e+004,-1.52431841449098e+001,-5.21254985100484e-001

2.67585510957221e+004,-1.52431924903337e+001,-5.28528181078853e-001

2.71320865489533e+004,-1.52432010685044e+001,-5.35902769815298e-001

2.75108363627948e+004,-1.52432098858590e+001,-5.43380160932541e-001

2.78948733270080e+004,-1.52432189490098e+001,-5.50961783487270e-001

2.82842712474618e+004,-1.52432282647484e+001,-5.58649086236581e-001

2.86791049603164e+004,-1.52432378400511e+001,-5.66443537899316e-001

2.90794503464061e+004,-1.52432476820830e+001,-5.74346627424948e-001

2.94853843458219e+004,-1.52432577982031e+001,-5.82359864266413e-001

2.98969849726987e+004,-1.52432681959696e+001,-5.90484778652359e-001

3.03143313302078e+004,-1.52432788831450e+001,-5.98722921866396e-001

3.07375036257601e+004,-1.52432898677008e+001,-6.07075866528441e-001

3.11665831864199e+004,-1.52433011578239e+001,-6.15545206878301e-001

3.16016524745350e+004,-1.52433127619213e+001,-6.24132559065801e-001

3.20427951035848e+004,-1.52433246886260e+001,-6.32839561441631e-001

3.24900958542493e+004,-1.52433369468029e+001,-6.41667874851794e-001

3.29436406907028e+004,-1.52433495455546e+001,-6.50619182937156e-001

3.34035167771346e+004,-1.52433624942276e+001,-6.59695192436073e-001

3.38698124945009e+004,-1.52433758024181e+001,-6.68897633489594e-001

3.43426174575100e+004,-1.52433894799786e+001,-6.78228259952423e-001

3.48220225318448e+004,-1.52434035370244e+001,-6.87688849703520e-001

3.53081198516260e+004,-1.52434179839402e+001,-6.97281204965232e-001

3.58010028371187e+004,-1.52434328313864e+001,-7.07007152624090e-001

3.63007662126863e+004,-1.52434480903067e+001,-7.16868544552136e-001

3.68075060249948e+004,-1.52434637719343e+001,-7.26867257939577e-001

3.73213196614721e+004,-1.52434798877999e+001,-7.37005195622146e-001

3.78423058690237e+004,-1.52434964497385e+001,-7.47284286419451e-001

3.83705647730104e+004,-1.52435134698967e+001,-7.57706485473448e-001

3.89061978964912e+004,-1.52435309607410e+001,-7.68273774593039e-001

3.94493081797342e+004,-1.52435489350649e+001,-7.78988162598460e-001

3.99999999999998e+004,-1.52435674059971e+001,-7.89851685675073e-001

4.05583791916010e+004,-1.52435863870098e+001,-8.00866407727201e-001

4.11245530662425e+004,-1.52436058919266e+001,-8.12034420736665e-001

4.16986304336447e+004,-1.52436259349305e+001,-8.23357845127649e-001

4.22807216224550e+004,-1.52436465305737e+001,-8.34838830129736e-001

4.28709385014515e+004,-1.52436676937848e+001,-8.46479554152687e-001

4.34693945010421e+004,-1.52436894398788e+001,-8.58282225158787e-001

4.40762046350642e+004,-1.52437117845654e+001,-8.70249081042521e-001

4.46914855228886e+004,-1.52437347439585e+001,-8.82382390013980e-001

4.53153554118317e+004,-1.52437583345854e+001,-8.94684450983747e-001

4.59479341998812e+004,-1.52437825733963e+001,-9.07157593956779e-001

4.65893434587380e+004,-1.52438074777739e+001,-9.19804180425427e-001

4.72397064571810e+004,-1.52438330655430e+001,-9.32626603769093e-001

4.78991481847569e+004,-1.52438593549808e+001,-9.45627289657541e-001

4.85677953758016e+004,-1.52438863648265e+001,-9.58808696459082e-001

4.92457765337964e+004,-1.52439141142917e+001,-9.72173315651201e-001

4.99332219560642e+004,-1.52439426230708e+001,-9.85723672236336e-001

5.06302637588109e+004,-1.52439719113517e+001,-9.99462325161232e-001

5.13370359025159e+004,-1.52440019998257e+001,-1.01339186774315e+000

5.20536742176771e+004,-1.52440329096987e+001,-1.02751492809597e+000

5.27803164309155e+004,-1.52440646627023e+001,-1.04183416956234e+000

5.35171021914442e+004,-1.52440972811041e+001,-1.05635229115202e+000

5.42641730979066e+004,-1.52441307877195e+001,-1.07107202798141e+000

5.50216727255895e+004,-1.52441652059222e+001,-1.08599615171864e+000

5.57897466540159e+004,-1.52442005596562e+001,-1.10112747103293e+000

5.65685424949235e+004,-1.52442368734464e+001,-1.11646883204898e+000

5.73582099206328e+004,-1.52442741724108e+001,-1.13202311880215e+000

5.81589006928121e+004,-1.52443124822716e+001,-1.14779325370246e+000

5.89707686916437e+004,-1.52443518293666e+001,-1.16378219800103e+000

5.97939699453972e+004,-1.52443922406615e+001,-1.17999295225869e+000

6.06286626604156e+004,-1.52444337437611e+001,-1.19642855682136e+000

6.14750072515201e+004,-1.52444763669209e+001,-1.21309209230002e+000

6.23331663728396e+004,-1.52445201390593e+001,-1.22998668005221e+000

6.32033049490698e+004,-1.52445650897689e+001,-1.24711548267167e+000

6.40855902071694e+004,-1.52446112493285e+001,-1.26448170447754e+000

6.49801917084985e+004,-1.52446586487147e+001,-1.28208859201269e+000

6.58872813814055e+004,-1.52447073196133e+001,-1.29993943454373e+000

6.68070335542691e+004,-1.52447572944312e+001,-1.31803756456499e+000

6.77396249890018e+004,-1.52448086063078e+001,-1.33638635830904e+000

6.86852349150199e+004,-1.52448612891264e+001,-1.35498923625897e+000

6.96440450636895e+004,-1.52449153775251e+001,-1.37384966366836e+000

7.06162397032520e+004,-1.52449709069085e+001,-1.39297115108191e+000

7.16020056742374e+004,-1.52450279134583e+001,-1.41235725486345e+000

7.26015324253724e+004,-1.52450864341440e+001,-1.43201157772709e+000

7.36150120499896e+004,-1.52451465067334e+001,-1.45193776927553e+000

7.46426393229441e+004,-1.52452081698032e+001,-1.47213952653669e+000

7.56846117380472e+004,-1.52452714627484e+001,-1.49262059451342e+000

7.67411295460207e+004,-1.52453364257925e+001,-1.51338476673119e+000

7.78123957929823e+004,-1.52454030999965e+001,-1.53443588579465e+000

7.88986163594682e+004,-1.52454715272679e+001,-1.55577784394625e+000

7.99999999999995e+004,-1.52455417503692e+001,-1.57741458363295e+000

8.11167583832018e+004,-1.52456138129261e+001,-1.59935009807471e+000

8.22491061324848e+004,-1.52456877594349e+001,-1.62158843184021e+000

8.33972608672892e+004,-1.52457636352695e+001,-1.64413368142842e+000

8.45614432449099e+004,-1.52458414866881e+001,-1.66698999585267e+000

8.57418770029029e+004,-1.52459213608388e+001,-1.69016157723402e+000

8.69387890020841e+004,-1.52460033057648e+001,-1.71365268139744e+000

8.81524092701283e+004,-1.52460873704092e+001,-1.73746761847510e+000

8.93829710457770e+004,-1.52461736046184e+001,-1.76161075351555e+000

9.06307108236633e+004,-1.52462620591449e+001,-1.78608650710015e+000

9.18958683997622e+004,-1.52463527856498e+001,-1.81089935596308e+000

9.31786869174758e+004,-1.52464458367033e+001,-1.83605383362169e+000

9.44794129143618e+004,-1.52465412657856e+001,-1.86155453101125e+000

9.57982963695136e+004,-1.52466391272854e+001,-1.88740609712854e+000

9.71355907516031e+004,-1.52467394764983e+001,-1.91361323968079e+000

9.84915530675926e+004,-1.52468423696239e+001,-1.94018072574539e+000

9.98664439121282e+004,-1.52469478637609e+001,-1.96711338243559e+000

1.01260527517622e+005,-1.52470560169022e+001,-1.99441609757522e+000

1.02674071805032e+005,-1.52471668879277e+001,-2.02209382038396e+000

1.04107348435354e+005,-1.52472805365964e+001,-2.05015156216793e+000

1.05560632861831e+005,-1.52473970235360e+001,-2.07859439702601e+000

1.07034204382888e+005,-1.52475164102327e+001,-2.10742746256092e+000

1.08528346195813e+005,-1.52476387590176e+001,-2.13665596060438e+000

1.10043345451179e+005,-1.52477641330528e+001,-2.16628515795290e+000

1.11579493308032e+005,-1.52478925963148e+001,-2.19632038711549e+000

1.13137084989847e+005,-1.52480242135773e+001,-2.22676704707308e+000

1.14716419841265e+005,-1.52481590503908e+001,-2.25763060405225e+000

1.16317801385624e+005,-1.52482971730615e+001,-2.28891659231378e+000

1.17941537383287e+005,-1.52484386486274e+001,-2.32063061495343e+000

1.19587939890794e+005,-1.52485835448329e+001,-2.35277834471953e+000

1.21257325320831e+005,-1.52487319301011e+001,-2.38536552484818e+000

1.22950014503040e+005,-1.52488838735042e+001,-2.41839796991279e+000

1.24666332745679e+005,-1.52490394447312e+001,-2.45188156669438e+000

1.26406609898139e+005,-1.52491987140542e+001,-2.48582227506845e+000

1.28171180414339e+005,-1.52493617522912e+001,-2.52022612891525e+000

1.29960383416997e+005,-1.52495286307682e+001,-2.55509923704644e+000

1.31774562762811e+005,-1.52496994212775e+001,-2.59044778415891e+000

1.33614067108538e+005,-1.52498741960344e+001,-2.62627803180772e+000

1.35479249978003e+005,-1.52500530276310e+001,-2.66259631940717e+000

1.37370469830040e+005,-1.52502359889882e+001,-2.69940906525472e+000

1.39288090127379e+005,-1.52504231533047e+001,-2.73672276758278e+000

1.41232479406504e+005,-1.52506145940036e+001,-2.77454400564041e+000

1.43204011348474e+005,-1.52508103846767e+001,-2.81287944080256e+000

1.45203064850745e+005,-1.52510105990267e+001,-2.85173581771183e+000

1.47230024099979e+005,-1.52512153108059e+001,-2.89111996545233e+000

1.49285278645888e+005,-1.52514245937536e+001,-2.93103879875769e+000

1.51369223476094e+005,-1.52516385215310e+001,-2.97149931925437e+000

1.53482259092041e+005,-1.52518571676526e+001,-3.01250861674394e+000

1.55624791585964e+005,-1.52520806054173e+001,-3.05407387052093e+000

1.57797232718936e+005,-1.52523089078355e+001,-3.09620235073440e+000

1.59999999999999e+005,-1.52525421475556e+001,-3.13890141978884e+000

1.62233516766403e+005,-1.52527803967871e+001,-3.18217853379206e+000

1.64498212264969e+005,-1.52530237272232e+001,-3.22604124404434e+000

1.66794521734578e+005,-1.52532722099605e+001,-3.27049719857831e+000

1.69122886489819e+005,-1.52535259154180e+001,-3.31555414374633e+000

1.71483754005805e+005,-1.52537849132544e+001,-3.36121992585800e+000

1.73877578004168e+005,-1.52540492722836e+001,-3.40750249286971e+000

1.76304818540256e+005,-1.52543190603902e+001,-3.45440989612988e+000

1.78765942091554e+005,-1.52545943444434e+001,-3.50195029217709e+000

1.81261421647326e+005,-1.52548751902102e+001,-3.55013194459800e+000

1.83791736799524e+005,-1.52551616622692e+001,-3.59896322594172e+000

1.86357373834951e+005,-1.52554538239231e+001,-3.64845261969579e+000

1.88958825828723e+005,-1.52557517371125e+001,-3.69860872232370e+000

1.91596592739027e+005,-1.52560554623295e+001,-3.74944024536488e+000

1.94271181503206e+005,-1.52563650585322e+001,-3.80095601760006e+000

1.96983106135185e+005,-1.52566805830608e+001,-3.85316498728164e+000

1.99732887824256e+005,-1.52570020915553e+001,-3.90607622443077e+000

2.02521055035243e+005,-1.52573296378741e+001,-3.95969892320320e+000

2.05348143610063e+005,-1.52576632740160e+001,-4.01404240432308e+000

2.08214696870707e+005,-1.52580030500446e+001,-4.06911611758629e+000

2.11121265723661e+005,-1.52583490140156e+001,-4.12492964443456e+000

2.14068408765776e+005,-1.52587012119081e+001,-4.18149270060003e+000

2.17056692391625e+005,-1.52590596875591e+001,-4.23881513882081e+000

2.20086690902357e+005,-1.52594244826036e+001,-4.29690695162802e+000

2.23158986616063e+005,-1.52597956364189e+001,-4.35577827420294e+000

2.26274169979693e+005,-1.52601731860740e+001,-4.41543938730741e+000

2.29432839682530e+005,-1.52605571662862e+001,-4.47590072028318e+000

2.32635602771247e+005,-1.52609476093824e+001,-4.53717285412152e+000

2.35883074766574e+005,-1.52613445452685e+001,-4.59926652460329e+000

2.39175879781588e+005,-1.52617480014058e+001,-4.66219262550533e+000

2.42514650641661e+005,-1.52621580027949e+001,-4.72596221187623e+000

2.45900029006080e+005,-1.52625745719681e+001,-4.79058650337637e+000

2.49332665491357e+005,-1.52629977289910e+001,-4.85607688768237e+000

2.52813219796278e+005,-1.52634274914726e+001,-4.92244492395345e+000

2.56342360828676e+005,-1.52638638745853e+001,-4.98970234635885e+000

2.59920766833993e+005,-1.52643068910956e+001,-5.05786106766127e+000

2.63549125525621e+005,-1.52647565514041e+001,-5.12693318285780e+000

2.67228134217075e+005,-1.52652128635976e+001,-5.19693097287112e+000

2.70958499956006e+005,-1.52656758335118e+001,-5.26786690829247e+000

2.74740939660078e+005,-1.52661454648055e+001,-5.33975365316881e+000

2.78576180254757e+005,-1.52666217590471e+001,-5.41260406883565e+000

2.82464958813007e+005,-1.52671047158132e+001,-5.48643121778728e+000

2.86408022696948e+005,-1.52675943327991e+001,-5.56124836758520e+000

2.90406129701488e+005,-1.52680906059425e+001,-5.63706899479672e+000

2.94460048199957e+005,-1.52685935295597e+001,-5.71390678896421e+000

2.98570557291775e+005,-1.52691030964948e+001,-5.79177565659717e+000

3.02738446952187e+005,-1.52696192982815e+001,-5.87068972518580e+000

3.06964518184081e+005,-1.52701421253185e+001,-5.95066334722990e+000

3.11249583171928e+005,-1.52706715670573e+001,-6.03171110428075e+000

3.15594465437872e+005,-1.52712076122034e+001,-6.11384781099038e+000

3.19999999999997e+005,-1.52717502489297e+001,-6.19708851916508e+000

3.24467033532806e+005,-1.52722994651036e+001,-6.28144852181765e+000

3.28996424529938e+005,-1.52728552485250e+001,-6.36694335721682e+000

3.33589043469155e+005,-1.52734175871781e+001,-6.45358881292631e+000

3.38245772979638e+005,-1.52739864694943e+001,-6.54140092983312e+000

3.42967508011610e+005,-1.52745618846262e+001,-6.63039600615869e+000

3.47755156008335e+005,-1.52751438227342e+001,-6.72059060145142e+000

3.52609637080511e+005,-1.52757322752821e+001,-6.81200154055527e+000

3.57531884183106e+005,-1.52763272353448e+001,-6.90464591755272e+000

3.62522843294651e+005,-1.52769286979236e+001,-6.99854109967847e+000

3.67583473599047e+005,-1.52775366602733e+001,-7.09370473120109e+000

3.72714747669902e+005,-1.52781511222353e+001,-7.19015473727042e+000

3.77917651657445e+005,-1.52787720865808e+001,-7.28790932772952e+000

3.83193185478053e+005,-1.52793995593605e+001,-7.38698700088682e+000

3.88542363006410e+005,-1.52800335502607e+001,-7.48740654724952e+000

3.93966212270369e+005,-1.52806740729666e+001,-7.58918705321662e+000

3.99465775648511e+005,-1.52813211455296e+001,-7.69234790472950e+000

4.05042110070485e+005,-1.52819747907406e+001,-7.79690879088038e+000

4.10696287220124e+005,-1.52826350365062e+001,-7.90288970747948e+000

4.16429393741414e+005,-1.52833019162293e+001,-8.01031096057940e+000

4.22242531447321e+005,-1.52839754691909e+001,-8.11919316995854e+000

4.28136817531551e+005,-1.52846557409354e+001,-8.22955727256420e+000

4.34113384783250e+005,-1.52853427836557e+001,-8.34142452591699e+000

4.40173381804713e+005,-1.52860366565797e+001,-8.45481651147741e+000

4.46317973232124e+005,-1.52867374263567e+001,-8.56975513797762e+000

4.52548339959385e+005,-1.52874451674426e+001,-8.68626264472024e+000

4.58865679365059e+005,-1.52881599624843e+001,-8.80436160484679e+000

4.65271205542494e+005,-1.52888819027026e+001,-8.92407492857827e+000

4.71766149533147e+005,-1.52896110882715e+001,-9.04542586643312e+000

4.78351759563174e+005,-1.52903476286959e+001,-9.16843801242228e+000

4.85029301283321e+005,-1.52910916431859e+001,-9.29313530722943e+000

4.91800058012158e+005,-1.52918432610270e+001,-9.41954204137639e+000

4.98665330982714e+005,-1.52926026219463e+001,-9.54768285838065e+000

5.05626439592555e+005,-1.52933698764751e+001,-9.67758275790692e+000

5.12684721657352e+005,-1.52941451863061e+001,-9.80926709891927e+000

5.19841533667984e+005,-1.52949287246466e+001,-9.94276160283672e+000

5.27098251051240e+005,-1.52957206765666e+001,-1.00780923566965e+001

5.34456268434150e+005,-1.52965212393413e+001,-1.02152858163316e+001

5.41916999912011e+005,-1.52973306227898e+001,-1.03543688095651e+001

