Freq.,VOut,OutRef

1.00000000000000e+004,-1.86470320217612e+001,-1.33695221202846e-001

1.01395947979003e+004,-1.86470335888191e+001,-1.35561294566504e-001

1.02811382665607e+004,-1.86470351998798e+001,-1.37453407058842e-001

1.04246576084112e+004,-1.86470368561772e+001,-1.39371921737803e-001

1.05701804056138e+004,-1.86470385589800e+001,-1.41317206708851e-001

1.07177346253629e+004,-1.86470403095919e+001,-1.43289635199503e-001

1.08673486252606e+004,-1.86470421093538e+001,-1.45289585623210e-001

1.10190511587661e+004,-1.86470439596435e+001,-1.47317441658197e-001

1.11728713807222e+004,-1.86470458618775e+001,-1.49373592315962e-001

1.13288388529580e+004,-1.86470478175123e+001,-1.51458432013955e-001

1.14869835499703e+004,-1.86470498280441e+001,-1.53572360655248e-001

1.16473358646846e+004,-1.86470518950119e+001,-1.55715783698196e-001

1.18099266142953e+004,-1.86470540199975e+001,-1.57889112234196e-001

1.19747870461893e+004,-1.86470562046262e+001,-1.60092763071447e-001

1.21419488439505e+004,-1.86470584505698e+001,-1.62327158802608e-001

1.23114441334492e+004,-1.86470607595459e+001,-1.64592727893803e-001

1.24833054890161e+004,-1.86470631333203e+001,-1.66889904762008e-001

1.26575659397028e+004,-1.86470655737082e+001,-1.69219129855865e-001

1.28342589756290e+004,-1.86470680825754e+001,-1.71580849740082e-001

1.30134185544193e+004,-1.86470706618396e+001,-1.73975517178570e-001

1.31950791077289e+004,-1.86470733134725e+001,-1.76403591218646e-001

1.33792755478611e+004,-1.86470760395002e+001,-1.78865537280559e-001

1.35660432744767e+004,-1.86470788420055e+001,-1.81361827240999e-001

1.37554181813974e+004,-1.86470817231294e+001,-1.83892939524351e-001

1.39474366635040e+004,-1.86470846850722e+001,-1.86459359191274e-001

1.41421356237309e+004,-1.86470877300963e+001,-1.89061578027214e-001

1.43395524801583e+004,-1.86470908605261e+001,-1.91700094640726e-001

1.45397251732031e+004,-1.86470940787512e+001,-1.94375414551107e-001

1.47426921729110e+004,-1.86470973872283e+001,-1.97088050281511e-001

1.49484924863494e+004,-1.86471007884814e+001,-1.99838521463767e-001

1.51571656651040e+004,-1.86471042851054e+001,-2.02627354925285e-001

1.53687518128801e+004,-1.86471078797673e+001,-2.05455084792151e-001

1.55832915932100e+004,-1.86471115752082e+001,-2.08322252587382e-001

1.58008262372675e+004,-1.86471153742453e+001,-2.11229407333745e-001

1.60213975517924e+004,-1.86471192797743e+001,-2.14177105653257e-001

1.62450479271247e+004,-1.86471232947713e+001,-2.17165911871202e-001

1.64718203453514e+004,-1.86471274222951e+001,-2.20196398120729e-001

1.67017583885674e+004,-1.86471316654890e+001,-2.23269144452477e-001

1.69349062472505e+004,-1.86471360275841e+001,-2.26384738935938e-001

1.71713087287550e+004,-1.86471405119011e+001,-2.29543777771767e-001

1.74110112659224e+004,-1.86471451218523e+001,-2.32746865403608e-001

1.76540599258131e+004,-1.86471498609451e+001,-2.35994614625444e-001

1.79005014185594e+004,-1.86471547327838e+001,-2.39287646698899e-001

1.81503831063432e+004,-1.86471597410728e+001,-2.42626591462755e-001

1.84037530124975e+004,-1.86471648896187e+001,-2.46012087456132e-001

1.86606598307361e+004,-1.86471701823339e+001,-2.49444782026671e-001

1.89211529345119e+004,-1.86471756232387e+001,-2.52925331457544e-001

1.91852823865052e+004,-1.86471812164647e+001,-2.56454401084214e-001

1.94530989482457e+004,-1.86471869662578e+001,-2.60032665413118e-001

1.97246540898671e+004,-1.86471928769808e+001,-2.63660808253387e-001

1.99999999999999e+004,-1.86471989531174e+001,-2.67339522832437e-001

2.02791895958005e+004,-1.86472051992748e+001,-2.71069511929105e-001

2.05622765331213e+004,-1.86472116201875e+001,-2.74851487996195e-001

2.08493152168224e+004,-1.86472182207202e+001,-2.78686173296280e-001

2.11403608112276e+004,-1.86472250058719e+001,-2.82574300027033e-001

2.14354692507258e+004,-1.86472319807793e+001,-2.86516610455934e-001

2.17346972505211e+004,-1.86472391507200e+001,-2.90513857056688e-001

2.20381023175322e+004,-1.86472465211174e+001,-2.94566802640898e-001

2.23457427614443e+004,-1.86472540975435e+001,-2.98676220499387e-001

2.26576777059159e+004,-1.86472618857236e+001,-3.02842894539148e-001

2.29739670999406e+004,-1.86472698915401e+001,-3.07067619425114e-001

2.32946717293690e+004,-1.86472781210366e+001,-3.11351200722176e-001

2.36198532285905e+004,-1.86472865804227e+001,-3.15694455038513e-001

2.39495740923785e+004,-1.86472952760779e+001,-3.20098210174720e-001

2.42838976879009e+004,-1.86473042145563e+001,-3.24563305267018e-001

2.46228882668982e+004,-1.86473134025914e+001,-3.29090590937640e-001

2.49666109780322e+004,-1.86473228471007e+001,-3.33680929449261e-001

2.53151318794055e+004,-1.86473325551904e+001,-3.38335194853021e-001

2.56685179512580e+004,-1.86473425341608e+001,-3.43054273144643e-001

2.60268371088386e+004,-1.86473527915116e+001,-3.47839062420623e-001

2.63901582154578e+004,-1.86473633349458e+001,-3.52690473038233e-001

2.67585510957221e+004,-1.86473741723770e+001,-3.57609427770701e-001

2.71320865489533e+004,-1.86473853119334e+001,-3.62596861971919e-001

2.75108363627948e+004,-1.86473967619643e+001,-3.67653723738917e-001

2.78948733270080e+004,-1.86474085310453e+001,-3.72780974075705e-001

2.82842712474618e+004,-1.86474206279847e+001,-3.77979587061657e-001

2.86791049603164e+004,-1.86474330618292e+001,-3.83250550018555e-001

2.90794503464061e+004,-1.86474458418704e+001,-3.88594863681322e-001

2.94853843458219e+004,-1.86474589776506e+001,-3.94013542372342e-001

2.98969849726987e+004,-1.86474724789699e+001,-3.99507614170156e-001

3.03143313302078e+004,-1.86474863558928e+001,-4.05078121089578e-001

3.07375036257601e+004,-1.86475006187543e+001,-4.10726119258820e-001

3.11665831864199e+004,-1.86475152781677e+001,-4.16452679096308e-001

3.16016524745350e+004,-1.86475303450313e+001,-4.22258885493722e-001

3.20427951035848e+004,-1.86475458305357e+001,-4.28145837997619e-001

3.24900958542493e+004,-1.86475617461711e+001,-4.34114650995864e-001

3.29436406907028e+004,-1.86475781037353e+001,-4.40166453901937e-001

3.34035167771346e+004,-1.86475949153411e+001,-4.46302391344661e-001

3.38698124945009e+004,-1.86476121934244e+001,-4.52523623356849e-001

3.43426174575100e+004,-1.86476299507520e+001,-4.58831325569277e-001

3.48220225318448e+004,-1.86476482004306e+001,-4.65226689401806e-001

3.53081198516260e+004,-1.86476669559146e+001,-4.71710922258877e-001

3.58010028371187e+004,-1.86476862310149e+001,-4.78285247729167e-001

3.63007662126863e+004,-1.86477060399078e+001,-4.84950905781197e-001

3.68075060249948e+004,-1.86477263971439e+001,-4.91709152965545e-001

3.73213196614721e+004,-1.86477473176576e+001,-4.98561262615696e-001

3.78423058690237e+004,-1.86477688167760e+001,-5.05508525053865e-001

3.83705647730104e+004,-1.86477909102288e+001,-5.12552247795259e-001

3.89061978964912e+004,-1.86478136141579e+001,-5.19693755755493e-001

3.94493081797342e+004,-1.86478369451273e+001,-5.26934391458507e-001

3.99999999999998e+004,-1.86478609201335e+001,-5.34275515249034e-001

4.05583791916010e+004,-1.86478855566154e+001,-5.41718505502967e-001

4.11245530662425e+004,-1.86479108724650e+001,-5.49264758841754e-001

4.16986304336447e+004,-1.86479368860384e+001,-5.56915690347210e-001

4.22807216224550e+004,-1.86479636161658e+001,-5.64672733778801e-001

4.28709385014515e+004,-1.86479910821638e+001,-5.72537341791133e-001

4.34693945010421e+004,-1.86480193038459e+001,-5.80510986152076e-001

4.40762046350642e+004,-1.86480483015336e+001,-5.88595157969175e-001

4.46914855228886e+004,-1.86480780960691e+001,-5.96791367904650e-001

4.53153554118317e+004,-1.86481087088262e+001,-6.05101146405690e-001

4.59479341998812e+004,-1.86481401617229e+001,-6.13526043925150e-001

4.65893434587380e+004,-1.86481724772332e+001,-6.22067631150049e-001

4.72397064571810e+004,-1.86482056783996e+001,-6.30727499229407e-001

4.78991481847569e+004,-1.86482397888457e+001,-6.39507260001955e-001

4.85677953758016e+004,-1.86482748327888e+001,-6.48408546225942e-001

4.92457765337964e+004,-1.86483108350531e+001,-6.57433011811493e-001

4.99332219560642e+004,-1.86483478210823e+001,-6.66582332051881e-001

5.06302637588109e+004,-1.86483858169528e+001,-6.75858203856869e-001

5.13370359025159e+004,-1.86484248493877e+001,-6.85262345986269e-001

5.20536742176771e+004,-1.86484649457693e+001,-6.94796499286144e-001

5.27803164309155e+004,-1.86485061341535e+001,-7.04462426923626e-001

5.35171021914442e+004,-1.86485484432835e+001,-7.14261914622908e-001

5.42641730979066e+004,-1.86485919026031e+001,-7.24196770904603e-001

5.50216727255895e+004,-1.86486365422712e+001,-7.34268827322555e-001

5.57897466540159e+004,-1.86486823931757e+001,-7.44479938702028e-001

5.65685424949235e+004,-1.86487294869477e+001,-7.54831983379315e-001

5.73582099206328e+004,-1.86487778559755e+001,-7.65326863442429e-001

5.81589006928121e+004,-1.86488275334196e+001,-7.75966504969694e-001

5.89707686916437e+004,-1.86488785532257e+001,-7.86752858272059e-001

5.97939699453972e+004,-1.86489309501408e+001,-7.97687898131412e-001

6.06286626604156e+004,-1.86489847597261e+001,-8.08773624043847e-001

6.14750072515201e+004,-1.86490400183721e+001,-8.20012060460402e-001

6.23331663728396e+004,-1.86490967633130e+001,-8.31405257026532e-001

6.32033049490698e+004,-1.86491550326404e+001,-8.42955288827757e-001

6.40855902071694e+004,-1.86492148653184e+001,-8.54664256626133e-001

6.49801917084985e+004,-1.86492763011972e+001,-8.66534287104484e-001

6.58872813814055e+004,-1.86493393810268e+001,-8.78567533108171e-001

6.68070335542691e+004,-1.86494041464721e+001,-8.90766173882798e-001

6.77396249890018e+004,-1.86494706401253e+001,-9.03132415319288e-001

6.86852349150199e+004,-1.86495389055202e+001,-9.15668490190486e-001

6.96440450636895e+004,-1.86496089871454e+001,-9.28376658394142e-001

7.06162397032520e+004,-1.86496809304570e+001,-9.41259207191160e-001

7.16020056742374e+004,-1.86497547818918e+001,-9.54318451445554e-001

7.26015324253724e+004,-1.86498305888797e+001,-9.67556733862308e-001

7.36150120499896e+004,-1.86499083998552e+001,-9.80976425227132e-001

7.46426393229441e+004,-1.86499882642697e+001,-9.94579924643830e-001

7.56846117380472e+004,-1.86500702326021e+001,-1.00836965977156e+000

7.67411295460207e+004,-1.86501543563703e+001,-1.02234808705997e+000

7.78123957929823e+004,-1.86502406881404e+001,-1.03651769198898e+000

7.88986163594682e+004,-1.86503292815369e+001,-1.05088098930064e+000

7.99999999999995e+004,-1.86504201912515e+001,-1.06544052323709e+000

8.11167583832018e+004,-1.86505134730510e+001,-1.08019886777378e+000

8.22491061324848e+004,-1.86506091837853e+001,-1.09515862685371e+000

8.33972608672892e+004,-1.86507073813939e+001,-1.11032243462057e+000

8.45614432449099e+004,-1.86508081249112e+001,-1.12569295565524e+000

8.57418770029029e+004,-1.86509114744724e+001,-1.14127288520359e+000

8.69387890020841e+004,-1.86510174913164e+001,-1.15706494941510e+000

8.81524092701283e+004,-1.86511262377892e+001,-1.17307190557195e+000

8.93829710457770e+004,-1.86512377773455e+001,-1.18929654232408e+000

9.06307108236633e+004,-1.86513521745490e+001,-1.20574167992158e+000

9.18958683997622e+004,-1.86514694950724e+001,-1.22241017044803e+000

9.31786869174758e+004,-1.86515898056941e+001,-1.23930489805665e+000

9.44794129143618e+004,-1.86517131742958e+001,-1.25642877920432e+000

9.57982963695136e+004,-1.86518396698569e+001,-1.27378476288693e+000

9.71355907516031e+004,-1.86519693624482e+001,-1.29137583087999e+000

9.84915530675926e+004,-1.86521023232234e+001,-1.30920499797562e+000

9.98664439121282e+004,-1.86522386244094e+001,-1.32727531222489e+000

1.01260527517622e+005,-1.86523783392942e+001,-1.34558985518254e+000

1.02674071805032e+005,-1.86525215422134e+001,-1.36415174215252e+000

1.04107348435354e+005,-1.86526683085341e+001,-1.38296412243998e+000

1.05560632861831e+005,-1.86528187146377e+001,-1.40203017960318e+000

1.07034204382888e+005,-1.86529728378990e+001,-1.42135313171354e+000

1.08528346195813e+005,-1.86531307566647e+001,-1.44093623161726e+000

1.10043345451179e+005,-1.86532925502283e+001,-1.46078276720591e+000

1.11579493308032e+005,-1.86534582988028e+001,-1.48089606168970e+000

1.13137084989847e+005,-1.86536280834913e+001,-1.50127947387997e+000

1.14716419841265e+005,-1.86538019862549e+001,-1.52193639847868e+000

1.16317801385624e+005,-1.86539800898769e+001,-1.54287026637583e+000

1.17941537383287e+005,-1.86541624779254e+001,-1.56408454495820e+000

1.19587939890794e+005,-1.86543492347126e+001,-1.58558273842464e+000

1.21257325320831e+005,-1.86545404452508e+001,-1.60736838811607e+000

1.22950014503040e+005,-1.86547361952055e+001,-1.62944507285699e+000

1.24666332745679e+005,-1.86549365708455e+001,-1.65181640930893e+000

1.26406609898139e+005,-1.86551416589898e+001,-1.67448605233937e+000

1.28171180414339e+005,-1.86553515469511e+001,-1.69745769540675e+000

1.29960383416997e+005,-1.86555663224756e+001,-1.72073507096216e+000

1.31774562762811e+005,-1.86557860736804e+001,-1.74432195086874e+000

1.33614067108538e+005,-1.86560108889861e+001,-1.76822214684168e+000

1.35479249978003e+005,-1.86562408570473e+001,-1.79243951090927e+000

1.37370469830040e+005,-1.86564760666782e+001,-1.81697793589598e+000

1.39288090127379e+005,-1.86567166067759e+001,-1.84184135593095e+000

1.41232479406504e+005,-1.86569625662394e+001,-1.86703374698125e+000

1.43204011348474e+005,-1.86572140338849e+001,-1.89255912741376e+000

1.45203064850745e+005,-1.86574710983583e+001,-1.91842155858545e+000

1.47230024099979e+005,-1.86577338480431e+001,-1.94462514546663e+000

1.49285278645888e+005,-1.86580023709662e+001,-1.97117403729415e+000

1.51369223476094e+005,-1.86582767546985e+001,-1.99807242826381e+000

1.53482259092041e+005,-1.86585570862534e+001,-2.02532455825543e+000

1.55624791585964e+005,-1.86588434519818e+001,-2.05293471359998e+000

1.57797232718936e+005,-1.86591359374632e+001,-2.08090722788630e+000

1.59999999999999e+005,-1.86594346273945e+001,-2.10924648281024e+000

1.62233516766403e+005,-1.86597396054750e+001,-2.13795690907122e+000

1.64498212264969e+005,-1.86600509542896e+001,-2.16704298731340e+000

1.66794521734578e+005,-1.86603687551882e+001,-2.19650924911744e+000

1.69122886489819e+005,-1.86606930881636e+001,-2.22636027804386e+000

1.71483754005805e+005,-1.86610240317263e+001,-2.25660071072930e+000

1.73877578004168e+005,-1.86613616627782e+001,-2.28723523803913e+000

1.76304818540256e+005,-1.86617060564836e+001,-2.31826860627761e+000

1.78765942091554e+005,-1.86620572861396e+001,-2.34970561845665e+000

1.81261421647326e+005,-1.86624154230447e+001,-2.38155113562831e+000

1.83791736799524e+005,-1.86627805363667e+001,-2.41381007827978e+000

1.86357373834951e+005,-1.86631526930107e+001,-2.44648742779317e+000

1.88958825828723e+005,-1.86635319574858e+001,-2.47958822797579e+000

1.91596592739027e+005,-1.86639183917735e+001,-2.51311758665489e+000

1.94271181503206e+005,-1.86643120551961e+001,-2.54708067734625e+000

1.96983106135185e+005,-1.86647130042860e+001,-2.58148274099485e+000

1.99732887824256e+005,-1.86651212926574e+001,-2.61632908778713e+000

2.02521055035243e+005,-1.86655369708797e+001,-2.65162509903892e+000

2.05348143610063e+005,-1.86659600863541e+001,-2.68737622915920e+000

2.08214696870707e+005,-1.86663906831922e+001,-2.72358800768979e+000

2.11121265723661e+005,-1.86668288021005e+001,-2.76026604142247e+000

2.14068408765776e+005,-1.86672744802667e+001,-2.79741601659320e+000

2.17056692391625e+005,-1.86677277512535e+001,-2.83504370115461e+000

2.20086690902357e+005,-1.86681886448958e+001,-2.87315494712652e+000

2.23158986616063e+005,-1.86686571872059e+001,-2.91175569302272e+000

2.26274169979693e+005,-1.86691334002841e+001,-2.95085196635593e+000

2.29432839682530e+005,-1.86696173022375e+001,-2.99044988621921e+000

2.32635602771247e+005,-1.86701089071072e+001,-3.03055566594133e+000

2.35883074766574e+005,-1.86706082248031e+001,-3.07117561581731e+000

2.39175879781588e+005,-1.86711152610495e+001,-3.11231614591056e+000

2.42514650641661e+005,-1.86716300173394e+001,-3.15398376892593e+000

2.45900029006080e+005,-1.86721524909007e+001,-3.19618510315020e+000

2.49332665491357e+005,-1.86726826746727e+001,-3.23892687545917e+000

2.52813219796278e+005,-1.86732205572949e+001,-3.28221592438683e+000

2.56342360828676e+005,-1.86737661231085e+001,-3.32605920325466e+000

2.59920766833993e+005,-1.86743193521703e+001,-3.37046378335771e+000

2.63549125525621e+005,-1.86748802202807e+001,-3.41543685720261e+000

2.67228134217075e+005,-1.86754486990256e+001,-3.46098574179413e+000

2.70958499956006e+005,-1.86760247558324e+001,-3.50711788196816e+000

2.74740939660078e+005,-1.86766083540424e+001,-3.55384085376084e+000

2.78576180254757e+005,-1.86771994529964e+001,-3.60116236781727e+000

2.82464958813007e+005,-1.86777980081378e+001,-3.64909027282699e+000

2.86408022696948e+005,-1.86784039711312e+001,-3.69763255898565e+000

2.90406129701488e+005,-1.86790172899967e+001,-3.74679736147693e+000

2.94460048199957e+005,-1.86796379092614e+001,-3.79659296396707e+000

2.98570557291775e+005,-1.86802657701272e+001,-3.84702780210953e+000

3.02738446952187e+005,-1.86809008106552e+001,-3.89811046704928e+000

3.06964518184081e+005,-1.86815429659670e+001,-3.94984970892747e+000

3.11249583171928e+005,-1.86821921684623e+001,-4.00225444037344e+000

3.15594465437872e+005,-1.86828483480534e+001,-4.05533373998398e+000

3.19999999999997e+005,-1.86835114324157e+001,-4.10909685577911e+000

3.24467033532806e+005,-1.86841813472549e+001,-4.16355320863288e+000

3.28996424529938e+005,-1.86848580165894e+001,-4.21871239566931e+000

3.33589043469155e+005,-1.86855413630481e+001,-4.27458419362139e+000

3.38245772979638e+005,-1.86862313081840e+001,-4.33117856214444e+000

3.42967508011610e+005,-1.86869277728015e+001,-4.38850564708104e+000

3.47755156008335e+005,-1.86876306772976e+001,-4.44657578367044e+000

3.52609637080511e+005,-1.86883399420175e+001,-4.50539949969900e+000

3.57531884183106e+005,-1.86890554876211e+001,-4.56498751858651e+000

3.62522843294651e+005,-1.86897772354632e+001,-4.62535076240338e+000

3.67583473599047e+005,-1.86905051079837e+001,-4.68650035481595e+000

3.72714747669902e+005,-1.86912390291084e+001,-4.74844762395675e+000

3.77917651657445e+005,-1.86919789246594e+001,-4.81120410521426e+000

3.83193185478053e+005,-1.86927247227739e+001,-4.87478154394157e+000

3.88542363006410e+005,-1.86934763543307e+001,-4.93919189808183e+000

3.93966212270369e+005,-1.86942337533835e+001,-5.00444734070686e+000

3.99465775648511e+005,-1.86949968575996e+001,-5.07056026246887e+000

4.05042110070485e+005,-1.86957656087036e+001,-5.13754327396429e+000

4.10696287220124e+005,-1.86965399529248e+001,-5.20540920801019e+000

4.16429393741414e+005,-1.86973198414471e+001,-5.27417112183018e+000

4.22242531447321e+005,-1.86981052308608e+001,-5.34384229915575e+000

4.28136817531551e+005,-1.86988960836155e+001,-5.41443625223850e+000

4.34113384783250e+005,-1.86996923684720e+001,-5.48596672377926e+000

4.40173381804713e+005,-1.87004940609538e+001,-5.55844768877397e+000

4.46317973232124e+005,-1.87013011437963e+001,-5.63189335627850e+000

4.52548339959385e+005,-1.87021136073931e+001,-5.70631817109837e+000

4.58865679365059e+005,-1.87029314502380e+001,-5.78173681540250e+000

4.65271205542494e+005,-1.87037546793640e+001,-5.85816421026727e+000

4.71766149533147e+005,-1.87045833107745e+001,-5.93561551715698e+000

4.78351759563174e+005,-1.87054173698710e+001,-6.01410613933954e+000

4.85029301283321e+005,-1.87062568918728e+001,-6.09365172324849e+000

4.91800058012158e+005,-1.87071019222292e+001,-6.17426815979267e+000

4.98665330982714e+005,-1.87079525170253e+001,-6.25597158561951e+000

5.05626439592555e+005,-1.87088087433781e+001,-6.33877838433896e+000

5.12684721657352e+005,-1.87096706798252e+001,-6.42270518771196e+000

5.19841533667984e+005,-1.87105384167038e+001,-6.50776887681079e+000

5.27098251051240e+005,-1.87114120565209e+001,-6.59398658315661e+000

5.34456268434150e+005,-1.87122917143142e+001,-6.68137568984075e+000

5.41916999912011e+005,-1.87131775180037e+001,-6.76995383263473e+000

