Freq.,VOut,OutRef

1.00000000000000e+004,-6.93465954137083e+000,-7.09891704004914e-002

1.01395947979003e+004,-6.93465986893994e+000,-7.19800798621019e-002

1.02811382665607e+004,-6.93466020570425e+000,-7.29848192570888e-002

1.04246576084112e+004,-6.93466055192190e+000,-7.40035815292044e-002

1.05701804056138e+004,-6.93466090785778e+000,-7.50365623135861e-002

1.07177346253629e+004,-6.93466127378380e+000,-7.60839599744142e-002

1.08673486252606e+004,-6.93466164998040e+000,-7.71459756330756e-002

1.10190511587661e+004,-6.93466203673526e+000,-7.82228132174041e-002

1.11728713807222e+004,-6.93466243434386e+000,-7.93146794971617e-002

1.13288388529580e+004,-6.93466284311058e+000,-8.04217841192787e-002

1.14869835499703e+004,-6.93466326334751e+000,-8.15443396557589e-002

1.16473358646846e+004,-6.93466369537659e+000,-8.26825616322642e-002

1.18099266142953e+004,-6.93466413952743e+000,-8.38366685853696e-002

1.19747870461893e+004,-6.93466459613980e+000,-8.50068820885664e-002

1.21419488439505e+004,-6.93466506556247e+000,-8.61934268043027e-002

1.23114441334492e+004,-6.93466554815401e+000,-8.73965305237809e-002

1.24833054890161e+004,-6.93466604428332e+000,-8.86164242075961e-002

1.26575659397028e+004,-6.93466655432897e+000,-8.98533420360116e-002

1.28342589756290e+004,-6.93466707868026e+000,-9.11075214494723e-002

1.30134185544193e+004,-6.93466761773804e+000,-9.23792031887224e-002

1.31950791077289e+004,-6.93466817191328e+000,-9.36686313528077e-002

1.33792755478611e+004,-6.93466874162930e+000,-9.49760534334049e-002

1.35660432744767e+004,-6.93466932732022e+000,-9.63017203720367e-002

1.37554181813974e+004,-6.93466992943294e+000,-9.76458866000150e-002

1.39474366635040e+004,-6.93467054842690e+000,-9.90088100871255e-002

1.41421356237309e+004,-6.93467118477393e+000,-1.00390752396478e-001

1.43395524801583e+004,-6.93467183895907e+000,-1.01791978729689e-001

1.45397251732031e+004,-6.93467251148062e+000,-1.03212757979549e-001

1.47426921729110e+004,-6.93467320285114e+000,-1.04653362776656e-001

1.49484924863494e+004,-6.93467391359742e+000,-1.06114069544801e-001

1.51571656651040e+004,-6.93467464426059e+000,-1.07595158553252e-001

1.53687518128801e+004,-6.93467539539657e+000,-1.09096913971744e-001

1.55832915932100e+004,-6.93467616757748e+000,-1.10619623915815e-001

1.58008262372675e+004,-6.93467696139032e+000,-1.12163580514135e-001

1.60213975517924e+004,-6.93467777743951e+000,-1.13729079949355e-001

1.62450479271247e+004,-6.93467861634531e+000,-1.15316422526972e-001

1.64718203453514e+004,-6.93467947874513e+000,-1.16925912727353e-001

1.67017583885674e+004,-6.93468036529486e+000,-1.18557859257366e-001

1.69349062472505e+004,-6.93468127666764e+000,-1.20212575118932e-001

1.71713087287550e+004,-6.93468221355571e+000,-1.21890377661025e-001

1.74110112659224e+004,-6.93468317667010e+000,-1.23591588642978e-001

1.76540599258131e+004,-6.93468416674222e+000,-1.25316534289722e-001

1.79005014185594e+004,-6.93468518452266e+000,-1.27065545362961e-001

1.81503831063432e+004,-6.93468623078362e+000,-1.28838957213424e-001

1.84037530124975e+004,-6.93468730631785e+000,-1.30637109851849e-001

1.86606598307361e+004,-6.93468841194064e+000,-1.32460348006165e-001

1.89211529345119e+004,-6.93468954848919e+000,-1.34309021192321e-001

1.91852823865052e+004,-6.93469071682401e+000,-1.36183483776497e-001

1.94530989482457e+004,-6.93469191782944e+000,-1.38084095040806e-001

1.97246540898671e+004,-6.93469315241407e+000,-1.40011219253299e-001

1.99999999999999e+004,-6.93469442151110e+000,-1.41965225737146e-001

2.02791895958005e+004,-6.93469572607987e+000,-1.43946488935378e-001

2.05622765331213e+004,-6.93469706710573e+000,-1.45955388485585e-001

2.08493152168224e+004,-6.93469844560115e+000,-1.47992309288063e-001

2.11403608112276e+004,-6.93469986260653e+000,-1.50057641578210e-001

2.14354692507258e+004,-6.93470131919049e+000,-1.52151781001438e-001

2.17346972505211e+004,-6.93470281645102e+000,-1.54275128684954e-001

2.20381023175322e+004,-6.93470435551619e+000,-1.56428091313539e-001

2.23457427614443e+004,-6.93470593754499e+000,-1.58611081203629e-001

2.26576777059159e+004,-6.93470756372791e+000,-1.60824516383169e-001

2.29739670999406e+004,-6.93470923528807e+000,-1.63068820666847e-001

2.32946717293690e+004,-6.93471095348166e+000,-1.65344423737739e-001

2.36198532285905e+004,-6.93471271959924e+000,-1.67651761223900e-001

2.39495740923785e+004,-6.93471453496679e+000,-1.69991274778796e-001

2.42838976879009e+004,-6.93471640094587e+000,-1.72363412168953e-001

2.46228882668982e+004,-6.93471831893548e+000,-1.74768627349001e-001

2.49666109780322e+004,-6.93472029037216e+000,-1.77207380552678e-001

2.53151318794055e+004,-6.93472231673170e+000,-1.79680138373118e-001

2.56685179512580e+004,-6.93472439952964e+000,-1.82187373852062e-001

2.60268371088386e+004,-6.93472654032267e+000,-1.84729566564800e-001

2.63901582154578e+004,-6.93472874070973e+000,-1.87307202708878e-001

2.67585510957221e+004,-6.93473100233232e+000,-1.89920775197116e-001

2.71320865489533e+004,-6.93473332687684e+000,-1.92570783742698e-001

2.75108363627948e+004,-6.93473571607478e+000,-1.95257734954669e-001

2.78948733270080e+004,-6.93473817170443e+000,-1.97982142428589e-001

2.82842712474618e+004,-6.93474069559147e+000,-2.00744526844487e-001

2.86791049603164e+004,-6.93474328961064e+000,-2.03545416058468e-001

2.90794503464061e+004,-6.93474595568736e+000,-2.06385345197737e-001

2.94853843458219e+004,-6.93474869579796e+000,-2.09264856763966e-001

2.98969849726987e+004,-6.93475151197192e+000,-2.12184500726792e-001

3.03143313302078e+004,-6.93475440629285e+000,-2.15144834625913e-001

3.07375036257601e+004,-6.93475738089948e+000,-2.18146423674349e-001

3.11665831864199e+004,-6.93476043798775e+000,-2.21189840856995e-001

3.16016524745350e+004,-6.93476357981193e+000,-2.24275667035832e-001

3.20427951035848e+004,-6.93476680868583e+000,-2.27404491057285e-001

3.24900958542493e+004,-6.93477012698456e+000,-2.30576909855169e-001

3.29436406907028e+004,-6.93477353714591e+000,-2.33793528561092e-001

3.34035167771346e+004,-6.93477704167198e+000,-2.37054960610634e-001

3.38698124945009e+004,-6.93478064313056e+000,-2.40361827856662e-001

3.43426174575100e+004,-6.93478434415701e+000,-2.43714760677684e-001

3.48220225318448e+004,-6.93478814745577e+000,-2.47114398091532e-001

3.53081198516260e+004,-6.93479205580166e+000,-2.50561387872556e-001

3.58010028371187e+004,-6.93479607204254e+000,-2.54056386660400e-001

3.63007662126863e+004,-6.93480019909971e+000,-2.57600060085391e-001

3.68075060249948e+004,-6.93480443997066e+000,-2.61193082879982e-001

3.73213196614721e+004,-6.93480879773085e+000,-2.64836138999163e-001

3.78423058690237e+004,-6.93481327553462e+000,-2.68529921746446e-001

3.83705647730104e+004,-6.93481787661809e+000,-2.72275133889952e-001

3.89061978964912e+004,-6.93482260430059e+000,-2.76072487788577e-001

3.94493081797342e+004,-6.93482746198625e+000,-2.79922705519725e-001

3.99999999999998e+004,-6.93483245316680e+000,-2.83826518999495e-001

4.05583791916010e+004,-6.93483758142236e+000,-2.87784670119186e-001

4.11245530662425e+004,-6.93484285042465e+000,-2.91797910866607e-001

4.16986304336447e+004,-6.93484826393824e+000,-2.95867003461009e-001

4.22807216224550e+004,-6.93485382582297e+000,-2.99992720484764e-001

4.28709385014515e+004,-6.93485954003576e+000,-3.04175845016699e-001

4.34693945010421e+004,-6.93486541063280e+000,-3.08417170769098e-001

4.40762046350642e+004,-6.93487144177204e+000,-3.12717502220327e-001

4.46914855228886e+004,-6.93487763771496e+000,-3.17077654756122e-001

4.53153554118317e+004,-6.93488400282867e+000,-3.21498454809759e-001

4.59479341998812e+004,-6.93489054158862e+000,-3.25980739999695e-001

4.65893434587380e+004,-6.93489725858062e+000,-3.30525359274183e-001

4.72397064571810e+004,-6.93490415850259e+000,-3.35133173057645e-001

4.78991481847569e+004,-6.93491124616766e+000,-3.39805053391318e-001

4.85677953758016e+004,-6.93491852650591e+000,-3.44541884083983e-001

4.92457765337964e+004,-6.93492600456689e+000,-3.49344560859055e-001

4.99332219560642e+004,-6.93493368552187e+000,-3.54213991504674e-001

5.06302637588109e+004,-6.93494157466623e+000,-3.59151096025823e-001

5.13370359025159e+004,-6.93494967742164e+000,-3.64156806797598e-001

5.20536742176771e+004,-6.93495799933858e+000,-3.69232068719279e-001

5.27803164309155e+004,-6.93496654609872e+000,-3.74377839369929e-001

5.35171021914442e+004,-6.93497532351688e+000,-3.79595089168411e-001

5.42641730979066e+004,-6.93498433754399e+000,-3.84884801529874e-001

5.50216727255895e+004,-6.93499359426891e+000,-3.90247973027949e-001

5.57897466540159e+004,-6.93500309992101e+000,-3.95685613557259e-001

5.65685424949235e+004,-6.93501286087223e+000,-4.01198746497962e-001

5.73582099206328e+004,-6.93502288363992e+000,-4.06788408877697e-001

5.81589006928121e+004,-6.93503317488834e+000,-4.12455651544315e-001

5.89707686916437e+004,-6.93504374143151e+000,-4.18201539329019e-001

5.97939699453972e+004,-6.93505459023510e+000,-4.24027151220581e-001

6.06286626604156e+004,-6.93506572841874e+000,-4.29933580534067e-001

6.14750072515201e+004,-6.93507716325818e+000,-4.35921935085783e-001

6.23331663728396e+004,-6.93508890218711e+000,-4.41993337368325e-001

6.32033049490698e+004,-6.93510095279931e+000,-4.48148924726804e-001

6.40855902071694e+004,-6.93511332285072e+000,-4.54389849536308e-001

6.49801917084985e+004,-6.93512602026122e+000,-4.60717279381786e-001

6.58872813814055e+004,-6.93513905311647e+000,-4.67132397239312e-001

6.68070335542691e+004,-6.93515242966940e+000,-4.73636401660279e-001

6.77396249890018e+004,-6.93516615834195e+000,-4.80230506955252e-001

6.86852349150199e+004,-6.93518024772686e+000,-4.86915943378118e-001

6.96440450636895e+004,-6.93519470658867e+000,-4.93693957316944e-001

7.06162397032520e+004,-6.93520954386499e+000,-5.00565811482340e-001

7.16020056742374e+004,-6.93522476866797e+000,-5.07532785097777e-001

7.26015324253724e+004,-6.93524039028494e+000,-5.14596174093904e-001

7.36150120499896e+004,-6.93525641817946e+000,-5.21757291301181e-001

7.46426393229441e+004,-6.93527286199163e+000,-5.29017466650203e-001

7.56846117380472e+004,-6.93528973153923e+000,-5.36378047363345e-001

7.67411295460207e+004,-6.93530703681717e+000,-5.43840398160838e-001

7.78123957929823e+004,-6.93532478799810e+000,-5.51405901459492e-001

7.88986163594682e+004,-6.93534299543212e+000,-5.59075957576014e-001

7.99999999999995e+004,-6.93536166964640e+000,-5.66851984932355e-001

8.11167583832018e+004,-6.93538082134436e+000,-5.74735420264648e-001

8.22491061324848e+004,-6.93540046140485e+000,-5.82727718831024e-001

8.33972608672892e+004,-6.93542060088104e+000,-5.90830354622178e-001

8.45614432449099e+004,-6.93544125099873e+000,-5.99044820576324e-001

8.57418770029029e+004,-6.93546242315453e+000,-6.07372628792907e-001

8.69387890020841e+004,-6.93548412891371e+000,-6.15815310751220e-001

8.81524092701283e+004,-6.93550638000767e+000,-6.24374417528787e-001

8.93829710457770e+004,-6.93552918833083e+000,-6.33051520024785e-001

9.06307108236633e+004,-6.93555256593749e+000,-6.41848209182835e-001

9.18958683997622e+004,-6.93557652503813e+000,-6.50766096217358e-001

9.31786869174758e+004,-6.93560107799458e+000,-6.59806812846290e-001

9.44794129143618e+004,-6.93562623731619e+000,-6.68972011517603e-001

9.57982963695136e+004,-6.93565201565409e+000,-6.78263365646806e-001

9.71355907516031e+004,-6.93567842579545e+000,-6.87682569855721e-001

9.84915530675926e+004,-6.93570548065771e+000,-6.97231340207571e-001

9.98664439121282e+004,-6.93573319328113e+000,-7.06911414455701e-001

1.01260527517622e+005,-6.93576157682182e+000,-7.16724552287106e-001

1.02674071805032e+005,-6.93579064454371e+000,-7.26672535571513e-001

1.04107348435354e+005,-6.93582040980947e+000,-7.36757168617359e-001

1.05560632861831e+005,-6.93585088607164e+000,-7.46980278426045e-001

1.07034204382888e+005,-6.93588208686228e+000,-7.57343714953726e-001

1.08528346195813e+005,-6.93591402578221e+000,-7.67849351376459e-001

1.10043345451179e+005,-6.93594671648969e+000,-7.78499084358038e-001

1.11579493308032e+005,-6.93598017268776e+000,-7.89294834323829e-001

1.13137084989847e+005,-6.93601440811138e+000,-8.00238545739146e-001

1.14716419841265e+005,-6.93604943651344e+000,-8.11332187390803e-001

1.16317801385624e+005,-6.93608527164975e+000,-8.22577752677003e-001

1.17941537383287e+005,-6.93612192726340e+000,-8.33977259899322e-001

1.19587939890794e+005,-6.93615941706823e+000,-8.45532752561887e-001

1.21257325320831e+005,-6.93619775473112e+000,-8.57246299676539e-001

1.22950014503040e+005,-6.93623695385349e+000,-8.69119996074693e-001

1.24666332745679e+005,-6.93627702795146e+000,-8.81155962725650e-001

1.26406609898139e+005,-6.93631799043582e+000,-8.93356347059500e-001

1.28171180414339e+005,-6.93635985458975e+000,-9.05723323302225e-001

1.29960383416997e+005,-6.93640263354673e+000,-9.18259092812987e-001

1.31774562762811e+005,-6.93644634026629e+000,-9.30965884434893e-001

1.33614067108538e+005,-6.93649098750950e+000,-9.43845954848830e-001

1.35479249978003e+005,-6.93653658781252e+000,-9.56901588942023e-001

1.37370469830040e+005,-6.93658315345997e+000,-9.70135100180841e-001

1.39288090127379e+005,-6.93663069645638e+000,-9.83548830995312e-001

1.41232479406504e+005,-6.93667922849653e+000,-9.97145153177288e-001

1.43204011348474e+005,-6.93672876093522e+000,-1.01092646828335e+000

1.45203064850745e+005,-6.93677930475526e+000,-1.02489520805328e+000

1.47230024099979e+005,-6.93683087053446e+000,-1.03905383484015e+000

1.49285278645888e+005,-6.93688346841157e+000,-1.05340484205108e+000

1.51369223476094e+005,-6.93693710805108e+000,-1.06795075460099e+000

1.53482259092041e+005,-6.93699179860647e+000,-1.08269412938309e+000

1.55624791585964e+005,-6.93704754868286e+000,-1.09763755574911e+000

1.57797232718936e+005,-6.93710436629803e+000,-1.11278365600741e+000

1.59999999999999e+005,-6.93716225884271e+000,-1.12813508593443e+000

1.62233516766403e+005,-6.93722123303952e+000,-1.14369453530417e+000

1.64498212264969e+005,-6.93728129490093e+000,-1.15946472843180e+000

1.66794521734578e+005,-6.93734244968638e+000,-1.17544842473616e+000

1.69122886489819e+005,-6.93740470185826e+000,-1.19164841931823e+000

1.71483754005805e+005,-6.93746805503681e+000,-1.20806754356066e+000

1.73877578004168e+005,-6.93753251195426e+000,-1.22470866574466e+000

1.76304818540256e+005,-6.93759807440853e+000,-1.24157469168472e+000

1.78765942091554e+005,-6.93766474321539e+000,-1.25866856538813e+000

1.81261421647326e+005,-6.93773251816063e+000,-1.27599326973051e+000

1.83791736799524e+005,-6.93780139795115e+000,-1.29355182715597e+000

1.86357373834951e+005,-6.93787138016603e+000,-1.31134730039646e+000

1.88958825828723e+005,-6.93794246120634e+000,-1.32938279321798e+000

1.91596592739027e+005,-6.93801463624544e+000,-1.34766145118430e+000

1.94271181503206e+005,-6.93808789917864e+000,-1.36618646244785e+000

1.96983106135185e+005,-6.93816224257236e+000,-1.38496105856555e+000

1.99732887824256e+005,-6.93823765761426e+000,-1.40398851533313e+000

2.02521055035243e+005,-6.93831413406214e+000,-1.42327215365237e+000

2.05348143610063e+005,-6.93839166019409e+000,-1.44281534041723e+000

2.08214696870707e+005,-6.93847022275853e+000,-1.46262148942797e+000

2.11121265723661e+005,-6.93854980692468e+000,-1.48269406233085e+000

2.14068408765776e+005,-6.93863039623372e+000,-1.50303656958374e+000

2.17056692391625e+005,-6.93871197255047e+000,-1.52365257144902e+000

2.20086690902357e+005,-6.93879451601656e+000,-1.54454567900836e+000

2.23158986616063e+005,-6.93887800500369e+000,-1.56571955521006e+000

2.26274169979693e+005,-6.93896241606893e+000,-1.58717791593799e+000

2.29432839682530e+005,-6.93904772391058e+000,-1.60892453110860e+000

2.32635602771247e+005,-6.93913390132632e+000,-1.63096322579265e+000

2.35883074766574e+005,-6.93922091917204e+000,-1.65329788136533e+000

2.39175879781588e+005,-6.93930874632325e+000,-1.67593243667858e+000

2.42514650641661e+005,-6.93939734963798e+000,-1.69887088926051e+000

2.45900029006080e+005,-6.93948669392161e+000,-1.72211729654003e+000

2.49332665491357e+005,-6.93957674189451e+000,-1.74567577709275e+000

2.52813219796278e+005,-6.93966745416131e+000,-1.76955051191385e+000

2.56342360828676e+005,-6.93975878918296e+000,-1.79374574571203e+000

2.59920766833993e+005,-6.93985070325152e+000,-1.81826578822481e+000

2.63549125525621e+005,-6.93994315046744e+000,-1.84311501555700e+000

2.67228134217075e+005,-6.94003608271953e+000,-1.86829787153917e+000

2.70958499956006e+005,-6.94012944966845e+000,-1.89381886910304e+000

2.74740939660078e+005,-6.94022319873237e+000,-1.91968259168014e+000

2.78576180254757e+005,-6.94031727507659e+000,-1.94589369461137e+000

2.82464958813007e+005,-6.94041162160552e+000,-1.97245690657947e+000

2.86408022696948e+005,-6.94050617895860e+000,-1.99937703105065e+000

2.90406129701488e+005,-6.94060088550872e+000,-2.02665894773493e+000

2.94460048199957e+005,-6.94069567736473e+000,-2.05430761405405e+000

2.98570557291775e+005,-6.94079048837659e+000,-2.08232806662421e+000

3.02738446952187e+005,-6.94088525014398e+000,-2.11072542274747e+000

3.06964518184081e+005,-6.94097989202852e+000,-2.13950488191007e+000

3.11249583171928e+005,-6.94107434116859e+000,-2.16867172729062e+000

3.15594465437872e+005,-6.94116852249787e+000,-2.19823132727049e+000

3.19999999999997e+005,-6.94126235876665e+000,-2.22818913695215e+000

3.24467033532806e+005,-6.94135577056615e+000,-2.25855069967765e+000

3.28996424529938e+005,-6.94144867635595e+000,-2.28932164854972e+000

3.33589043469155e+005,-6.94154099249386e+000,-2.32050770795319e+000

3.38245772979638e+005,-6.94163263326863e+000,-2.35211469507551e+000

3.42967508011610e+005,-6.94172351093506e+000,-2.38414852142494e+000

3.47755156008335e+005,-6.94181353575114e+000,-2.41661519434597e+000

3.52609637080511e+005,-6.94190261601757e+000,-2.44952081852990e+000

3.57531884183106e+005,-6.94199065811925e+000,-2.48287159751869e+000

3.62522843294651e+005,-6.94207756656759e+000,-2.51667383520729e+000

3.67583473599047e+005,-6.94216324404523e+000,-2.55093393733310e+000

3.72714747669902e+005,-6.94224759145118e+000,-2.58565841296165e+000

3.77917651657445e+005,-6.94233050794727e+000,-2.62085387596230e+000

3.83193185478053e+005,-6.94241189100455e+000,-2.65652704647713e+000

3.88542363006410e+005,-6.94249163645095e+000,-2.69268475237741e+000

3.93966212270369e+005,-6.94256963851801e+000,-2.72933393071398e+000

3.99465775648511e+005,-6.94264578988780e+000,-2.76648162915689e+000

4.05042110070485e+005,-6.94271998173917e+000,-2.80413500742567e+000

4.10696287220124e+005,-6.94279210379317e+000,-2.84230133871022e+000

4.16429393741414e+005,-6.94286204435686e+000,-2.88098801108434e+000

4.22242531447321e+005,-6.94292969036628e+000,-2.92020252890809e+000

4.28136817531551e+005,-6.94299492742679e+000,-2.95995251422596e+000

4.34113384783250e+005,-6.94305763985191e+000,-3.00024570815453e+000

4.40173381804713e+005,-6.94311771069932e+000,-3.04108997226681e+000

4.46317973232124e+005,-6.94317502180437e+000,-3.08249328996875e+000

4.52548339959385e+005,-6.94322945381042e+000,-3.12446376787391e+000

4.58865679365059e+005,-6.94328088619577e+000,-3.16700963717421e+000

4.65271205542494e+005,-6.94332919729721e+000,-3.21013925500905e+000

4.71766149533147e+005,-6.94337426432982e+000,-3.25386110583448e+000

4.78351759563174e+005,-6.94341596340216e+000,-3.29818380279470e+000

4.85029301283321e+005,-6.94345416952775e+000,-3.34311608909580e+000

4.91800058012158e+005,-6.94348875663157e+000,-3.38866683938462e+000

4.98665330982714e+005,-6.94351959755202e+000,-3.43484506113472e+000

5.05626439592555e+005,-6.94354656403788e+000,-3.48165989604051e+000

5.12684721657352e+005,-6.94356952674004e+000,-3.52912062142259e+000

5.19841533667984e+005,-6.94358835519813e+000,-3.57723665164519e+000

5.27098251051240e+005,-6.94360291782155e+000,-3.62601753954882e+000

5.34456268434150e+005,-6.94361308186515e+000,-3.67547297789797e+000

5.41916999912011e+005,-6.94361871339875e+000,-3.72561280085149e+000

