Freq.,VOut,OutRef

1.00000000000000e+004,-2.29014598650094e+001,-1.26202242275122e-001

1.01395947979003e+004,-2.29014620015006e+001,-1.27963623331523e-001

1.02811382665607e+004,-2.29014641979829e+001,-1.29749578069107e-001

1.04246576084112e+004,-2.29014664561382e+001,-1.31560448919612e-001

1.05701804056138e+004,-2.29014687776960e+001,-1.33396583067268e-001

1.07177346253629e+004,-2.29014711644343e+001,-1.35258332515862e-001

1.08673486252606e+004,-2.29014736181803e+001,-1.37146054157568e-001

1.10190511587661e+004,-2.29014761408126e+001,-1.39060109835229e-001

1.11728713807222e+004,-2.29014787342624e+001,-1.41000866412297e-001

1.13288388529580e+004,-2.29014814005148e+001,-1.42968695843481e-001

1.14869835499703e+004,-2.29014841416101e+001,-1.44963975242711e-001

1.16473358646846e+004,-2.29014869596462e+001,-1.46987086952126e-001

1.18099266142953e+004,-2.29014898567789e+001,-1.49038418617723e-001

1.19747870461893e+004,-2.29014928352248e+001,-1.51118363258427e-001

1.21419488439505e+004,-2.29014958972619e+001,-1.53227319341399e-001

1.23114441334492e+004,-2.29014990452324e+001,-1.55365690854373e-001

1.24833054890161e+004,-2.29015022815432e+001,-1.57533887384305e-001

1.26575659397028e+004,-2.29015056086691e+001,-1.59732324189242e-001

1.28342589756290e+004,-2.29015090291533e+001,-1.61961422281367e-001

1.30134185544193e+004,-2.29015125456102e+001,-1.64221608500522e-001

1.31950791077289e+004,-2.29015161607273e+001,-1.66513315594610e-001

1.33792755478611e+004,-2.29015198772667e+001,-1.68836982302595e-001

1.35660432744767e+004,-2.29015236980678e+001,-1.71193053432550e-001

1.37554181813974e+004,-2.29015276260491e+001,-1.73581979945121e-001

1.39474366635040e+004,-2.29015316642101e+001,-1.76004219039824e-001

1.41421356237309e+004,-2.29015358156343e+001,-1.78460234234721e-001

1.43395524801583e+004,-2.29015400834909e+001,-1.80950495455553e-001

1.45397251732031e+004,-2.29015444710371e+001,-1.83475479123434e-001

1.47426921729110e+004,-2.29015489816213e+001,-1.86035668236280e-001

1.49484924863494e+004,-2.29015536186844e+001,-1.88631552467897e-001

1.51571656651040e+004,-2.29015583857637e+001,-1.91263628248806e-001

1.53687518128801e+004,-2.29015632864945e+001,-1.93932398861759e-001

1.55832915932100e+004,-2.29015683246130e+001,-1.96638374535236e-001

1.58008262372675e+004,-2.29015735039599e+001,-1.99382072532073e-001

1.60213975517924e+004,-2.29015788284818e+001,-2.02164017250744e-001

1.62450479271247e+004,-2.29015843022356e+001,-2.04984740315114e-001

1.64718203453514e+004,-2.29015899293905e+001,-2.07844780674968e-001

1.67017583885674e+004,-2.29015957142315e+001,-2.10744684703799e-001

1.69349062472505e+004,-2.29016016611624e+001,-2.13685006296939e-001

1.71713087287550e+004,-2.29016077747092e+001,-2.16666306973764e-001

1.74110112659224e+004,-2.29016140595236e+001,-2.19689155977143e-001

1.76540599258131e+004,-2.29016205203860e+001,-2.22754130379114e-001

1.79005014185594e+004,-2.29016271622091e+001,-2.25861815185963e-001

1.81503831063432e+004,-2.29016339900420e+001,-2.29012803438489e-001

1.84037530124975e+004,-2.29016410090733e+001,-2.32207696325231e-001

1.86606598307361e+004,-2.29016482246352e+001,-2.35447103287427e-001

1.89211529345119e+004,-2.29016556422075e+001,-2.38731642126046e-001

1.91852823865052e+004,-2.29016632674213e+001,-2.42061939118130e-001

1.94530989482457e+004,-2.29016711060633e+001,-2.45438629125364e-001

1.97246540898671e+004,-2.29016791640802e+001,-2.48862355705244e-001

1.99999999999999e+004,-2.29016874475826e+001,-2.52333771229524e-001

2.02791895958005e+004,-2.29016959628499e+001,-2.55853536999667e-001

2.05622765331213e+004,-2.29017047163343e+001,-2.59422323362158e-001

2.08493152168224e+004,-2.29017137146662e+001,-2.63040809826226e-001

2.11403608112276e+004,-2.29017229646583e+001,-2.66709685187923e-001

2.14354692507258e+004,-2.29017324733111e+001,-2.70429647646575e-001

2.17346972505211e+004,-2.29017422478173e+001,-2.74201404931127e-001

2.20381023175322e+004,-2.29017522955676e+001,-2.78025674421856e-001

2.23457427614443e+004,-2.29017626241560e+001,-2.81903183274729e-001

2.26576777059159e+004,-2.29017732413843e+001,-2.85834668551900e-001

2.29739670999406e+004,-2.29017841552692e+001,-2.89820877343839e-001

2.32946717293690e+004,-2.29017953740463e+001,-2.93862566906816e-001

2.36198532285905e+004,-2.29018069061777e+001,-2.97960504783503e-001

2.39495740923785e+004,-2.29018187603567e+001,-3.02115468943569e-001

2.42838976879009e+004,-2.29018309455146e+001,-3.06328247913305e-001

2.46228882668982e+004,-2.29018434708266e+001,-3.10599640910639e-001

2.49666109780322e+004,-2.29018563457190e+001,-3.14930457981710e-001

2.53151318794055e+004,-2.29018695798748e+001,-3.19321520138562e-001

2.56685179512580e+004,-2.29018831832416e+001,-3.23773659497197e-001

2.60268371088386e+004,-2.29018971660375e+001,-3.28287719419712e-001

2.63901582154578e+004,-2.29019115387591e+001,-3.32864554653903e-001

2.67585510957221e+004,-2.29019263121884e+001,-3.37505031477132e-001

2.71320865489533e+004,-2.29019414974002e+001,-3.42210027840203e-001

2.75108363627948e+004,-2.29019571057702e+001,-3.46980433513785e-001

2.78948733270080e+004,-2.29019731489824e+001,-3.51817150234819e-001

2.82842712474618e+004,-2.29019896390370e+001,-3.56721091856163e-001

2.86791049603164e+004,-2.29020065882592e+001,-3.61693184494194e-001

2.90794503464061e+004,-2.29020240093076e+001,-3.66734366679893e-001

2.94853843458219e+004,-2.29020419151822e+001,-3.71845589513058e-001

2.98969849726987e+004,-2.29020603192334e+001,-3.77027816815143e-001

3.03143313302078e+004,-2.29020792351717e+001,-3.82282025282804e-001

3.07375036257601e+004,-2.29020986770761e+001,-3.87609204644420e-001

3.11665831864199e+004,-2.29021186594039e+001,-3.93010357818381e-001

3.16016524745350e+004,-2.29021391970003e+001,-3.98486501070973e-001

3.20427951035848e+004,-2.29021603051086e+001,-4.04038664175379e-001

3.24900958542493e+004,-2.29021819993794e+001,-4.09667890574148e-001

3.29436406907028e+004,-2.29022042958819e+001,-4.15375237539518e-001

3.34035167771346e+004,-2.29022272111141e+001,-4.21161776336732e-001

3.38698124945009e+004,-2.29022507620132e+001,-4.27028592390788e-001

3.43426174575100e+004,-2.29022749659672e+001,-4.32976785447939e-001

3.48220225318448e+004,-2.29022998408258e+001,-4.39007469744022e-001

3.53081198516260e+004,-2.29023254049116e+001,-4.45121774172811e-001

3.58010028371187e+004,-2.29023516770326e+001,-4.51320842453065e-001

3.63007662126863e+004,-2.29023786764935e+001,-4.57605833296056e-001

3.68075060249948e+004,-2.29024064231081e+001,-4.63977920580018e-001

3.73213196614721e+004,-2.29024349372117e+001,-4.70438293518004e-001

3.78423058690237e+004,-2.29024642396741e+001,-4.76988156829237e-001

3.83705647730104e+004,-2.29024943519121e+001,-4.83628730915124e-001

3.89061978964912e+004,-2.29025252959030e+001,-4.90361252027923e-001

3.94493081797342e+004,-2.29025570941978e+001,-4.97186972450408e-001

3.99999999999998e+004,-2.29025897699354e+001,-5.04107160664252e-001

4.05583791916010e+004,-2.29026233468558e+001,-5.11123101531449e-001

4.11245530662425e+004,-2.29026578493153e+001,-5.18236096464194e-001

4.16986304336447e+004,-2.29026933022998e+001,-5.25447463605644e-001

4.22807216224550e+004,-2.29027297314406e+001,-5.32758538003506e-001

4.28709385014515e+004,-2.29027671630287e+001,-5.40170671789935e-001

4.34693945010421e+004,-2.29028056240303e+001,-5.47685234355310e-001

4.40762046350642e+004,-2.29028451421022e+001,-5.55303612527559e-001

4.46914855228886e+004,-2.29028857456076e+001,-5.63027210750230e-001

4.53153554118317e+004,-2.29029274636319e+001,-5.70857451257861e-001

4.59479341998812e+004,-2.29029703259991e+001,-5.78795774255754e-001

4.65893434587380e+004,-2.29030143632883e+001,-5.86843638095296e-001

4.72397064571810e+004,-2.29030596068499e+001,-5.95002519454080e-001

4.78991481847569e+004,-2.29031060888232e+001,-6.03273913509745e-001

4.85677953758016e+004,-2.29031538421530e+001,-6.11659334117613e-001

4.92457765337964e+004,-2.29032029006073e+001,-6.20160313987453e-001

4.99332219560642e+004,-2.29032532987945e+001,-6.28778404859112e-001

5.06302637588109e+004,-2.29033050721815e+001,-6.37515177676276e-001

5.13370359025159e+004,-2.29033582571115e+001,-6.46372222760871e-001

5.20536742176771e+004,-2.29034128908221e+001,-6.55351149987519e-001

5.27803164309155e+004,-2.29034690114636e+001,-6.64453588954710e-001

5.35171021914442e+004,-2.29035266581175e+001,-6.73681189156792e-001

5.42641730979066e+004,-2.29035858708152e+001,-6.83035620153739e-001

5.50216727255895e+004,-2.29036466905565e+001,-6.92518571739598e-001

5.57897466540159e+004,-2.29037091593286e+001,-7.02131754111042e-001

5.65685424949235e+004,-2.29037733201252e+001,-7.11876898031994e-001

5.73582099206328e+004,-2.29038392169650e+001,-7.21755754999610e-001

5.81589006928121e+004,-2.29039068949114e+001,-7.31770097404524e-001

5.89707686916437e+004,-2.29039764000915e+001,-7.41921718693945e-001

5.97939699453972e+004,-2.29040477797150e+001,-7.52212433528516e-001

6.06286626604156e+004,-2.29041210820935e+001,-7.62644077939164e-001

6.14750072515201e+004,-2.29041963566594e+001,-7.73218509483940e-001

6.23331663728396e+004,-2.29042736539858e+001,-7.83937607395534e-001

6.32033049490698e+004,-2.29043530258040e+001,-7.94803272735542e-001

6.40855902071694e+004,-2.29044345250241e+001,-8.05817428536993e-001

6.49801917084985e+004,-2.29045182057521e+001,-8.16982019953230e-001

6.58872813814055e+004,-2.29046041233093e+001,-8.28299014395227e-001

6.68070335542691e+004,-2.29046923342508e+001,-8.39770401671895e-001

6.77396249890018e+004,-2.29047828963827e+001,-8.51398194125905e-001

6.86852349150199e+004,-2.29048758687806e+001,-8.63184426764119e-001

6.96440450636895e+004,-2.29049713118065e+001,-8.75131157389154e-001

7.06162397032520e+004,-2.29050692871262e+001,-8.87240466722833e-001

7.16020056742374e+004,-2.29051698577254e+001,-8.99514458528341e-001

7.26015324253724e+004,-2.29052730879261e+001,-9.11955259730067e-001

7.36150120499896e+004,-2.29053790434022e+001,-9.24565020527211e-001

7.46426393229441e+004,-2.29054877911939e+001,-9.37345914505822e-001

7.56846117380472e+004,-2.29055993997225e+001,-9.50300138745990e-001

7.67411295460207e+004,-2.29057139388034e+001,-9.63429913924185e-001

7.78123957929823e+004,-2.29058314796595e+001,-9.76737484414933e-001

7.88986163594682e+004,-2.29059520949324e+001,-9.90225118384027e-001

7.99999999999995e+004,-2.29060758586939e+001,-1.00389510788287e+000

8.11167583832018e+004,-2.29062028464553e+001,-1.01774976893398e+000

8.22491061324848e+004,-2.29063331351771e+001,-1.03179144161685e+000

8.33972608672892e+004,-2.29064668032757e+001,-1.04602249014621e+000

8.45614432449099e+004,-2.29066039306310e+001,-1.06044530294876e+000

8.57418770029029e+004,-2.29067445985904e+001,-1.07506229273605e+000

8.69387890020841e+004,-2.29068888899732e+001,-1.08987589657181e+000

8.81524092701283e+004,-2.29070368890727e+001,-1.10488857593857e+000

8.93829710457770e+004,-2.29071886816566e+001,-1.12010281679787e+000

9.06307108236633e+004,-2.29073443549658e+001,-1.13552112964933e+000

9.18958683997622e+004,-2.29075039977118e+001,-1.15114604958514e+000

9.31786869174758e+004,-2.29076677000717e+001,-1.16698013634396e+000

9.44794129143618e+004,-2.29078355536808e+001,-1.18302597435949e+000

9.57982963695136e+004,-2.29080076516246e+001,-1.19928617280789e+000

9.71355907516031e+004,-2.29081840884265e+001,-1.21576336565483e+000

9.84915530675926e+004,-2.29083649600349e+001,-1.23246021169820e+000

9.98664439121282e+004,-2.29085503638066e+001,-1.24937939461245e+000

1.01260527517622e+005,-2.29087403984881e+001,-1.26652362298979e+000

1.02674071805032e+005,-2.29089351641945e+001,-1.28389563038314e+000

1.04107348435354e+005,-2.29091347623849e+001,-1.30149817534872e+000

1.05560632861831e+005,-2.29093392958350e+001,-1.31933404149023e+000

1.07034204382888e+005,-2.29095488686070e+001,-1.33740603750369e+000

1.08528346195813e+005,-2.29097635860155e+001,-1.35571699722627e+000

1.10043345451179e+005,-2.29099835545910e+001,-1.37426977968737e+000

1.11579493308032e+005,-2.29102088820392e+001,-1.39306726916395e+000

1.13137084989847e+005,-2.29104396771964e+001,-1.41211237524199e+000

1.14716419841265e+005,-2.29106760499827e+001,-1.43140803288190e+000

1.16317801385624e+005,-2.29109181113491e+001,-1.45095720249412e+000

1.17941537383287e+005,-2.29111659732225e+001,-1.47076287002007e+000

1.19587939890794e+005,-2.29114197484455e+001,-1.49082804702399e+000

1.21257325320831e+005,-2.29116795507124e+001,-1.51115577079636e+000

1.22950014503040e+005,-2.29119454945010e+001,-1.53174910446802e+000

1.24666332745679e+005,-2.29122176949991e+001,-1.55261113713834e+000

1.26406609898139e+005,-2.29124962680278e+001,-1.57374498401966e+000

1.28171180414339e+005,-2.29127813299587e+001,-1.59515378659656e+000

1.29960383416997e+005,-2.29130729976276e+001,-1.61684071280533e+000

1.31774562762811e+005,-2.29133713882424e+001,-1.63880895723381e+000

1.33614067108538e+005,-2.29136766192867e+001,-1.66106174134142e+000

1.35479249978003e+005,-2.29139888084182e+001,-1.68360231370553e+000

1.37370469830040e+005,-2.29143080733625e+001,-1.70643395029195e+000

1.39288090127379e+005,-2.29146345318009e+001,-1.72955995475664e+000

1.41232479406504e+005,-2.29149683012544e+001,-1.75298365877475e+000

1.43204011348474e+005,-2.29153094989614e+001,-1.77670842240373e+000

1.45203064850745e+005,-2.29156582417514e+001,-1.80073763448209e+000

1.47230024099979e+005,-2.29160146459127e+001,-1.82507471306557e+000

1.49285278645888e+005,-2.29163788270560e+001,-1.84972310590246e+000

1.51369223476094e+005,-2.29167508999723e+001,-1.87468629095241e+000

1.53482259092041e+005,-2.29171309784868e+001,-1.89996777695036e+000

1.55624791585964e+005,-2.29175191753064e+001,-1.92557110401949e+000

1.57797232718936e+005,-2.29179156018653e+001,-1.95149984433138e+000

1.59999999999999e+005,-2.29183203681632e+001,-1.97775760282494e+000

1.62233516766403e+005,-2.29187335826011e+001,-2.00434801797737e+000

1.64498212264969e+005,-2.29191553518127e+001,-2.03127476263558e+000

1.66794521734578e+005,-2.29195857804914e+001,-2.05854154491087e+000

1.69122886489819e+005,-2.29200249712143e+001,-2.08615210913657e+000

1.71483754005805e+005,-2.29204730242626e+001,-2.11411023689398e+000

1.73877578004168e+005,-2.29209300374391e+001,-2.14241974811041e+000

1.76304818540256e+005,-2.29213961058835e+001,-2.17108450222672e+000

1.78765942091554e+005,-2.29218713218846e+001,-2.20010839944555e+000

1.81261421647326e+005,-2.29223557746917e+001,-2.22949538205502e+000

1.83791736799524e+005,-2.29228495503242e+001,-2.25924943583405e+000

1.86357373834951e+005,-2.29233527313802e+001,-2.28937459154314e+000

1.88958825828723e+005,-2.29238653968455e+001,-2.31987492649887e+000

1.91596592739027e+005,-2.29243876219016e+001,-2.35075456623977e+000

1.94271181503206e+005,-2.29249194777361e+001,-2.38201768627893e+000

1.96983106135185e+005,-2.29254610313533e+001,-2.41366851395256e+000

1.99732887824256e+005,-2.29260123453875e+001,-2.44571133036066e+000

2.02521055035243e+005,-2.29265734779190e+001,-2.47815047240378e+000

2.05348143610063e+005,-2.29271444822939e+001,-2.51099033491647e+000

2.08214696870707e+005,-2.29277254069475e+001,-2.54423537289972e+000

2.11121265723661e+005,-2.29283162952333e+001,-2.57789010385141e+000

2.14068408765776e+005,-2.29289171852581e+001,-2.61195911019557e+000

2.17056692391625e+005,-2.29295281097226e+001,-2.64644704181217e+000

2.20086690902357e+005,-2.29301490957709e+001,-2.68135861866604e+000

2.23158986616063e+005,-2.29307801648474e+001,-2.71669863353382e+000

2.26274169979693e+005,-2.29314213325633e+001,-2.75247195483061e+000

2.29432839682530e+005,-2.29320726085731e+001,-2.78868352953137e+000

2.32635602771247e+005,-2.29327339964620e+001,-2.82533838619005e+000

2.35883074766574e+005,-2.29334054936454e+001,-2.86244163804992e+000

2.39175879781588e+005,-2.29340870912809e+001,-2.89999848624633e+000

2.42514650641661e+005,-2.29347787741939e+001,-2.93801422309738e+000

2.45900029006080e+005,-2.29354805208181e+001,-2.97649423547864e+000

2.49332665491357e+005,-2.29361923031504e+001,-3.01544400828182e+000

2.52813219796278e+005,-2.29369140867231e+001,-3.05486912794737e+000

2.56342360828676e+005,-2.29376458305924e+001,-3.09477528607282e+000

2.59920766833993e+005,-2.29383874873444e+001,-3.13516828308807e+000

2.63549125525621e+005,-2.29391390031202e+001,-3.17605403199349e+000

2.67228134217075e+005,-2.29399003176597e+001,-3.21743856215576e+000

2.70958499956006e+005,-2.29406713643652e+001,-3.25932802315341e+000

2.74740939660078e+005,-2.29414520703855e+001,-3.30172868867012e+000

2.78576180254757e+005,-2.29422423567207e+001,-3.34464696042167e+000

2.82464958813007e+005,-2.29430421383487e+001,-3.38808937211782e+000

2.86408022696948e+005,-2.29438513243731e+001,-3.43206259344533e+000

2.90406129701488e+005,-2.29446698181932e+001,-3.47657343406833e+000

2.94460048199957e+005,-2.29454975176970e+001,-3.52162884763523e+000

2.98570557291775e+005,-2.29463343154755e+001,-3.56723593578756e+000

3.02738446952187e+005,-2.29471800990607e+001,-3.61340195215970e+000

3.06964518184081e+005,-2.29480347511859e+001,-3.66013430636233e+000

3.11249583171928e+005,-2.29488981500679e+001,-3.70744056794097e+000

3.15594465437872e+005,-2.29497701697128e+001,-3.75532847030154e+000

3.19999999999997e+005,-2.29506506802427e+001,-3.80380591459472e+000

3.24467033532806e+005,-2.29515395482447e+001,-3.85288097355031e+000

3.28996424529938e+005,-2.29524366371412e+001,-3.90256189525263e+000

3.33589043469155e+005,-2.29533418075807e+001,-3.95285710685197e+000

3.38245772979638e+005,-2.29542549178493e+001,-4.00377521819895e+000

3.42967508011610e+005,-2.29551758243005e+001,-4.05532502540179e+000

3.47755156008335e+005,-2.29561043818050e+001,-4.10751551429061e+000

3.52609637080511e+005,-2.29570404442172e+001,-4.16035586378925e+000

3.57531884183106e+005,-2.29579838648588e+001,-4.21385544918387e+000

3.62522843294651e+005,-2.29589344970184e+001,-4.26802384528365e+000

3.67583473599047e+005,-2.29598921944653e+001,-4.32287082946829e+000

3.72714747669902e+005,-2.29608568119770e+001,-4.37840638461632e+000

3.77917651657445e+005,-2.29618282058792e+001,-4.43464070191162e+000

3.83193185478053e+005,-2.29628062345962e+001,-4.49158418352174e+000

3.88542363006410e+005,-2.29637907592114e+001,-4.54924744514670e+000

3.93966212270369e+005,-2.29647816440364e+001,-4.60764131843617e+000

3.99465775648511e+005,-2.29657787571863e+001,-4.66677685326936e+000

4.05042110070485e+005,-2.29667819711615e+001,-4.72666531990190e+000

4.10696287220124e+005,-2.29677911634324e+001,-4.78731821097497e+000

4.16429393741414e+005,-2.29688062170287e+001,-4.84874724338717e+000

4.22242531447321e+005,-2.29698270211285e+001,-4.91096436003295e+000

4.28136817531551e+005,-2.29708534716477e+001,-4.97398173140453e+000

4.34113384783250e+005,-2.29718854718289e+001,-5.03781175706415e+000

4.40173381804713e+005,-2.29729229328265e+001,-5.10246706698546e+000

4.46317973232124e+005,-2.29739657742887e+001,-5.16796052276957e+000

4.52548339959385e+005,-2.29750139249336e+001,-5.23430521874057e+000

4.58865679365059e+005,-2.29760673231192e+001,-5.30151448292241e+000

4.65271205542494e+005,-2.29771259174063e+001,-5.36960187790458e+000

4.71766149533147e+005,-2.29781896671115e+001,-5.43858120160290e+000

4.78351759563174e+005,-2.29792585428525e+001,-5.50846648791764e+000

4.85029301283321e+005,-2.29803325270810e+001,-5.57927200730159e+000

4.91800058012158e+005,-2.29814116146053e+001,-5.65101226723953e+000

4.98665330982714e+005,-2.29824958131011e+001,-5.72370201265006e+000

5.05626439592555e+005,-2.29835851436085e+001,-5.79735622621534e+000

5.12684721657352e+005,-2.29846796410166e+001,-5.87199012864890e+000

5.19841533667984e+005,-2.29857793545340e+001,-5.94761917890694e+000

5.27098251051240e+005,-2.29868843481450e+001,-6.02425907435416e+000

5.34456268434150e+005,-2.29879947010520e+001,-6.10192575088967e+000

5.41916999912011e+005,-2.29891105081022e+001,-6.18063538304456e+000

