Freq.,VOut,OutRef

1.00000000000000e+004,-2.49395793344357e+001,-3.95681713192442e-002

1.01395947979003e+004,-2.49395797901836e+001,-4.01204485408536e-002

1.02811382665607e+004,-2.49395802587283e+001,-4.06804321292895e-002

1.04246576084112e+004,-2.49395807404280e+001,-4.12482295326212e-002

1.05701804056138e+004,-2.49395812356523e+001,-4.18239496851371e-002

1.07177346253629e+004,-2.49395817447800e+001,-4.24077030419715e-002

1.08673486252606e+004,-2.49395822682008e+001,-4.29996015920441e-002

1.10190511587661e+004,-2.49395828063156e+001,-4.35997588805171e-002

1.11728713807222e+004,-2.49395833595362e+001,-4.42082900311564e-002

1.13288388529580e+004,-2.49395839282859e+001,-4.48253117702509e-002

1.14869835499703e+004,-2.49395845130001e+001,-4.54509424416804e-002

1.16473358646846e+004,-2.49395851141260e+001,-4.60853020382040e-002

1.18099266142953e+004,-2.49395857321235e+001,-4.67285122182555e-002

1.19747870461893e+004,-2.49395863674654e+001,-4.73806963295592e-002

1.21419488439505e+004,-2.49395870206376e+001,-4.80419794332131e-002

1.23114441334492e+004,-2.49395876921398e+001,-4.87124883275620e-002

1.24833054890161e+004,-2.49395883824847e+001,-4.93923515757616e-002

1.26575659397028e+004,-2.49395890922009e+001,-5.00816995164865e-002

1.28342589756290e+004,-2.49395898218303e+001,-5.07806643082610e-002

1.30134185544193e+004,-2.49395905719307e+001,-5.14893799372129e-002

1.31950791077289e+004,-2.49395913430753e+001,-5.22079822512396e-002

1.33792755478611e+004,-2.49395921358530e+001,-5.29366089833716e-002

1.35660432744767e+004,-2.49395929508696e+001,-5.36753997771845e-002

1.37554181813974e+004,-2.49395937887474e+001,-5.44244962124464e-002

1.39474366635040e+004,-2.49395946501260e+001,-5.51840418350928e-002

1.41421356237309e+004,-2.49395955356633e+001,-5.59541821774590e-002

1.43395524801583e+004,-2.49395964460350e+001,-5.67350647921349e-002

1.45397251732031e+004,-2.49395973819356e+001,-5.75268392775927e-002

1.47426921729110e+004,-2.49395983440796e+001,-5.83296573021156e-002

1.49484924863494e+004,-2.49395993332005e+001,-5.91436726389853e-002

1.51571656651040e+004,-2.49396003500526e+001,-5.99690411904092e-002

1.53687518128801e+004,-2.49396013954114e+001,-6.08059210160659e-002

1.55832915932100e+004,-2.49396024700738e+001,-6.16544723646888e-002

1.58008262372675e+004,-2.49396035748582e+001,-6.25148577072524e-002

1.60213975517924e+004,-2.49396047106070e+001,-6.33872417566052e-002

1.62450479271247e+004,-2.49396058781847e+001,-6.42717915114391e-002

1.64718203453514e+004,-2.49396070784808e+001,-6.51686762747706e-002

1.67017583885674e+004,-2.49396083124089e+001,-6.60780676944153e-002

1.69349062472505e+004,-2.49396095809080e+001,-6.70001397915031e-002

1.71713087287550e+004,-2.49396108849435e+001,-6.79350689894383e-002

1.74110112659224e+004,-2.49396122255071e+001,-6.88830341529773e-002

1.76540599258131e+004,-2.49396136036181e+001,-6.98442166161384e-002

1.79005014185594e+004,-2.49396150203242e+001,-7.08188002181060e-002

1.81503831063432e+004,-2.49396164767023e+001,-7.18069713332615e-002

1.84037530124975e+004,-2.49396179738582e+001,-7.28089189136645e-002

1.86606598307361e+004,-2.49396195129292e+001,-7.38248345141121e-002

1.89211529345119e+004,-2.49396210950837e+001,-7.48549123325276e-002

1.91852823865052e+004,-2.49396227215223e+001,-7.58993492461066e-002

1.94530989482457e+004,-2.49396243934791e+001,-7.69583448428298e-002

1.97246540898671e+004,-2.49396261122217e+001,-7.80321014635428e-002

1.99999999999999e+004,-2.49396278790529e+001,-7.91208242372848e-002

2.02791895958005e+004,-2.49396296953119e+001,-8.02247211117366e-002

2.05622765331213e+004,-2.49396315623740e+001,-8.13440029035631e-002

2.08493152168224e+004,-2.49396334816530e+001,-8.24788833250901e-002

2.11403608112276e+004,-2.49396354546016e+001,-8.36295790278188e-002

2.14354692507258e+004,-2.49396374827118e+001,-8.47963096462847e-002

2.17346972505211e+004,-2.49396395675171e+001,-8.59792978291693e-002

2.20381023175322e+004,-2.49396417105936e+001,-8.71787692814601e-002

2.23457427614443e+004,-2.49396439135598e+001,-8.83949528113445e-002

2.26576777059159e+004,-2.49396461780789e+001,-8.96280803650133e-002

2.29739670999406e+004,-2.49396485058600e+001,-9.08783870680411e-002

2.32946717293690e+004,-2.49396508986586e+001,-9.21461112733971e-002

2.36198532285905e+004,-2.49396533582788e+001,-9.34314945960272e-002

2.39495740923785e+004,-2.49396558865735e+001,-9.47347819619123e-002

2.42838976879009e+004,-2.49396584854465e+001,-9.60562216495671e-002

2.46228882668982e+004,-2.49396611568535e+001,-9.73960653344810e-002

2.49666109780322e+004,-2.49396639028038e+001,-9.87545681323983e-002

2.53151318794055e+004,-2.49396667253614e+001,-1.00131988644236e-001

2.56685179512580e+004,-2.49396696266462e+001,-1.01528589006323e-001

2.60268371088386e+004,-2.49396726088363e+001,-1.02944634929192e-001

2.63901582154578e+004,-2.49396756741687e+001,-1.04380395749796e-001

2.67585510957221e+004,-2.49396788249415e+001,-1.05836144474384e-001

2.71320865489533e+004,-2.49396820635147e+001,-1.07312157831673e-001

2.75108363627948e+004,-2.49396853923128e+001,-1.08808716313781e-001

2.78948733270080e+004,-2.49396888138257e+001,-1.10326104231473e-001

2.82842712474618e+004,-2.49396923306104e+001,-1.11864609760234e-001

2.86791049603164e+004,-2.49396959452935e+001,-1.13424524989657e-001

2.90794503464061e+004,-2.49396996605726e+001,-1.15006145972174e-001

2.94853843458219e+004,-2.49397034792172e+001,-1.16609772781164e-001

2.98969849726987e+004,-2.49397074040725e+001,-1.18235709551118e-001

3.03143313302078e+004,-2.49397114380594e+001,-1.19884264537930e-001

3.07375036257601e+004,-2.49397155841776e+001,-1.21555750168738e-001

3.11665831864199e+004,-2.49397198455073e+001,-1.23250483093953e-001

3.16016524745350e+004,-2.49397242252111e+001,-1.24968784240759e-001

3.20427951035848e+004,-2.49397287265363e+001,-1.26710978867599e-001

3.24900958542493e+004,-2.49397333528172e+001,-1.28477396617103e-001

3.29436406907028e+004,-2.49397381074764e+001,-1.30268371575274e-001

3.34035167771346e+004,-2.49397429940283e+001,-1.32084242319954e-001

3.38698124945009e+004,-2.49397480160808e+001,-1.33925351981566e-001

3.43426174575100e+004,-2.49397531773369e+001,-1.35792048301167e-001

3.48220225318448e+004,-2.49397584815985e+001,-1.37684683682048e-001

3.53081198516260e+004,-2.49397639327677e+001,-1.39603615250229e-001

3.58010028371187e+004,-2.49397695348500e+001,-1.41549204913207e-001

3.63007662126863e+004,-2.49397752919561e+001,-1.43521819416212e-001

3.68075060249948e+004,-2.49397812083054e+001,-1.45521830402494e-001

3.73213196614721e+004,-2.49397872882276e+001,-1.47549614472900e-001

3.78423058690237e+004,-2.49397935361664e+001,-1.49605553245979e-001

3.83705647730104e+004,-2.49397999566815e+001,-1.51690033415673e-001

3.89061978964912e+004,-2.49398065544514e+001,-1.53803446818216e-001

3.94493081797342e+004,-2.49398133342773e+001,-1.55946190484130e-001

3.99999999999998e+004,-2.49398203010843e+001,-1.58118666711015e-001

4.05583791916010e+004,-2.49398274599256e+001,-1.60321283117107e-001

4.11245530662425e+004,-2.49398348159852e+001,-1.62554452707673e-001

4.16986304336447e+004,-2.49398423745807e+001,-1.64818593939193e-001

4.22807216224550e+004,-2.49398501411667e+001,-1.67114130779395e-001

4.28709385014515e+004,-2.49398581213377e+001,-1.69441492775543e-001

4.34693945010421e+004,-2.49398663208316e+001,-1.71801115114179e-001

4.40762046350642e+004,-2.49398747455328e+001,-1.74193438690098e-001

4.46914855228886e+004,-2.49398834014755e+001,-1.76618910167663e-001

4.53153554118317e+004,-2.49398922948469e+001,-1.79077982052135e-001

4.59479341998812e+004,-2.49399014319909e+001,-1.81571112748137e-001

4.65893434587380e+004,-2.49399108194115e+001,-1.84098766631927e-001

4.72397064571810e+004,-2.49399204637761e+001,-1.86661414115300e-001

4.78991481847569e+004,-2.49399303719193e+001,-1.89259531712168e-001

4.85677953758016e+004,-2.49399405508463e+001,-1.91893602108328e-001

4.92457765337964e+004,-2.49399510077367e+001,-1.94564114226028e-001

4.99332219560642e+004,-2.49399617499479e+001,-1.97271563293951e-001

5.06302637588109e+004,-2.49399727850191e+001,-2.00016450913934e-001

5.13370359025159e+004,-2.49399841206751e+001,-2.02799285129976e-001

5.20536742176771e+004,-2.49399957648296e+001,-2.05620580497325e-001

5.27803164309155e+004,-2.49400077255897e+001,-2.08480858149710e-001

5.35171021914442e+004,-2.49400200112591e+001,-2.11380645871143e-001

5.42641730979066e+004,-2.49400326303426e+001,-2.14320478160352e-001

5.50216727255895e+004,-2.49400455915494e+001,-2.17300896304859e-001

5.57897466540159e+004,-2.49400589037972e+001,-2.20322448449636e-001

5.65685424949235e+004,-2.49400725762164e+001,-2.23385689664018e-001

5.73582099206328e+004,-2.49400866181541e+001,-2.26491182012875e-001

5.81589006928121e+004,-2.49401010391773e+001,-2.29639494627690e-001

5.89707686916437e+004,-2.49401158490776e+001,-2.32831203775143e-001

5.97939699453972e+004,-2.49401310578748e+001,-2.36066892927854e-001

6.06286626604156e+004,-2.49401466758212e+001,-2.39347152831246e-001

6.14750072515201e+004,-2.49401627134050e+001,-2.42672581579165e-001

6.23331663728396e+004,-2.49401791813545e+001,-2.46043784678415e-001

6.32033049490698e+004,-2.49401960906421e+001,-2.49461375121407e-001

6.40855902071694e+004,-2.49402134524877e+001,-2.52925973456036e-001

6.49801917084985e+004,-2.49402312783634e+001,-2.56438207853109e-001

6.58872813814055e+004,-2.49402495799958e+001,-2.59998714180254e-001

6.68070335542691e+004,-2.49402683693713e+001,-2.63608136065448e-001

6.77396249890018e+004,-2.49402876587386e+001,-2.67267124973436e-001

6.86852349150199e+004,-2.49403074606125e+001,-2.70976340270383e-001

6.96440450636895e+004,-2.49403277877780e+001,-2.74736449292020e-001

7.06162397032520e+004,-2.49403486532926e+001,-2.78548127418226e-001

7.16020056742374e+004,-2.49403700704905e+001,-2.82412058135890e-001

7.26015324253724e+004,-2.49403920529853e+001,-2.86328933109880e-001

7.36150120499896e+004,-2.49404146146729e+001,-2.90299452253058e-001

7.46426393229441e+004,-2.49404377697347e+001,-2.94324323791584e-001

7.56846117380472e+004,-2.49404615326404e+001,-2.98404264332631e-001

7.67411295460207e+004,-2.49404859181497e+001,-3.02539998937055e-001

7.78123957929823e+004,-2.49405109413160e+001,-3.06732261179250e-001

7.88986163594682e+004,-2.49405366174872e+001,-3.10981793221177e-001

7.99999999999995e+004,-2.49405629623087e+001,-3.15289345875111e-001

8.11167583832018e+004,-2.49405899917243e+001,-3.19655678672033e-001

8.22491061324848e+004,-2.49406177219784e+001,-3.24081559927746e-001

8.33972608672892e+004,-2.49406461696164e+001,-3.28567766810758e-001

8.45614432449099e+004,-2.49406753514862e+001,-3.33115085405778e-001

8.57418770029029e+004,-2.49407052847386e+001,-3.37724310782661e-001

8.69387890020841e+004,-2.49407359868273e+001,-3.42396247059260e-001

8.81524092701283e+004,-2.49407674755095e+001,-3.47131707470102e-001

8.93829710457770e+004,-2.49407997688445e+001,-3.51931514431626e-001

9.06307108236633e+004,-2.49408328851934e+001,-3.56796499606840e-001

9.18958683997622e+004,-2.49408668432180e+001,-3.61727503971495e-001

9.31786869174758e+004,-2.49409016618789e+001,-3.66725377880728e-001

9.44794129143618e+004,-2.49409373604327e+001,-3.71790981136399e-001

9.57982963695136e+004,-2.49409739584306e+001,-3.76925183051068e-001

9.71355907516031e+004,-2.49410114757141e+001,-3.82128862515415e-001

9.84915530675926e+004,-2.49410499324119e+001,-3.87402908068103e-001

9.98664439121282e+004,-2.49410893489353e+001,-3.92748217959879e-001

1.01260527517622e+005,-2.49411297459734e+001,-3.98165700225561e-001

1.02674071805032e+005,-2.49411711444881e+001,-4.03656272749718e-001

1.04107348435354e+005,-2.49412135657067e+001,-4.09220863341128e-001

1.05560632861831e+005,-2.49412570311165e+001,-4.14860409800707e-001

1.07034204382888e+005,-2.49413015624563e+001,-4.20575859995685e-001

1.08528346195813e+005,-2.49413471817085e+001,-4.26368171931794e-001

1.10043345451179e+005,-2.49413939110900e+001,-4.32238313832244e-001

1.11579493308032e+005,-2.49414417730422e+001,-4.38187264212508e-001

1.13137084989847e+005,-2.49414907902205e+001,-4.44216011960478e-001

1.14716419841265e+005,-2.49415409854830e+001,-4.50325556416590e-001

1.16317801385624e+005,-2.49415923818774e+001,-4.56516907462208e-001

1.17941537383287e+005,-2.49416450026284e+001,-4.62791085601319e-001

1.19587939890794e+005,-2.49416988711230e+001,-4.69149122054815e-001

1.21257325320831e+005,-2.49417540108958e+001,-4.75592058850870e-001

1.22950014503040e+005,-2.49418104456118e+001,-4.82120948924496e-001

1.24666332745679e+005,-2.49418681990503e+001,-4.88736856216588e-001

1.26406609898139e+005,-2.49419272950862e+001,-4.95440855779196e-001

1.28171180414339e+005,-2.49419877576702e+001,-5.02234033888193e-001

1.29960383416997e+005,-2.49420496108093e+001,-5.09117488154991e-001

1.31774562762811e+005,-2.49421128785441e+001,-5.16092327650958e-001

1.33614067108538e+005,-2.49421775849276e+001,-5.23159673029867e-001

1.35479249978003e+005,-2.49422437540003e+001,-5.30320656664090e-001

1.37370469830040e+005,-2.49423114097655e+001,-5.37576422785294e-001

1.39288090127379e+005,-2.49423805761639e+001,-5.44928127627036e-001

1.41232479406504e+005,-2.49424512770452e+001,-5.52376939586458e-001

1.43204011348474e+005,-2.49425235361411e+001,-5.59924039380336e-001

1.45203064850745e+005,-2.49425973770341e+001,-5.67570620225204e-001

1.47230024099979e+005,-2.49426728231284e+001,-5.75317888012896e-001

1.49285278645888e+005,-2.49427498976168e+001,-5.83167061505534e-001

1.51369223476094e+005,-2.49428286234482e+001,-5.91119372539087e-001

1.53482259092041e+005,-2.49429090232932e+001,-5.99176066233605e-001

1.55624791585964e+005,-2.49429911195095e+001,-6.07338401221209e-001

1.57797232718936e+005,-2.49430749341042e+001,-6.15607649884758e-001

1.59999999999999e+005,-2.49431604886977e+001,-6.23985098607115e-001

1.62233516766403e+005,-2.49432478044847e+001,-6.32472048036849e-001

1.64498212264969e+005,-2.49433369021949e+001,-6.41069813367566e-001

1.66794521734578e+005,-2.49434278020525e+001,-6.49779724633131e-001

1.69122886489819e+005,-2.49435205237356e+001,-6.58603127015331e-001

1.71483754005805e+005,-2.49436150863335e+001,-6.67541381172656e-001

1.73877578004168e+005,-2.49437115083046e+001,-6.76595863582252e-001

1.76304818540256e+005,-2.49438098074327e+001,-6.85767966901207e-001

1.78765942091554e+005,-2.49439100007834e+001,-6.95059100346175e-001

1.81261421647326e+005,-2.49440121046592e+001,-7.04470690090651e-001

1.83791736799524e+005,-2.49441161345553e+001,-7.14004179683449e-001

1.86357373834951e+005,-2.49442221051142e+001,-7.23661030485534e-001

1.88958825828723e+005,-2.49443300300805e+001,-7.33442722128791e-001

1.91596592739027e+005,-2.49444399222557e+001,-7.43350752995555e-001

1.94271181503206e+005,-2.49445517934530e+001,-7.53386640719032e-001

1.96983106135185e+005,-2.49446656544524e+001,-7.63551922707069e-001

1.99732887824256e+005,-2.49447815149561e+001,-7.73848156686547e-001

2.02521055035243e+005,-2.49448993835441e+001,-7.84276921274279e-001

2.05348143610063e+005,-2.49450192676312e+001,-7.94839816566675e-001

2.08214696870707e+005,-2.49451411734243e+001,-8.05538464755295e-001

2.11121265723661e+005,-2.49452651058805e+001,-8.16374510767221e-001

2.14068408765776e+005,-2.49453910686671e+001,-8.27349622925118e-001

2.17056692391625e+005,-2.49455190641222e+001,-8.38465493637067e-001

2.20086690902357e+005,-2.49456490932171e+001,-8.49723840104853e-001

2.23158986616063e+005,-2.49457811555206e+001,-8.61126405059627e-001

2.26274169979693e+005,-2.49459152491651e+001,-8.72674957520398e-001

2.29432839682530e+005,-2.49460513708144e+001,-8.84371293575211e-001

2.32635602771247e+005,-2.49461895156346e+001,-8.96217237186502e-001

2.35883074766574e+005,-2.49463296772664e+001,-9.08214641018824e-001

2.39175879781588e+005,-2.49464718478012e+001,-9.20365387290445e-001

2.42514650641661e+005,-2.49466160177592e+001,-9.32671388644082e-001

2.45900029006080e+005,-2.49467621760706e+001,-9.45134589041593e-001

2.49332665491357e+005,-2.49469103100611e+001,-9.57756964675521e-001

2.52813219796278e+005,-2.49470604054393e+001,-9.70540524905911e-001

2.56342360828676e+005,-2.49472124462883e+001,-9.83487313209587e-001

2.59920766833993e+005,-2.49473664150618e+001,-9.96599408150386e-001

2.63549125525621e+005,-2.49475222925827e+001,-1.00987892436717e+000

2.67228134217075e+005,-2.49476800580470e+001,-1.02332801357271e+000

2.70958499956006e+005,-2.49478396890312e+001,-1.03694886557198e+000

2.74740939660078e+005,-2.49480011615043e+001,-1.05074370928813e+000

2.78576180254757e+005,-2.49481644498438e+001,-1.06471481380434e+000

2.82464958813007e+005,-2.49483295268572e+001,-1.07886448941234e+000

2.86408022696948e+005,-2.49484963638071e+001,-1.09319508866903e+000

2.90406129701488e+005,-2.49486649304417e+001,-1.10770900746248e+000

2.94460048199957e+005,-2.49488351950297e+001,-1.12240868607952e+000

2.98570557291775e+005,-2.49490071243997e+001,-1.13729661027971e+000

3.02738446952187e+005,-2.49491806839855e+001,-1.15237531236701e+000

3.06964518184081e+005,-2.49493558378752e+001,-1.16764737226529e+000

3.11249583171928e+005,-2.49495325488649e+001,-1.18311541858744e+000

3.15594465437872e+005,-2.49497107785185e+001,-1.19878212970557e+000

3.19999999999997e+005,-2.49498904872306e+001,-1.21465023480946e+000

3.24467033532806e+005,-2.49500716342950e+001,-1.23072251496262e+000

3.28996424529938e+005,-2.49502541779775e+001,-1.24700180414718e+000

3.33589043469155e+005,-2.49504380755929e+001,-1.26349099029662e+000

3.38245772979638e+005,-2.49506232835865e+001,-1.28019301631745e+000

3.42967508011610e+005,-2.49508097576192e+001,-1.29711088109756e+000

3.47755156008335e+005,-2.49509974526572e+001,-1.31424764049499e+000

3.52609637080511e+005,-2.49511863230648e+001,-1.33160640831376e+000

3.57531884183106e+005,-2.49513763227009e+001,-1.34919035725897e+000

3.62522843294651e+005,-2.49515674050190e+001,-1.36700271987089e+000

3.67583473599047e+005,-2.49517595231699e+001,-1.38504678944087e+000

3.72714747669902e+005,-2.49519526301070e+001,-1.40332592090278e+000

3.77917651657445e+005,-2.49521466786943e+001,-1.42184353170224e+000

3.83193185478053e+005,-2.49523416218172e+001,-1.44060310264227e+000

3.88542363006410e+005,-2.49525374124935e+001,-1.45960817870460e+000

3.93966212270369e+005,-2.49527340039879e+001,-1.47886236984405e+000

3.99465775648511e+005,-2.49529313499266e+001,-1.49836935176133e+000

4.05042110070485e+005,-2.49531294044131e+001,-1.51813286664635e+000

4.10696287220124e+005,-2.49533281221447e+001,-1.53815672389861e+000

4.16429393741414e+005,-2.49535274585296e+001,-1.55844480082028e+000

4.22242531447321e+005,-2.49537273698034e+001,-1.57900104328613e+000

4.28136817531551e+005,-2.49539278131456e+001,-1.59982946638676e+000

4.34113384783250e+005,-2.49541287467960e+001,-1.62093415504744e+000

4.40173381804713e+005,-2.49543301301689e+001,-1.64231926462541e+000

4.46317973232124e+005,-2.49545319239677e+001,-1.66398902148273e+000

4.52548339959385e+005,-2.49547340902960e+001,-1.68594772353778e+000

4.58865679365059e+005,-2.49549365927695e+001,-1.70819974079589e+000

4.65271205542494e+005,-2.49551393966231e+001,-1.73074951586155e+000

4.71766149533147e+005,-2.49553424688178e+001,-1.75360156443255e+000

4.78351759563174e+005,-2.49555457781441e+001,-1.77676047577565e+000

4.85029301283321e+005,-2.49557492953227e+001,-1.80023091319111e+000

4.91800058012158e+005,-2.49559529931025e+001,-1.82401761446041e+000

4.98665330982714e+005,-2.49561568463557e+001,-1.84812539228421e+000

5.05626439592555e+005,-2.49563608321689e+001,-1.87255913471134e+000

5.12684721657352e+005,-2.49565649299314e+001,-1.89732380555877e+000

5.19841533667984e+005,-2.49567691214200e+001,-1.92242444482639e+000

5.27098251051240e+005,-2.49569733908797e+001,-1.94786616910850e+000

5.34456268434150e+005,-2.49571777251011e+001,-1.97365417200351e+000

5.41916999912011e+005,-2.49573821134940e+001,-1.99979372452295e+000

