Freq.,VOut,OutRef

1.00000000000000e+004,-1.38205968871271e+001,-2.95465536545157e-002

1.01395947979003e+004,-1.38205992545242e+001,-2.99586088345186e-002

1.02811382665607e+004,-1.38206016883909e+001,-3.03763991390590e-002

1.04246576084112e+004,-1.38206041905893e+001,-3.08000039195734e-002

1.05701804056138e+004,-1.38206067630351e+001,-3.12295035949769e-002

1.07177346253629e+004,-1.38206094076988e+001,-3.16649796658287e-002

1.08673486252606e+004,-1.38206121266034e+001,-3.21065147554144e-002

1.10190511587661e+004,-1.38206149218306e+001,-3.25541925916830e-002

1.11728713807222e+004,-1.38206177955189e+001,-3.30080980427026e-002

1.13288388529580e+004,-1.38206207498678e+001,-3.34683171183564e-002

1.14869835499703e+004,-1.38206237871378e+001,-3.39349369909144e-002

1.16473358646846e+004,-1.38206269096518e+001,-3.44080460148294e-002

1.18099266142953e+004,-1.38206301197977e+001,-3.48877337341655e-002

1.19747870461893e+004,-1.38206334200311e+001,-3.53740908916825e-002

1.21419488439505e+004,-1.38206368128753e+001,-3.58672094569010e-002

1.23114441334492e+004,-1.38206403009241e+001,-3.63671826341809e-002

1.24833054890161e+004,-1.38206438868433e+001,-3.68741048815691e-002

1.26575659397028e+004,-1.38206475733741e+001,-3.73880719173036e-002

1.28342589756290e+004,-1.38206513633338e+001,-3.79091807429084e-002

1.30134185544193e+004,-1.38206552596175e+001,-3.84375296623711e-002

1.31950791077289e+004,-1.38206592652012e+001,-3.89732182918938e-002

1.33792755478611e+004,-1.38206633831451e+001,-3.95163475692733e-002

1.35660432744767e+004,-1.38206676165927e+001,-4.00670197891001e-002

1.37554181813974e+004,-1.38206719687764e+001,-4.06253385977987e-002

1.39474366635040e+004,-1.38206764430189e+001,-4.11914090191934e-002

1.41421356237309e+004,-1.38206810427339e+001,-4.17653374783587e-002

1.43395524801583e+004,-1.38206857714308e+001,-4.23472318077387e-002

1.45397251732031e+004,-1.38206906327178e+001,-4.29372012568744e-002

1.47426921729110e+004,-1.38206956303021e+001,-4.35353565284293e-002

1.49484924863494e+004,-1.38207007679939e+001,-4.41418097854125e-002

1.51571656651040e+004,-1.38207060497105e+001,-4.47566746596365e-002

1.53687518128801e+004,-1.38207114794766e+001,-4.53800662846677e-002

1.55832915932100e+004,-1.38207170614295e+001,-4.60121013011340e-002

1.58008262372675e+004,-1.38207227998222e+001,-4.66528978702625e-002

1.60213975517924e+004,-1.38207286990238e+001,-4.73025757113209e-002

1.62450479271247e+004,-1.38207347635270e+001,-4.79612560896548e-002

1.64718203453514e+004,-1.38207409979463e+001,-4.86290618676896e-002

1.67017583885674e+004,-1.38207474070274e+001,-4.93061174823522e-002

1.69349062472505e+004,-1.38207539956442e+001,-4.99925490071659e-002

1.71713087287550e+004,-1.38207607688087e+001,-5.06884841252669e-002

1.74110112659224e+004,-1.38207677316701e+001,-5.13940521775794e-002

1.76540599258131e+004,-1.38207748895198e+001,-5.21093841742950e-002

1.79005014185594e+004,-1.38207822477967e+001,-5.28346128002765e-002

1.81503831063432e+004,-1.38207898120897e+001,-5.35698724438801e-002

1.84037530124975e+004,-1.38207975881417e+001,-5.43152992134530e-002

1.86606598307361e+004,-1.38208055818554e+001,-5.50710309452542e-002

1.89211529345119e+004,-1.38208137992956e+001,-5.58372072344977e-002

1.91852823865052e+004,-1.38208222466949e+001,-5.66139694424005e-002

1.94530989482457e+004,-1.38208309304587e+001,-5.74014607115750e-002

1.97246540898671e+004,-1.38208398571666e+001,-5.81998260032298e-002

1.99999999999999e+004,-1.38208490335827e+001,-5.90092120808918e-002

2.02791895958005e+004,-1.38208584666544e+001,-5.98297675624421e-002

2.05622765331213e+004,-1.38208681635231e+001,-6.06616429045056e-002

2.08493152168224e+004,-1.38208781315254e+001,-6.15049904438344e-002

2.11403608112276e+004,-1.38208883781987e+001,-6.23599644079866e-002

2.14354692507258e+004,-1.38208989112895e+001,-6.32267209185604e-002

2.17346972505211e+004,-1.38209097387556e+001,-6.41054180244546e-002

2.20381023175322e+004,-1.38209208687737e+001,-6.49962157096975e-002

2.23457427614443e+004,-1.38209323097456e+001,-6.58992759032871e-002

2.26576777059159e+004,-1.38209440703010e+001,-6.68147625174281e-002

2.29739670999406e+004,-1.38209561593084e+001,-6.77428414307111e-002

2.32946717293690e+004,-1.38209685858781e+001,-6.86836805258277e-002

2.36198532285905e+004,-1.38209813593696e+001,-6.96374496970522e-002

2.39495740923785e+004,-1.38209944893971e+001,-7.06043208717178e-002

2.42838976879009e+004,-1.38210079858388e+001,-7.15844680091702e-002

2.46228882668982e+004,-1.38210218588418e+001,-7.25780671245432e-002

2.49666109780322e+004,-1.38210361188291e+001,-7.35852963063804e-002

2.53151318794055e+004,-1.38210507765092e+001,-7.46063357122165e-002

2.56685179512580e+004,-1.38210658428794e+001,-7.56413676073942e-002

2.60268371088386e+004,-1.38210813292388e+001,-7.66905763427671e-002

2.63901582154578e+004,-1.38210972471908e+001,-7.77541484017920e-002

2.67585510957221e+004,-1.38211136086546e+001,-7.88322723860323e-002

2.71320865489533e+004,-1.38211304258730e+001,-7.99251390282541e-002

2.75108363627948e+004,-1.38211477114196e+001,-8.10329412113810e-002

2.78948733270080e+004,-1.38211654782070e+001,-8.21558739784080e-002

2.82842712474618e+004,-1.38211837394988e+001,-8.32941345180641e-002

2.86791049603164e+004,-1.38212025089141e+001,-8.44479222033386e-002

2.90794503464061e+004,-1.38212218004408e+001,-8.56174385721710e-002

2.94853843458219e+004,-1.38212416284420e+001,-8.68028873486239e-002

2.98969849726987e+004,-1.38212620076672e+001,-8.80044744403907e-002

3.03143313302078e+004,-1.38212829532628e+001,-8.92224079370387e-002

3.07375036257601e+004,-1.38213044807799e+001,-9.04568981275166e-002

3.11665831864199e+004,-1.38213266061866e+001,-9.17081574878322e-002

3.16016524745350e+004,-1.38213493458777e+001,-9.29764006876391e-002

3.20427951035848e+004,-1.38213727166858e+001,-9.42618445881249e-002

3.24900958542493e+004,-1.38213967358920e+001,-9.55647082389594e-002

3.29436406907028e+004,-1.38214214212371e+001,-9.68852128767498e-002

3.34035167771346e+004,-1.38214467909335e+001,-9.82235819172044e-002

3.38698124945009e+004,-1.38214728636775e+001,-9.95800409449594e-002

3.43426174575100e+004,-1.38214996586590e+001,-1.00954817720420e-001

3.48220225318448e+004,-1.38215271955758e+001,-1.02348142156674e-001

3.53081198516260e+004,-1.38215554946462e+001,-1.03760246305327e-001

3.58010028371187e+004,-1.38215845766197e+001,-1.05191364361127e-001

3.63007662126863e+004,-1.38216144627927e+001,-1.06641732624279e-001

3.68075060249948e+004,-1.38216451750187e+001,-1.08111589507477e-001

3.73213196614721e+004,-1.38216767357250e+001,-1.09601175493521e-001

3.78423058690237e+004,-1.38217091679238e+001,-1.11110733132423e-001

3.83705647730104e+004,-1.38217424952277e+001,-1.12640507007768e-001

3.89061978964912e+004,-1.38217767418635e+001,-1.14190743715900e-001

3.94493081797342e+004,-1.38218119326865e+001,-1.15761691838044e-001

3.99999999999998e+004,-1.38218480931956e+001,-1.17353601907058e-001

4.05583791916010e+004,-1.38218852495487e+001,-1.18966726374618e-001

4.11245530662425e+004,-1.38219234285776e+001,-1.20601319575534e-001

4.16986304336447e+004,-1.38219626578030e+001,-1.22257637693459e-001

4.22807216224550e+004,-1.38220029654514e+001,-1.23935938712519e-001

4.28709385014515e+004,-1.38220443804704e+001,-1.25636482376950e-001

4.34693945010421e+004,-1.38220869325457e+001,-1.27359530137397e-001

4.40762046350642e+004,-1.38221306521170e+001,-1.29105345107774e-001

4.46914855228886e+004,-1.38221755703948e+001,-1.30874192005431e-001

4.53153554118317e+004,-1.38222217193787e+001,-1.32666337088208e-001

4.59479341998812e+004,-1.38222691318724e+001,-1.34482048104217e-001

4.65893434587380e+004,-1.38223178415034e+001,-1.36321594212417e-001

4.72397064571810e+004,-1.38223678827400e+001,-1.38185245918199e-001

4.78991481847569e+004,-1.38224192909087e+001,-1.40073274999804e-001

4.85677953758016e+004,-1.38224721022130e+001,-1.41985954426297e-001

4.92457765337964e+004,-1.38225263537510e+001,-1.43923558277721e-001

4.99332219560642e+004,-1.38225820835352e+001,-1.45886361650593e-001

5.06302637588109e+004,-1.38226393305100e+001,-1.47874640569935e-001

5.13370359025159e+004,-1.38226981345711e+001,-1.49888671888686e-001

5.20536742176771e+004,-1.38227585365844e+001,-1.51928733184870e-001

5.27803164309155e+004,-1.38228205784049e+001,-1.53995102651780e-001

5.35171021914442e+004,-1.38228843028963e+001,-1.56088058985383e-001

5.42641730979066e+004,-1.38229497539507e+001,-1.58207881256723e-001

5.50216727255895e+004,-1.38230169765067e+001,-1.60354848796767e-001

5.57897466540159e+004,-1.38230860165700e+001,-1.62529241055908e-001

5.65685424949235e+004,-1.38231569212335e+001,-1.64731337460646e-001

5.73582099206328e+004,-1.38232297386945e+001,-1.66961417282423e-001

5.81589006928121e+004,-1.38233045182771e+001,-1.69219759467465e-001

5.89707686916437e+004,-1.38233813104490e+001,-1.71506642494391e-001

5.97939699453972e+004,-1.38234601668433e+001,-1.73822344190853e-001

6.06286626604156e+004,-1.38235411402755e+001,-1.76167141573861e-001

6.14750072515201e+004,-1.38236242847648e+001,-1.78541310656376e-001

6.23331663728396e+004,-1.38237096555522e+001,-1.80945126261973e-001

6.32033049490698e+004,-1.38237973091185e+001,-1.83378861830616e-001

6.40855902071694e+004,-1.38238873032037e+001,-1.85842789209578e-001

6.49801917084985e+004,-1.38239796968258e+001,-1.88337178432754e-001

6.58872813814055e+004,-1.38240745502976e+001,-1.90862297507259e-001

6.68070335542691e+004,-1.38241719252450e+001,-1.93418412173266e-001

6.77396249890018e+004,-1.38242718846235e+001,-1.96005785668852e-001

6.86852349150199e+004,-1.38243744927354e+001,-1.98624678475155e-001

6.96440450636895e+004,-1.38244798152457e+001,-2.01275348055365e-001

7.06162397032520e+004,-1.38245879191977e+001,-2.03958048586344e-001

7.16020056742374e+004,-1.38246988730282e+001,-2.06673030674630e-001

7.26015324253724e+004,-1.38248127465797e+001,-2.09420541079222e-001

7.36150120499896e+004,-1.38249296111171e+001,-2.12200822390514e-001

7.46426393229441e+004,-1.38250495393372e+001,-2.15014112734921e-001

7.56846117380472e+004,-1.38251726053817e+001,-2.17860645449026e-001

7.67411295460207e+004,-1.38252988848474e+001,-2.20740648743527e-001

7.78123957929823e+004,-1.38254284547954e+001,-2.23654345366180e-001

7.88986163594682e+004,-1.38255613937601e+001,-2.26601952240208e-001

7.99999999999995e+004,-1.38256977817554e+001,-2.29583680103036e-001

8.11167583832018e+004,-1.38258377002802e+001,-2.32599733131929e-001

8.22491061324848e+004,-1.38259812323239e+001,-2.35650308546782e-001

8.33972608672892e+004,-1.38261284623675e+001,-2.38735596218880e-001

8.45614432449099e+004,-1.38262794763848e+001,-2.41855778260532e-001

8.57418770029029e+004,-1.38264343618432e+001,-2.45011028590666e-001

8.69387890020841e+004,-1.38265932076983e+001,-2.48201512518196e-001

8.81524092701283e+004,-1.38267561043913e+001,-2.51427386282450e-001

8.93829710457770e+004,-1.38269231438415e+001,-2.54688796604419e-001

9.06307108236633e+004,-1.38270944194372e+001,-2.57985880215677e-001

9.18958683997622e+004,-1.38272700260240e+001,-2.61318763382605e-001

9.31786869174758e+004,-1.38274500598917e+001,-2.64687561410759e-001

9.44794129143618e+004,-1.38276346187566e+001,-2.68092378153909e-001

9.57982963695136e+004,-1.38278238017436e+001,-2.71533305492294e-001

9.71355907516031e+004,-1.38280177093616e+001,-2.75010422824828e-001

9.84915530675926e+004,-1.38282164434813e+001,-2.78523796524641e-001

9.98664439121282e+004,-1.38284201073040e+001,-2.82073479408998e-001

1.01260527517622e+005,-1.38286288053309e+001,-2.85659510189317e-001

1.02674071805032e+005,-1.38288426433277e+001,-2.89281912908541e-001

1.04107348435354e+005,-1.38290617282857e+001,-2.92940696380943e-001

1.05560632861831e+005,-1.38292861683776e+001,-2.96635853622022e-001

1.07034204382888e+005,-1.38295160729126e+001,-3.00367361263314e-001

1.08528346195813e+005,-1.38297515522839e+001,-3.04135178973698e-001

1.10043345451179e+005,-1.38299927179139e+001,-3.07939248868545e-001

1.11579493308032e+005,-1.38302396821940e+001,-3.11779494917267e-001

1.13137084989847e+005,-1.38304925584210e+001,-3.15655822345664e-001

1.14716419841265e+005,-1.38307514607276e+001,-3.19568117036017e-001

1.16317801385624e+005,-1.38310165040074e+001,-3.23516244937688e-001

1.17941537383287e+005,-1.38312878038366e+001,-3.27500051457682e-001

1.19587939890794e+005,-1.38315654763895e+001,-3.31519360870470e-001

1.21257325320831e+005,-1.38318496383481e+001,-3.35573975722596e-001

1.22950014503040e+005,-1.38321404068069e+001,-3.39663676245995e-001

1.24666332745679e+005,-1.38324378991716e+001,-3.43788219774852e-001

1.26406609898139e+005,-1.38327422330527e+001,-3.47947340169982e-001

1.28171180414339e+005,-1.38330535261518e+001,-3.52140747257727e-001

1.29960383416997e+005,-1.38333718961434e+001,-3.56368126272756e-001

1.31774562762811e+005,-1.38336974605493e+001,-3.60629137324655e-001

1.33614067108538e+005,-1.38340303366074e+001,-3.64923414870407e-001

1.35479249978003e+005,-1.38343706411339e+001,-3.69250567210992e-001

1.37370469830040e+005,-1.38347184903794e+001,-3.73610176006286e-001

1.39288090127379e+005,-1.38350739998784e+001,-3.78001795809316e-001

1.41232479406504e+005,-1.38354372842913e+001,-3.82424953636839e-001

1.43204011348474e+005,-1.38358084572418e+001,-3.86879148552252e-001

1.45203064850745e+005,-1.38361876311462e+001,-3.91363851289330e-001

1.47230024099979e+005,-1.38365749170366e+001,-3.95878503907157e-001

1.49285278645888e+005,-1.38369704243782e+001,-4.00422519475917e-001

1.51369223476094e+005,-1.38373742608794e+001,-4.04995281808454e-001

1.53482259092041e+005,-1.38377865322951e+001,-4.09596145233396e-001

1.55624791585964e+005,-1.38382073422255e+001,-4.14224434405270e-001

1.57797232718936e+005,-1.38386367919078e+001,-4.18879444167877e-001

1.59999999999999e+005,-1.38390749800013e+001,-4.23560439471818e-001

1.62233516766403e+005,-1.38395220023679e+001,-4.28266655339686e-001

1.64498212264969e+005,-1.38399779518463e+001,-4.32997296896834e-001

1.66794521734578e+005,-1.38404429180216e+001,-4.37751539451754e-001

1.69122886489819e+005,-1.38409169869901e+001,-4.42528528648167e-001

1.71483754005805e+005,-1.38414002411181e+001,-4.47327380685917e-001

1.73877578004168e+005,-1.38418927587982e+001,-4.52147182602705e-001

1.76304818540256e+005,-1.38423946142008e+001,-4.56986992641316e-001

1.78765942091554e+005,-1.38429058770219e+001,-4.61845840684015e-001

1.81261421647326e+005,-1.38434266122295e+001,-4.66722728767353e-001

1.83791736799524e+005,-1.38439568798060e+001,-4.71616631683819e-001

1.86357373834951e+005,-1.38444967344891e+001,-4.76526497667921e-001

1.88958825828723e+005,-1.38450462255126e+001,-4.81451249163640e-001

1.91596592739027e+005,-1.38456053963450e+001,-4.86389783688627e-001

1.94271181503206e+005,-1.38461742844299e+001,-4.91340974787456e-001

1.96983106135185e+005,-1.38467529209250e+001,-4.96303673084957e-001

1.99732887824256e+005,-1.38473413304453e+001,-5.01276707425948e-001

2.02521055035243e+005,-1.38479395308061e+001,-5.06258886123098e-001

2.05348143610063e+005,-1.38485475327719e+001,-5.11248998295020e-001

2.08214696870707e+005,-1.38491653398058e+001,-5.16245815316216e-001

2.11121265723661e+005,-1.38497929478279e+001,-5.21248092354885e-001

2.14068408765776e+005,-1.38504303449762e+001,-5.26254570021685e-001

2.17056692391625e+005,-1.38510775113756e+001,-5.31263976118498e-001

2.20086690902357e+005,-1.38517344189154e+001,-5.36275027483321e-001

2.23158986616063e+005,-1.38524010310341e+001,-5.41286431941483e-001

2.26274169979693e+005,-1.38530773025142e+001,-5.46296890355464e-001

2.29432839682530e+005,-1.38537631792889e+001,-5.51305098765828e-001

2.32635602771247e+005,-1.38544585982590e+001,-5.56309750637429e-001

2.35883074766574e+005,-1.38551634871235e+001,-5.61309539190157e-001

2.39175879781588e+005,-1.38558777642234e+001,-5.66303159823818e-001

2.42514650641661e+005,-1.38566013384007e+001,-5.71289312629406e-001

2.45900029006080e+005,-1.38573341088727e+001,-5.76266704982933e-001

2.49332665491357e+005,-1.38580759651236e+001,-5.81234054211546e-001

2.52813219796278e+005,-1.38588267868126e+001,-5.86190090343282e-001

2.56342360828676e+005,-1.38595864437018e+001,-5.91133558913886e-001

2.59920766833993e+005,-1.38603547956028e+001,-5.96063223840376e-001

2.63549125525621e+005,-1.38611316923436e+001,-6.00977870347233e-001

2.67228134217075e+005,-1.38619169737561e+001,-6.05876307945555e-001

2.70958499956006e+005,-1.38627104696866e+001,-6.10757373442147e-001

2.74740939660078e+005,-1.38635120000266e+001,-6.15619933995054e-001

2.78576180254757e+005,-1.38643213747684e+001,-6.20462890180493e-001

2.82464958813007e+005,-1.38651383940827e+001,-6.25285179086246e-001

2.86408022696948e+005,-1.38659628484211e+001,-6.30085777405913e-001

2.90406129701488e+005,-1.38667945186417e+001,-6.34863704532336e-001

2.94460048199957e+005,-1.38676331761602e+001,-6.39618025638347e-001

2.98570557291775e+005,-1.38684785831240e+001,-6.44347854742584e-001

3.02738446952187e+005,-1.38693304926129e+001,-6.49052357730590e-001

3.06964518184081e+005,-1.38701886488620e+001,-6.53730755348999e-001

3.11249583171928e+005,-1.38710527875112e+001,-6.58382326138156e-001

3.15594465437872e+005,-1.38719226358769e+001,-6.63006409305263e-001

3.19999999999997e+005,-1.38727979132484e+001,-6.67602407531391e-001

3.24467033532806e+005,-1.38736783312070e+001,-6.72169789687436e-001

3.28996424529938e+005,-1.38745635939682e+001,-6.76708093464109e-001

3.33589043469155e+005,-1.38754533987456e+001,-6.81216927898366e-001

3.38245772979638e+005,-1.38763474361345e+001,-6.85695975792970e-001

3.42967508011610e+005,-1.38772453905183e+001,-6.90144996008191e-001

3.47755156008335e+005,-1.38781469404917e+001,-6.94563825630492e-001

3.52609637080511e+005,-1.38790517593023e+001,-6.98952382004953e-001

3.57531884183106e+005,-1.38799595153100e+001,-7.03310664618968e-001

3.62522843294651e+005,-1.38808698724604e+001,-7.07638756833984e-001

3.67583473599047e+005,-1.38817824907733e+001,-7.11936827464112e-001

3.72714747669902e+005,-1.38826970268426e+001,-7.16205132182324e-001

3.77917651657445e+005,-1.38836131343493e+001,-7.20444014758520e-001

3.83193185478053e+005,-1.38845304645806e+001,-7.24653908128860e-001

3.88542363006410e+005,-1.38854486669605e+001,-7.28835335274595e-001

3.93966212270369e+005,-1.38863673895835e+001,-7.32988909931073e-001

3.99465775648511e+005,-1.38872862797542e+001,-7.37115337100996e-001

4.05042110070485e+005,-1.38882049845292e+001,-7.41215413390529e-001

4.10696287220124e+005,-1.38891231512596e+001,-7.45290027152591e-001

4.16429393741414e+005,-1.38900404281322e+001,-7.49340158448112e-001

4.22242531447321e+005,-1.38909564647094e+001,-7.53366878815178e-001

4.28136817531551e+005,-1.38918709124628e+001,-7.57371350861774e-001

4.34113384783250e+005,-1.38927834253017e+001,-7.61354827669977e-001

4.40173381804713e+005,-1.38936936600942e+001,-7.65318652023326e-001

4.46317973232124e+005,-1.38946012771770e+001,-7.69264255464968e-001

4.52548339959385e+005,-1.38955059408559e+001,-7.73193157177960e-001

4.58865679365059e+005,-1.38964073198927e+001,-7.77106962709002e-001

4.65271205542494e+005,-1.38973050879780e+001,-7.81007362527964e-001

4.71766149533147e+005,-1.38981989241893e+001,-7.84896130442050e-001

4.78351759563174e+005,-1.38990885134309e+001,-7.88775121861254e-001

4.85029301283321e+005,-1.38999735468568e+001,-7.92646271933220e-001

4.91800058012158e+005,-1.39008537222748e+001,-7.96511593543712e-001

4.98665330982714e+005,-1.39017287445286e+001,-8.00373175207080e-001

5.05626439592555e+005,-1.39025983258615e+001,-8.04233178839086e-001

5.12684721657352e+005,-1.39034621862552e+001,-8.08093837436003e-001

5.19841533667984e+005,-1.39043200537489e+001,-8.11957452660060e-001

5.27098251051240e+005,-1.39051716647326e+001,-8.15826392347442e-001

5.34456268434150e+005,-1.39060167642185e+001,-8.19703087943132e-001

5.41916999912011e+005,-1.39068551060881e+001,-8.23590031876828e-001

