Freq.,VOut,OutRef

1.00000000000000e+004,-1.63466873038709e+001,-1.84416053409815e-001

1.01395947979003e+004,-1.63466882712911e+001,-1.86990273943940e-001

1.02811382665607e+004,-1.63466892658803e+001,-1.89600423672253e-001

1.04246576084112e+004,-1.63466902884008e+001,-1.92247003911637e-001

1.05701804056138e+004,-1.63466913396363e+001,-1.94930522964649e-001

1.07177346253629e+004,-1.63466924203921e+001,-1.97651496221645e-001

1.08673486252606e+004,-1.63466935314961e+001,-2.00410446256305e-001

1.10190511587661e+004,-1.63466946737997e+001,-2.03207902923569e-001

1.11728713807222e+004,-1.63466958481777e+001,-2.06044403465809e-001

1.13288388529580e+004,-1.63466970555295e+001,-2.08920492611295e-001

1.14869835499703e+004,-1.63466982967800e+001,-2.11836722678502e-001

1.16473358646846e+004,-1.63466995728793e+001,-2.14793653685235e-001

1.18099266142953e+004,-1.63467008848048e+001,-2.17791853450851e-001

1.19747870461893e+004,-1.63467022335606e+001,-2.20831897707221e-001

1.21419488439505e+004,-1.63467036201794e+001,-2.23914370207447e-001

1.23114441334492e+004,-1.63467050457220e+001,-2.27039862839791e-001

1.24833054890161e+004,-1.63467065112799e+001,-2.30208975735122e-001

1.26575659397028e+004,-1.63467080179742e+001,-2.33422317387904e-001

1.28342589756290e+004,-1.63467095669577e+001,-2.36680504766051e-001

1.30134185544193e+004,-1.63467111594154e+001,-2.39984163434246e-001

1.31950791077289e+004,-1.63467127965654e+001,-2.43333927667062e-001

1.33792755478611e+004,-1.63467144796595e+001,-2.46730440576707e-001

1.35660432744767e+004,-1.63467162099850e+001,-2.50174354227679e-001

1.37554181813974e+004,-1.63467179888644e+001,-2.53666329769196e-001

1.39474366635040e+004,-1.63467198176579e+001,-2.57207037553060e-001

1.41421356237309e+004,-1.63467216977630e+001,-2.60797157267659e-001

1.43395524801583e+004,-1.63467236306165e+001,-2.64437378062476e-001

1.45397251732031e+004,-1.63467256176952e+001,-2.68128398683107e-001

1.47426921729110e+004,-1.63467276605170e+001,-2.71870927600459e-001

1.49484924863494e+004,-1.63467297606423e+001,-2.75665683147936e-001

1.51571656651040e+004,-1.63467319196746e+001,-2.79513393658545e-001

1.53687518128801e+004,-1.63467341392624e+001,-2.83414797598477e-001

1.55832915932100e+004,-1.63467364211001e+001,-2.87370643713636e-001

1.58008262372675e+004,-1.63467387669290e+001,-2.91381691167566e-001

1.60213975517924e+004,-1.63467411785391e+001,-2.95448709686461e-001

1.62450479271247e+004,-1.63467436577703e+001,-2.99572479705938e-001

1.64718203453514e+004,-1.63467462065134e+001,-3.03753792517514e-001

1.67017583885674e+004,-1.63467488267118e+001,-3.07993450422027e-001

1.69349062472505e+004,-1.63467515203632e+001,-3.12292266875589e-001

1.71713087287550e+004,-1.63467542895206e+001,-3.16651066649516e-001

1.74110112659224e+004,-1.63467571362942e+001,-3.21070685983482e-001

1.76540599258131e+004,-1.63467600628525e+001,-3.25551972744781e-001

1.79005014185594e+004,-1.63467630714245e+001,-3.30095786587959e-001

1.81503831063432e+004,-1.63467661643009e+001,-3.34702999117624e-001

1.84037530124975e+004,-1.63467693438363e+001,-3.39374494053087e-001

1.86606598307361e+004,-1.63467726124500e+001,-3.44111167395993e-001

1.89211529345119e+004,-1.63467759726288e+001,-3.48913927598300e-001

1.91852823865052e+004,-1.63467794269282e+001,-3.53783695736230e-001

1.94530989482457e+004,-1.63467829779748e+001,-3.58721405678583e-001

1.97246540898671e+004,-1.63467866284676e+001,-3.63728004269227e-001

1.99999999999999e+004,-1.63467903811804e+001,-3.68804451502262e-001

2.02791895958005e+004,-1.63467942389637e+001,-3.73951720701452e-001

2.05622765331213e+004,-1.63467982047470e+001,-3.79170798706536e-001

2.08493152168224e+004,-1.63468022815404e+001,-3.84462686057404e-001

2.11403608112276e+004,-1.63468064724377e+001,-3.89828397181263e-001

2.14354692507258e+004,-1.63468107806177e+001,-3.95268960584735e-001

2.17346972505211e+004,-1.63468152093469e+001,-4.00785419046547e-001

2.20381023175322e+004,-1.63468197619821e+001,-4.06378829812718e-001

2.23457427614443e+004,-1.63468244419727e+001,-4.12050264794852e-001

2.26576777059159e+004,-1.63468292528629e+001,-4.17800810771217e-001

2.29739670999406e+004,-1.63468341982947e+001,-4.23631569591061e-001

2.32946717293690e+004,-1.63468392820101e+001,-4.29543658379229e-001

2.36198532285905e+004,-1.63468445078543e+001,-4.35538209746659e-001

2.39495740923785e+004,-1.63468498797780e+001,-4.41616371999412e-001

2.42838976879009e+004,-1.63468554018406e+001,-4.47779309356894e-001

2.46228882668982e+004,-1.63468610782127e+001,-4.54028202165827e-001

2.49666109780322e+004,-1.63468669131794e+001,-4.60364247122304e-001

2.53151318794055e+004,-1.63468729111433e+001,-4.66788657492522e-001

2.56685179512580e+004,-1.63468790766277e+001,-4.73302663341090e-001

2.60268371088386e+004,-1.63468854142795e+001,-4.79907511757797e-001

2.63901582154578e+004,-1.63468919288731e+001,-4.86604467089837e-001

2.67585510957221e+004,-1.63468986253127e+001,-4.93394811178012e-001

2.71320865489533e+004,-1.63469055086372e+001,-5.00279843590955e-001

2.75108363627948e+004,-1.63469125840223e+001,-5.07260881870084e-001

2.78948733270080e+004,-1.63469198567855e+001,-5.14339261768476e-001

2.82842712474618e+004,-1.63469273323887e+001,-5.21516337503820e-001

2.86791049603164e+004,-1.63469350164424e+001,-5.28793482003177e-001

2.90794503464061e+004,-1.63469429147099e+001,-5.36172087159013e-001

2.94853843458219e+004,-1.63469510331110e+001,-5.43653564084547e-001

2.98969849726987e+004,-1.63469593777261e+001,-5.51239343374366e-001

3.03143313302078e+004,-1.63469679548004e+001,-5.58930875367826e-001

3.07375036257601e+004,-1.63469767707483e+001,-5.66729630413057e-001

3.11665831864199e+004,-1.63469858321577e+001,-5.74637099139909e-001

3.16016524745350e+004,-1.63469951457946e+001,-5.82654792729870e-001

3.20427951035848e+004,-1.63470047186074e+001,-5.90784243195243e-001

3.24900958542493e+004,-1.63470145577323e+001,-5.99027003656851e-001

3.29436406907028e+004,-1.63470246704971e+001,-6.07384648629269e-001

3.34035167771346e+004,-1.63470350644271e+001,-6.15858774306117e-001

3.38698124945009e+004,-1.63470457472496e+001,-6.24450998852258e-001

3.43426174575100e+004,-1.63470567268992e+001,-6.33162962696502e-001

3.48220225318448e+004,-1.63470680115232e+001,-6.41996328829215e-001

3.53081198516260e+004,-1.63470796094865e+001,-6.50952783104588e-001

3.58010028371187e+004,-1.63470915293781e+001,-6.60034034544156e-001

3.63007662126863e+004,-1.63471037800154e+001,-6.69241815648609e-001

3.68075060249948e+004,-1.63471163704511e+001,-6.78577882705209e-001

3.73213196614721e+004,-1.63471293099787e+001,-6.88044016107913e-001

3.78423058690237e+004,-1.63471426081382e+001,-6.97642020676272e-001

3.83705647730104e+004,-1.63471562747225e+001,-7.07373725978949e-001

3.89061978964912e+004,-1.63471703197840e+001,-7.17240986660509e-001

3.94493081797342e+004,-1.63471847536404e+001,-7.27245682775125e-001

3.99999999999998e+004,-1.63471995868813e+001,-7.37389720119903e-001

4.05583791916010e+004,-1.63472148303754e+001,-7.47675030576093e-001

4.11245530662425e+004,-1.63472304952766e+001,-7.58103572450378e-001

4.16986304336447e+004,-1.63472465930315e+001,-7.68677330824246e-001

4.22807216224550e+004,-1.63472631353861e+001,-7.79398317904672e-001

4.28709385014515e+004,-1.63472801343931e+001,-7.90268573379086e-001

4.34693945010421e+004,-1.63472976024191e+001,-8.01290164776609e-001

4.40762046350642e+004,-1.63473155521526e+001,-8.12465187828337e-001

4.46914855228886e+004,-1.63473339966107e+001,-8.23795766840143e-001

4.53153554118317e+004,-1.63473529491478e+001,-8.35284055061119e-001

4.59479341998812e+004,-1.63473724234629e+001,-8.46932235059749e-001

4.65893434587380e+004,-1.63473924336077e+001,-8.58742519106629e-001

4.72397064571810e+004,-1.63474129939947e+001,-8.70717149558782e-001

4.78991481847569e+004,-1.63474341194059e+001,-8.82858399246994e-001

4.85677953758016e+004,-1.63474558250008e+001,-8.95168571869939e-001

4.92457765337964e+004,-1.63474781263250e+001,-9.07650002393459e-001

4.99332219560642e+004,-1.63475010393193e+001,-9.20305057450260e-001

5.06302637588109e+004,-1.63475245803278e+001,-9.33136135748455e-001

5.13370359025159e+004,-1.63475487661074e+001,-9.46145668481001e-001

5.20536742176771e+004,-1.63475736138371e+001,-9.59336119741288e-001

5.27803164309155e+004,-1.63475991411263e+001,-9.72709986944333e-001

5.35171021914442e+004,-1.63476253660250e+001,-9.86269801249251e-001

5.42641730979066e+004,-1.63476523070330e+001,-1.00001812798860e+000

5.50216727255895e+004,-1.63476799831090e+001,-1.01395756710223e+000

5.57897466540159e+004,-1.63477084136808e+001,-1.02809075357560e+000

5.65685424949235e+004,-1.63477376186550e+001,-1.04242035788155e+000

5.73582099206328e+004,-1.63477676184267e+001,-1.05694908642658e+000

5.81589006928121e+004,-1.63477984338894e+001,-1.07167968200508e+000

5.89707686916437e+004,-1.63478300864453e+001,-1.08661492425405e+000

5.97939699453972e+004,-1.63478625980154e+001,-1.10175763011431e+000

6.06286626604156e+004,-1.63478959910492e+001,-1.11711065429774e+000

6.14750072515201e+004,-1.63479302885358e+001,-1.13267688975603e+000

6.23331663728396e+004,-1.63479655140136e+001,-1.14845926815818e+000

6.32033049490698e+004,-1.63480016915809e+001,-1.16446076036939e+000

6.40855902071694e+004,-1.63480388459062e+001,-1.18068437693717e+000

6.49801917084985e+004,-1.63480770022390e+001,-1.19713316858002e+000

6.58872813814055e+004,-1.63481161864195e+001,-1.21381022668465e+000

6.68070335542691e+004,-1.63481564248903e+001,-1.23071868380266e+000

6.77396249890018e+004,-1.63481977447053e+001,-1.24786171415959e+000

6.86852349150199e+004,-1.63482401735416e+001,-1.26524253416095e+000

6.96440450636895e+004,-1.63482837397088e+001,-1.28286440291034e+000

7.06162397032520e+004,-1.63483284721603e+001,-1.30073062272687e+000

7.16020056742374e+004,-1.63483744005027e+001,-1.31884453967301e+000

7.26015324253724e+004,-1.63484215550065e+001,-1.33720954408426e+000

7.36150120499896e+004,-1.63484699666163e+001,-1.35582907110460e+000

7.46426393229441e+004,-1.63485196669605e+001,-1.37470660122829e+000

7.56846117380472e+004,-1.63485706883611e+001,-1.39384566084663e+000

7.67411295460207e+004,-1.63486230638439e+001,-1.41324982279895e+000

7.78123957929823e+004,-1.63486768271472e+001,-1.43292270693310e+000

7.88986163594682e+004,-1.63487320127319e+001,-1.45286798066593e+000

7.99999999999995e+004,-1.63487886557901e+001,-1.47308935955395e+000

8.11167583832018e+004,-1.63488467922540e+001,-1.49359060786825e+000

8.22491061324848e+004,-1.63489064588044e+001,-1.51437553917517e+000

8.33972608672892e+004,-1.63489676928792e+001,-1.53544801692392e+000

8.45614432449099e+004,-1.63490305326809e+001,-1.55681195503840e+000

8.57418770029029e+004,-1.63490950171844e+001,-1.57847131851913e+000

8.69387890020841e+004,-1.63491611861439e+001,-1.60043012404636e+000

8.81524092701283e+004,-1.63492290801000e+001,-1.62269244059502e+000

8.93829710457770e+004,-1.63492987403853e+001,-1.64526239005304e+000

9.06307108236633e+004,-1.63493702091307e+001,-1.66814414784735e+000

9.18958683997622e+004,-1.63494435292707e+001,-1.69134194357808e+000

9.31786869174758e+004,-1.63495187445473e+001,-1.71486006165879e+000

9.44794129143618e+004,-1.63495958995146e+001,-1.73870284196553e+000

9.57982963695136e+004,-1.63496750395425e+001,-1.76287468049152e+000

9.71355907516031e+004,-1.63497562108185e+001,-1.78738003001360e+000

9.84915530675926e+004,-1.63498394603505e+001,-1.81222340076167e+000

9.98664439121282e+004,-1.63499248359676e+001,-1.83740936110251e+000

1.01260527517622e+005,-1.63500123863209e+001,-1.86294253822802e+000

1.02674071805032e+005,-1.63501021608826e+001,-1.88882761885489e+000

1.04107348435354e+005,-1.63501942099451e+001,-1.91506934993347e+000

1.05560632861831e+005,-1.63502885846185e+001,-1.94167253936604e+000

1.07034204382888e+005,-1.63503853368277e+001,-1.96864205673545e+000

1.08528346195813e+005,-1.63504845193076e+001,-1.99598283404571e+000

1.10043345451179e+005,-1.63505861855987e+001,-2.02369986647217e+000

1.11579493308032e+005,-1.63506903900397e+001,-2.05179821312380e+000

1.13137084989847e+005,-1.63507971877607e+001,-2.08028299781815e+000

1.14716419841265e+005,-1.63509066346742e+001,-2.10915940986870e+000

1.16317801385624e+005,-1.63510187874651e+001,-2.13843270488491e+000

1.17941537383287e+005,-1.63511337035795e+001,-2.16810820558647e+000

1.19587939890794e+005,-1.63512514412122e+001,-2.19819130263239e+000

1.21257325320831e+005,-1.63513720592927e+001,-2.22868745546367e+000

1.22950014503040e+005,-1.63514956174701e+001,-2.25960219316395e+000

1.24666332745679e+005,-1.63516221760963e+001,-2.29094111533411e+000

1.26406609898139e+005,-1.63517517962076e+001,-2.32270989298607e+000

1.28171180414339e+005,-1.63518845395056e+001,-2.35491426945274e+000

1.29960383416997e+005,-1.63520204683355e+001,-2.38756006131915e+000

1.31774562762811e+005,-1.63521596456639e+001,-2.42065315936951e+000

1.33614067108538e+005,-1.63523021350544e+001,-2.45419952955891e+000

1.35479249978003e+005,-1.63524480006415e+001,-2.48820521400320e+000

1.37370469830040e+005,-1.63525973071040e+001,-2.52267633199278e+000

1.39288090127379e+005,-1.63527501196352e+001,-2.55761908102950e+000

1.41232479406504e+005,-1.63529065039133e+001,-2.59303973788718e+000

1.43204011348474e+005,-1.63530665260685e+001,-2.62894465969860e+000

1.45203064850745e+005,-1.63532302526501e+001,-2.66534028506819e+000

1.47230024099979e+005,-1.63533977505908e+001,-2.70223313521249e+000

1.49285278645888e+005,-1.63535690871703e+001,-2.73962981512925e+000

1.51369223476094e+005,-1.63537443299775e+001,-2.77753701479717e+000

1.53482259092041e+005,-1.63539235468700e+001,-2.81596151040528e+000

1.55624791585964e+005,-1.63541068059344e+001,-2.85491016561605e+000

1.57797232718936e+005,-1.63542941754432e+001,-2.89438993286084e+000

1.59999999999999e+005,-1.63544857238116e+001,-2.93440785467160e+000

1.62233516766403e+005,-1.63546815195529e+001,-2.97497106504716e+000

1.64498212264969e+005,-1.63548816312331e+001,-3.01608679085811e+000

1.66794521734578e+005,-1.63550861274238e+001,-3.05776235328845e+000

1.69122886489819e+005,-1.63552950766549e+001,-3.10000516932030e+000

1.71483754005805e+005,-1.63555085473668e+001,-3.14282275325673e+000

1.73877578004168e+005,-1.63557266078610e+001,-3.18622271828919e+000

1.76304818540256e+005,-1.63559493262519e+001,-3.23021277810693e+000

1.78765942091554e+005,-1.63561767704163e+001,-3.27480074855402e+000

1.81261421647326e+005,-1.63564090079449e+001,-3.31999454932934e+000

1.83791736799524e+005,-1.63566461060927e+001,-3.36580220573776e+000

1.86357373834951e+005,-1.63568881317297e+001,-3.41223185048629e+000

1.88958825828723e+005,-1.63571351512932e+001,-3.45929172553310e+000

1.91596592739027e+005,-1.63573872307394e+001,-3.50699018398539e+000

1.94271181503206e+005,-1.63576444354977e+001,-3.55533569204998e+000

1.96983106135185e+005,-1.63579068304247e+001,-3.60433683103716e+000

1.99732887824256e+005,-1.63581744797612e+001,-3.65400229941719e+000

2.02521055035243e+005,-1.63584474470900e+001,-3.70434091493166e+000

2.05348143610063e+005,-1.63587257952966e+001,-3.75536161676099e+000

2.08214696870707e+005,-1.63590095865317e+001,-3.80707346774662e+000

2.11121265723661e+005,-1.63592988821776e+001,-3.85948565667024e+000

2.14068408765776e+005,-1.63595937428163e+001,-3.91260750059045e+000

2.17056692391625e+005,-1.63598942282023e+001,-3.96644844723403e+000

2.20086690902357e+005,-1.63602003972387e+001,-4.02101807744846e+000

2.23158986616063e+005,-1.63605123079577e+001,-4.07632610770818e+000

2.26274169979693e+005,-1.63608300175049e+001,-4.13238239268004e+000

2.29432839682530e+005,-1.63611535821303e+001,-4.18919692784495e+000

2.32635602771247e+005,-1.63614830571823e+001,-4.24677985217675e+000

2.35883074766574e+005,-1.63618184971093e+001,-4.30514145087715e+000

2.39175879781588e+005,-1.63621599554664e+001,-4.36429215816527e+000

2.42514650641661e+005,-1.63625074849283e+001,-4.42424256012239e+000

2.45900029006080e+005,-1.63628611373101e+001,-4.48500339759053e+000

2.49332665491357e+005,-1.63632209635940e+001,-4.54658556912272e+000

2.52813219796278e+005,-1.63635870139643e+001,-4.60900013398473e+000

2.56342360828676e+005,-1.63639593378496e+001,-4.67225831520613e+000

2.59920766833993e+005,-1.63643379839742e+001,-4.73637150267970e+000

2.63549125525621e+005,-1.63647230004170e+001,-4.80135125630579e+000

2.67228134217075e+005,-1.63651144346794e+001,-4.86720930918237e+000

2.70958499956006e+005,-1.63655123337628e+001,-4.93395757083547e+000

2.74740939660078e+005,-1.63659167442554e+001,-5.00160813049036e+000

2.78576180254757e+005,-1.63663277124277e+001,-5.07017326037941e+000

2.82464958813007e+005,-1.63667452843391e+001,-5.13966541908531e+000

2.86408022696948e+005,-1.63671695059537e+001,-5.21009725491572e+000

2.90406129701488e+005,-1.63676004232665e+001,-5.28148160930797e+000

2.94460048199957e+005,-1.63680380824404e+001,-5.35383152025969e+000

2.98570557291775e+005,-1.63684825299530e+001,-5.42716022578305e+000

3.02738446952187e+005,-1.63689338127545e+001,-5.50148116738104e+000

3.06964518184081e+005,-1.63693919784355e+001,-5.57680799353855e+000

3.11249583171928e+005,-1.63698570754066e+001,-5.65315456323149e+000

3.15594465437872e+005,-1.63703291530875e+001,-5.73053494944380e+000

3.19999999999997e+005,-1.63708082621070e+001,-5.80896344269595e+000

3.24467033532806e+005,-1.63712944545139e+001,-5.88845455457667e+000

3.28996424529938e+005,-1.63717877839977e+001,-5.96902302127833e+000

3.33589043469155e+005,-1.63722883061196e+001,-6.05068380713091e+000

3.38245772979638e+005,-1.63727960785541e+001,-6.13345210813231e+000

3.42967508011610e+005,-1.63733111613394e+001,-6.21734335547359e+000

3.47755156008335e+005,-1.63738336171384e+001,-6.30237321905423e+000

3.52609637080511e+005,-1.63743635115081e+001,-6.38855761098593e+000

3.57531884183106e+005,-1.63749009131784e+001,-6.47591268908307e+000

3.62522843294651e+005,-1.63754458943395e+001,-6.56445486033715e+000

3.67583473599047e+005,-1.63759985309375e+001,-6.65420078437232e+000

3.72714747669902e+005,-1.63765589029779e+001,-6.74516737688228e+000

3.77917651657445e+005,-1.63771270948362e+001,-6.83737181304425e+000

3.83193185478053e+005,-1.63777031955760e+001,-6.93083153091110e+000

3.88542363006410e+005,-1.63782872992739e+001,-7.02556423477909e+000

3.93966212270369e+005,-1.63788795053493e+001,-7.12158789852994e+000

3.99465775648511e+005,-1.63794799189014e+001,-7.21892076894816e+000

4.05042110070485e+005,-1.63800886510505e+001,-7.31758136901176e+000

4.10696287220124e+005,-1.63807058192842e+001,-7.41758850115606e+000

4.16429393741414e+005,-1.63813315478076e+001,-7.51896125051274e+000

4.22242531447321e+005,-1.63819659678982e+001,-7.62171898812124e+000

4.28136817531551e+005,-1.63826092182626e+001,-7.72588137411653e+000

4.34113384783250e+005,-1.63832614453977e+001,-7.83146836089119e+000

4.40173381804713e+005,-1.63839228039531e+001,-7.93850019623453e+000

4.46317973232124e+005,-1.63845934570960e+001,-8.04699742645029e+000

4.52548339959385e+005,-1.63852735768775e+001,-8.15698089945279e+000

4.58865679365059e+005,-1.63859633446009e+001,-8.26847176784547e+000

4.65271205542494e+005,-1.63866629511890e+001,-8.38149149198204e+000

4.71766149533147e+005,-1.63873725975544e+001,-8.49606184301276e+000

4.78351759563174e+005,-1.63880924949678e+001,-8.61220490591989e+000

4.85029301283321e+005,-1.63888228654275e+001,-8.72994308254165e+000

4.91800058012158e+005,-1.63895639420284e+001,-8.84929909459091e+000

4.98665330982714e+005,-1.63903159693301e+001,-8.97029598666716e+000

5.05626439592555e+005,-1.63910792037251e+001,-9.09295712926982e+000

5.12684721657352e+005,-1.63918539138052e+001,-9.21730622181052e+000

5.19841533667984e+005,-1.63926403807279e+001,-9.34336729563055e+000

5.27098251051240e+005,-1.63934388985816e+001,-9.47116471702698e+000

5.34456268434150e+005,-1.63942497747496e+001,-9.60072319028689e+000

5.41916999912011e+005,-1.63950733302735e+001,-9.73206776073691e+000

