Freq.,VOut,OutRef

1.00000000000000e+004,-2.03531531203083e+001,-2.07556262332363e-001

1.01395947979003e+004,-2.03531558141019e+001,-2.10453244987040e-001

1.02811382665607e+004,-2.03531585835418e+001,-2.13390651261678e-001

1.04246576084112e+004,-2.03531614307499e+001,-2.16369044738363e-001

1.05701804056138e+004,-2.03531643579072e+001,-2.19388996837867e-001

1.07177346253629e+004,-2.03531673672557e+001,-2.22451086925231e-001

1.08673486252606e+004,-2.03531704611004e+001,-2.25555902420137e-001

1.10190511587661e+004,-2.03531736418107e+001,-2.28704038908853e-001

1.11728713807222e+004,-2.03531769118223e+001,-2.31896100255514e-001

1.13288388529580e+004,-2.03531802736389e+001,-2.35132698716587e-001

1.14869835499703e+004,-2.03531837298341e+001,-2.38414455059507e-001

1.16473358646846e+004,-2.03531872830536e+001,-2.41741998673329e-001

1.18099266142953e+004,-2.03531909360171e+001,-2.45115967693689e-001

1.19747870461893e+004,-2.03531946915201e+001,-2.48537009119842e-001

1.21419488439505e+004,-2.03531985524364e+001,-2.52005778936866e-001

1.23114441334492e+004,-2.03532025217200e+001,-2.55522942240023e-001

1.24833054890161e+004,-2.03532066024073e+001,-2.59089173360237e-001

1.26575659397028e+004,-2.03532107976195e+001,-2.62705155989511e-001

1.28342589756290e+004,-2.03532151105652e+001,-2.66371583308819e-001

1.30134185544193e+004,-2.03532195445423e+001,-2.70089158122368e-001

1.31950791077289e+004,-2.03532241029409e+001,-2.73858592984641e-001

1.33792755478611e+004,-2.03532287892455e+001,-2.77680610336736e-001

1.35660432744767e+004,-2.03532336070381e+001,-2.81555942642131e-001

1.37554181813974e+004,-2.03532385600001e+001,-2.85485332522425e-001

1.39474366635040e+004,-2.03532436519162e+001,-2.89469532896760e-001

1.41421356237309e+004,-2.03532488866760e+001,-2.93509307123905e-001

1.43395524801583e+004,-2.03532542682779e+001,-2.97605429142739e-001

1.45397251732031e+004,-2.03532598008316e+001,-3.01758683618664e-001

1.47426921729110e+004,-2.03532654885613e+001,-3.05969866089803e-001

1.49484924863494e+004,-2.03532713358086e+001,-3.10239783114712e-001

1.51571656651040e+004,-2.03532773470364e+001,-3.14569252422972e-001

1.53687518128801e+004,-2.03532835268314e+001,-3.18959103067219e-001

1.55832915932100e+004,-2.03532898799084e+001,-3.23410175577008e-001

1.58008262372675e+004,-2.03532964111129e+001,-3.27923322117487e-001

1.60213975517924e+004,-2.03533031254253e+001,-3.32499406643778e-001

1.62450479271247e+004,-2.03533100279647e+001,-3.37139305062805e-001

1.64718203453514e+004,-2.03533171239921e+001,-3.41843905397765e-001

1.67017583885674e+004,-2.03533244189149e+001,-3.46614107949320e-001

1.69349062472505e+004,-2.03533319182907e+001,-3.51450825462875e-001

1.71713087287550e+004,-2.03533396278313e+001,-3.56354983298687e-001

1.74110112659224e+004,-2.03533475534070e+001,-3.61327519601393e-001

1.76540599258131e+004,-2.03533557010512e+001,-3.66369385471763e-001

1.79005014185594e+004,-2.03533640769642e+001,-3.71481545145416e-001

1.81503831063432e+004,-2.03533726875187e+001,-3.76664976164698e-001

1.84037530124975e+004,-2.03533815392636e+001,-3.81920669563713e-001

1.86606598307361e+004,-2.03533906389295e+001,-3.87249630046004e-001

1.89211529345119e+004,-2.03533999934332e+001,-3.92652876170658e-001

1.91852823865052e+004,-2.03534096098829e+001,-3.98131440538271e-001

1.94530989482457e+004,-2.03534194955838e+001,-4.03686369977270e-001

1.97246540898671e+004,-2.03534296580426e+001,-4.09318725739704e-001

1.99999999999999e+004,-2.03534401049739e+001,-4.15029583689098e-001

2.02791895958005e+004,-2.03534508443052e+001,-4.20820034500011e-001

2.05622765331213e+004,-2.03534618841829e+001,-4.26691183854291e-001

2.08493152168224e+004,-2.03534732329784e+001,-4.32644152640596e-001

2.11403608112276e+004,-2.03534848992939e+001,-4.38680077159938e-001

2.14354692507258e+004,-2.03534968919688e+001,-4.44800109328888e-001

2.17346972505211e+004,-2.03535092200860e+001,-4.51005416886994e-001

2.20381023175322e+004,-2.03535218929787e+001,-4.57297183608476e-001

2.23457427614443e+004,-2.03535349202366e+001,-4.63676609514491e-001

2.26576777059159e+004,-2.03535483117137e+001,-4.70144911087201e-001

2.29739670999406e+004,-2.03535620775345e+001,-4.76703321489082e-001

2.32946717293690e+004,-2.03535762281016e+001,-4.83353090782466e-001

2.36198532285905e+004,-2.03535907741034e+001,-4.90095486152015e-001

2.39495740923785e+004,-2.03536057265213e+001,-4.96931792131238e-001

2.42838976879009e+004,-2.03536210966381e+001,-5.03863310828393e-001

2.46228882668982e+004,-2.03536368960454e+001,-5.10891362160169e-001

2.49666109780322e+004,-2.03536531366523e+001,-5.18017284081354e-001

2.53151318794055e+004,-2.03536698306934e+001,-5.25242432824901e-001

2.56685179512580e+004,-2.03536869907380e+001,-5.32568183136208e-001

2.60268371088386e+004,-2.03537046296987e+001,-5.39995928516696e-001

2.63901582154578e+004,-2.03537227608402e+001,-5.47527081466846e-001

2.67585510957221e+004,-2.03537413977890e+001,-5.55163073734193e-001

2.71320865489533e+004,-2.03537605545429e+001,-5.62905356559371e-001

2.75108363627948e+004,-2.03537802454807e+001,-5.70755400930841e-001

2.78948733270080e+004,-2.03538004853719e+001,-5.78714697838326e-001

2.82842712474618e+004,-2.03538212893877e+001,-5.86784758529868e-001

2.86791049603164e+004,-2.03538426731105e+001,-5.94967114772236e-001

2.90794503464061e+004,-2.03538646525456e+001,-6.03263319113822e-001

2.94853843458219e+004,-2.03538872441315e+001,-6.11674945148924e-001

2.98969849726987e+004,-2.03539104647517e+001,-6.20203587787327e-001

3.03143313302078e+004,-2.03539343317458e+001,-6.28850863522937e-001

3.07375036257601e+004,-2.03539588629214e+001,-6.37618410710454e-001

3.11665831864199e+004,-2.03539840765666e+001,-6.46507889838766e-001

3.16016524745350e+004,-2.03540099914615e+001,-6.55520983811464e-001

3.20427951035848e+004,-2.03540366268919e+001,-6.64659398226921e-001

3.24900958542493e+004,-2.03540640026612e+001,-6.73924861665958e-001

3.29436406907028e+004,-2.03540921391043e+001,-6.83319125973585e-001

3.34035167771346e+004,-2.03541210571008e+001,-6.92843966554956e-001

3.38698124945009e+004,-2.03541507780892e+001,-7.02501182660821e-001

3.43426174575100e+004,-2.03541813240804e+001,-7.12292597689232e-001

3.48220225318448e+004,-2.03542127176726e+001,-7.22220059479123e-001

3.53081198516260e+004,-2.03542449820661e+001,-7.32285440609773e-001

3.58010028371187e+004,-2.03542781410782e+001,-7.42490638707803e-001

3.63007662126863e+004,-2.03543122191582e+001,-7.52837576748536e-001

3.68075060249948e+004,-2.03543472414041e+001,-7.63328203366256e-001

3.73213196614721e+004,-2.03543832335777e+001,-7.73964493162670e-001

3.78423058690237e+004,-2.03544202221213e+001,-7.84748447023025e-001

3.83705647730104e+004,-2.03544582341747e+001,-7.95682092427506e-001

3.89061978964912e+004,-2.03544972975919e+001,-8.06767483772262e-001

3.94493081797342e+004,-2.03545374409587e+001,-8.18006702688178e-001

3.99999999999998e+004,-2.03545786936101e+001,-8.29401858363595e-001

4.05583791916010e+004,-2.03546210856489e+001,-8.40955087869687e-001

4.11245530662425e+004,-2.03546646479638e+001,-8.52668556486526e-001

4.16986304336447e+004,-2.03547094122481e+001,-8.64544458033887e-001

4.22807216224550e+004,-2.03547554110190e+001,-8.76585015202147e-001

4.28709385014515e+004,-2.03548026776372e+001,-8.88792479884766e-001

4.34693945010421e+004,-2.03548512463266e+001,-9.01169133515849e-001

4.40762046350642e+004,-2.03549011521941e+001,-9.13717287407323e-001

4.46914855228886e+004,-2.03549524312508e+001,-9.26439283088733e-001

4.53153554118317e+004,-2.03550051204325e+001,-9.39337492647246e-001

4.59479341998812e+004,-2.03550592576209e+001,-9.52414319073291e-001

4.65893434587380e+004,-2.03551148816651e+001,-9.65672196604895e-001

4.72397064571810e+004,-2.03551720324038e+001,-9.79113591073906e-001

4.78991481847569e+004,-2.03552307506872e+001,-9.92741000255524e-001

4.85677953758016e+004,-2.03552910783998e+001,-1.00655695421658e+000

4.92457765337964e+004,-2.03553530584833e+001,-1.02056401566918e+000

4.99332219560642e+004,-2.03554167349594e+001,-1.03476478032157e+000

5.06302637588109e+004,-2.03554821529538e+001,-1.04916187723312e+000

5.13370359025159e+004,-2.03555493587197e+001,-1.06375796917018e+000

5.20536742176771e+004,-2.03556183996621e+001,-1.07855575296081e+000

5.27803164309155e+004,-2.03556893243622e+001,-1.09355795985340e+000

5.35171021914442e+004,-2.03557621826017e+001,-1.10876735587435e+000

5.42641730979066e+004,-2.03558370253882e+001,-1.12418674218762e+000

5.50216727255895e+004,-2.03559139049800e+001,-1.13981895545464e+000

5.57897466540159e+004,-2.03559928749117e+001,-1.15566686819374e+000

5.65685424949235e+004,-2.03560739900197e+001,-1.17173338914186e+000

5.73582099206328e+004,-2.03561573064680e+001,-1.18802146361607e+000

5.81589006928121e+004,-2.03562428817740e+001,-1.20453407387478e+000

5.89707686916437e+004,-2.03563307748350e+001,-1.22127423947933e+000

5.97939699453972e+004,-2.03564210459543e+001,-1.23824501765549e+000

6.06286626604156e+004,-2.03565137568671e+001,-1.25544950365740e+000

6.14750072515201e+004,-2.03566089707675e+001,-1.27289083112630e+000

6.23331663728396e+004,-2.03567067523348e+001,-1.29057217245410e+000

6.32033049490698e+004,-2.03568071677598e+001,-1.30849673914306e+000

6.40855902071694e+004,-2.03569102847716e+001,-1.32666778216736e+000

6.49801917084985e+004,-2.03570161726636e+001,-1.34508859233230e+000

6.58872813814055e+004,-2.03571249023203e+001,-1.36376250063458e+000

6.68070335542691e+004,-2.03572365462429e+001,-1.38269287861967e+000

6.77396249890018e+004,-2.03573511785763e+001,-1.40188313873979e+000

6.86852349150199e+004,-2.03574688751339e+001,-1.42133673471053e+000

6.96440450636895e+004,-2.03575897134235e+001,-1.44105716186767e+000

7.06162397032520e+004,-2.03577137726731e+001,-1.46104795751923e+000

7.16020056742374e+004,-2.03578411338550e+001,-1.48131270130038e+000

7.26015324253724e+004,-2.03579718797107e+001,-1.50185501552486e+000

7.36150120499896e+004,-2.03581060947748e+001,-1.52267856553515e+000

7.46426393229441e+004,-2.03582438653986e+001,-1.54378706005193e+000

7.56846117380472e+004,-2.03583852797726e+001,-1.56518425152252e+000

7.67411295460207e+004,-2.03585304279491e+001,-1.58687393646500e+000

7.78123957929823e+004,-2.03586794018632e+001,-1.60885995581493e+000

7.88986163594682e+004,-2.03588322953539e+001,-1.63114619526804e+000

7.99999999999995e+004,-2.03589892041834e+001,-1.65373658562101e+000

8.11167583832018e+004,-2.03591502260562e+001,-1.67663510311262e+000

8.22491061324848e+004,-2.03593154606365e+001,-1.69984576976307e+000

8.33972608672892e+004,-2.03594850095650e+001,-1.72337265371040e+000

8.45614432449099e+004,-2.03596589764738e+001,-1.74721986954792e+000

8.57418770029029e+004,-2.03598374670010e+001,-1.77139157865886e+000

8.69387890020841e+004,-2.03600205888028e+001,-1.79589198955072e+000

8.81524092701283e+004,-2.03602084515643e+001,-1.82072535818999e+000

8.93829710457770e+004,-2.03604011670094e+001,-1.84589598833315e+000

9.06307108236633e+004,-2.03605988489082e+001,-1.87140823186135e+000

9.18958683997622e+004,-2.03608016130824e+001,-1.89726648911222e+000

9.31786869174758e+004,-2.03610095774096e+001,-1.92347520921201e+000

9.44794129143618e+004,-2.03612228618246e+001,-1.95003889041122e+000

9.57982963695136e+004,-2.03614415883189e+001,-1.97696208041739e+000

9.71355907516031e+004,-2.03616658809379e+001,-2.00424937673231e+000

9.84915530675926e+004,-2.03618958657755e+001,-2.03190542698868e+000

9.98664439121282e+004,-2.03621316709661e+001,-2.05993492929279e+000

1.01260527517622e+005,-2.03623734266737e+001,-2.08834263256595e+000

1.02674071805032e+005,-2.03626212650786e+001,-2.11713333689416e+000

1.04107348435354e+005,-2.03628753203608e+001,-2.14631189387723e+000

1.05560632861831e+005,-2.03631357286798e+001,-2.17588320698899e+000

1.07034204382888e+005,-2.03634026281522e+001,-2.20585223193803e+000

1.08528346195813e+005,-2.03636761588248e+001,-2.23622397703922e+000

1.10043345451179e+005,-2.03639564626447e+001,-2.26700350359089e+000

1.11579493308032e+005,-2.03642436834256e+001,-2.29819592626327e+000

1.13137084989847e+005,-2.03645379668104e+001,-2.32980641349480e+000

1.14716419841265e+005,-2.03648394602292e+001,-2.36184018790090e+000

1.16317801385624e+005,-2.03651483128539e+001,-2.39430252669583e+000

1.17941537383287e+005,-2.03654646755487e+001,-2.42719876212741e+000

1.19587939890794e+005,-2.03657887008149e+001,-2.46053428192863e+000

1.21257325320831e+005,-2.03661205427329e+001,-2.49431452978481e+000

1.22950014503040e+005,-2.03664603568983e+001,-2.52854500582030e+000

1.24666332745679e+005,-2.03668083003541e+001,-2.56323126710598e+000

1.26406609898139e+005,-2.03671645315174e+001,-2.59837892818836e+000

1.28171180414339e+005,-2.03675292101017e+001,-2.63399366164275e+000

1.29960383416997e+005,-2.03679024970338e+001,-2.67008119865353e+000

1.31774562762811e+005,-2.03682845543657e+001,-2.70664732962209e+000

1.33614067108538e+005,-2.03686755451815e+001,-2.74369790480499e+000

1.35479249978003e+005,-2.03690756334986e+001,-2.78123883498667e+000

1.37370469830040e+005,-2.03694849841645e+001,-2.81927609218512e+000

1.39288090127379e+005,-2.03699037627469e+001,-2.85781571039832e+000

1.41232479406504e+005,-2.03703321354200e+001,-2.89686378638787e+000

1.43204011348474e+005,-2.03707702688447e+001,-2.93642648050859e+000

1.45203064850745e+005,-2.03712183300431e+001,-2.97651001758245e+000

1.47230024099979e+005,-2.03716764862690e+001,-3.01712068782269e+000

1.49285278645888e+005,-2.03721449048720e+001,-3.05826484780800e+000

1.51369223476094e+005,-2.03726237531572e+001,-3.09994892151305e+000

1.53482259092041e+005,-2.03731131982397e+001,-3.14217940139668e+000

1.55624791585964e+005,-2.03736134068946e+001,-3.18496284955088e+000

1.57797232718936e+005,-2.03741245454019e+001,-3.22830589891407e+000

1.59999999999999e+005,-2.03746467793869e+001,-3.27221525455334e+000

1.62233516766403e+005,-2.03751802736573e+001,-3.31669769501488e+000

1.64498212264969e+005,-2.03757251920355e+001,-3.36176007375204e+000

1.66794521734578e+005,-2.03762816971867e+001,-3.40740932062885e+000

1.69122886489819e+005,-2.03768499504458e+001,-3.45365244350448e+000

1.71483754005805e+005,-2.03774301116388e+001,-3.50049652990333e+000

1.73877578004168e+005,-2.03780223389033e+001,-3.54794874877222e+000

1.76304818540256e+005,-2.03786267885067e+001,-3.59601635232727e+000

1.78765942091554e+005,-2.03792436146620e+001,-3.64470667799689e+000

1.81261421647326e+005,-2.03798729693432e+001,-3.69402715046030e+000

1.83791736799524e+005,-2.03805150021001e+001,-3.74398528378754e+000

1.86357373834951e+005,-2.03811698598728e+001,-3.79458868368188e+000

1.88958825828723e+005,-2.03818376868073e+001,-3.84584504982763e+000

1.91596592739027e+005,-2.03825186240720e+001,-3.89776217834844e+000

1.94271181503206e+005,-2.03832128096769e+001,-3.95034796437430e+000

1.96983106135185e+005,-2.03839203782948e+001,-4.00361040472392e+000

1.99732887824256e+005,-2.03846414610871e+001,-4.05755760070038e+000

2.02521055035243e+005,-2.03853761855338e+001,-4.11219776100466e+000

2.05348143610063e+005,-2.03861246752680e+001,-4.16753920476843e+000

2.08214696870707e+005,-2.03868870499176e+001,-4.22359036470556e+000

2.11121265723661e+005,-2.03876634249541e+001,-4.28035979038475e+000

2.14068408765776e+005,-2.03884539115493e+001,-4.33785615162214e+000

2.17056692391625e+005,-2.03892586164405e+001,-4.39608824199754e+000

2.20086690902357e+005,-2.03900776418074e+001,-4.45506498249051e+000

2.23158986616063e+005,-2.03909110851586e+001,-4.51479542523602e+000

2.26274169979693e+005,-2.03917590392311e+001,-4.57528875740219e+000

2.29432839682530e+005,-2.03926215919028e+001,-4.63655430518432e+000

2.32635602771247e+005,-2.03934988261199e+001,-4.69860153791607e+000

2.35883074766574e+005,-2.03943908198385e+001,-4.76144007229392e+000

2.39175879781588e+005,-2.03952976459841e+001,-4.82507967671397e+000

2.42514650641661e+005,-2.03962193724274e+001,-4.88953027571527e+000

2.45900029006080e+005,-2.03971560619797e+001,-4.95480195452777e+000

2.49332665491357e+005,-2.03981077724069e+001,-5.02090496372069e+000

2.52813219796278e+005,-2.03990745564650e+001,-5.08784972394465e+000

2.56342360828676e+005,-2.04000564619567e+001,-5.15564683076439e+000

2.59920766833993e+005,-2.04010535318103e+001,-5.22430705957469e+000

2.63549125525621e+005,-2.04020658041828e+001,-5.29384137059528e+000

2.67228134217075e+005,-2.04030933125867e+001,-5.36426091393468e+000

2.70958499956006e+005,-2.04041360860413e+001,-5.43557703472043e+000

2.74740939660078e+005,-2.04051941492514e+001,-5.50780127828315e+000

2.78576180254757e+005,-2.04062675228106e+001,-5.58094539539040e+000

2.82464958813007e+005,-2.04073562234330e+001,-5.65502134751937e+000

2.86408022696948e+005,-2.04084602642119e+001,-5.73004131216223e+000

2.90406129701488e+005,-2.04095796549062e+001,-5.80601768815194e+000

2.94460048199957e+005,-2.04107144022557e+001,-5.88296310100140e+000

2.98570557291775e+005,-2.04118645103251e+001,-5.96089040824662e+000

3.02738446952187e+005,-2.04130299808757e+001,-6.03981270478264e+000

3.06964518184081e+005,-2.04142108137672e+001,-6.11974332818315e+000

3.11249583171928e+005,-2.04154070073874e+001,-6.20069586399428e+000

3.15594465437872e+005,-2.04166185591109e+001,-6.28268415099193e+000

3.19999999999997e+005,-2.04178454657859e+001,-6.36572228639248e+000

3.24467033532806e+005,-2.04190877242496e+001,-6.44982463100753e+000

3.28996424529938e+005,-2.04203453318702e+001,-6.53500581433318e+000

3.33589043469155e+005,-2.04216182871169e+001,-6.62128073956237e+000

3.38245772979638e+005,-2.04229065901554e+001,-6.70866458851373e+000

3.42967508011610e+005,-2.04242102434695e+001,-6.79717282646523e+000

3.47755156008335e+005,-2.04255292525074e+001,-6.88682120688523e+000

3.52609637080511e+005,-2.04268636263511e+001,-6.97762577605292e+000

3.57531884183106e+005,-2.04282133784091e+001,-7.06960287755905e+000

3.62522843294651e+005,-2.04295785271305e+001,-7.16276915668003e+000

3.67583473599047e+005,-2.04309590967396e+001,-7.25714156461945e+000

3.72714747669902e+005,-2.04323551179887e+001,-7.35273736260973e+000

3.77917651657445e+005,-2.04337666289299e+001,-7.44957412586829e+000

3.83193185478053e+005,-2.04351936757020e+001,-7.54766974740404e+000

3.88542363006410e+005,-2.04366363133333e+001,-7.64704244166895e+000

3.93966212270369e+005,-2.04380946065567e+001,-7.74771074805286e+000

3.99465775648511e+005,-2.04395686306377e+001,-7.84969353421588e+000

4.05042110070485e+005,-2.04410584722116e+001,-7.95300999925938e+000

4.10696287220124e+005,-2.04425642301303e+001,-8.05767967673302e+000

4.16429393741414e+005,-2.04440860163162e+001,-8.16372243747609e+000

4.22242531447321e+005,-2.04456239566209e+001,-8.27115849229589e+000

4.28136817531551e+005,-2.04471781916893e+001,-8.38000839448256e+000

4.34113384783250e+005,-2.04487488778251e+001,-8.49029304216193e+000

4.40173381804713e+005,-2.04503361878585e+001,-8.60203368049064e+000

4.46317973232124e+005,-2.04519403120123e+001,-8.71525190369440e+000

4.52548339959385e+005,-2.04535614587683e+001,-8.82996965695544e+000

4.58865679365059e+005,-2.04551998557284e+001,-8.94620923815270e+000

4.65271205542494e+005,-2.04568557504738e+001,-9.06399329945870e+000

4.71766149533147e+005,-2.04585294114171e+001,-9.18334484880244e+000

4.78351759563174e+005,-2.04602211286490e+001,-9.30428725119959e+000

4.85029301283321e+005,-2.04619312147773e+001,-9.42684422996148e+000

4.91800058012158e+005,-2.04636600057578e+001,-9.55103986778632e+000

4.98665330982714e+005,-2.04654078617157e+001,-9.67689860774237e+000

5.05626439592555e+005,-2.04671751677580e+001,-9.80444525414925e+000

5.12684721657352e+005,-2.04689623347749e+001,-9.93370497336755e+000

5.19841533667984e+005,-2.04707698002307e+001,-1.00647032945022e+001

5.27098251051240e+005,-2.04725980289436e+001,-1.01974661100297e+001

5.34456268434150e+005,-2.04744475138541e+001,-1.03320196763581e+001

5.41916999912011e+005,-2.04763187767817e+001,-1.04683906143251e+001

