Freq.,VOut,OutRef

1.00000000000000e+004,-2.25219511475316e+001,-4.90631854191239e-001

1.01395947979003e+004,-2.25219560703046e+001,-4.97480388314015e-001

1.02811382665607e+004,-2.25219611313907e+001,-5.04424506108136e-001

1.04246576084112e+004,-2.25219663346735e+001,-5.11465541095847e-001

1.05701804056138e+004,-2.25219716841458e+001,-5.18604845380456e-001

1.07177346253629e+004,-2.25219771839120e+001,-5.25843789908297e-001

1.08673486252606e+004,-2.25219828381917e+001,-5.33183764725871e-001

1.10190511587661e+004,-2.25219886513229e+001,-5.40626179246908e-001

1.11728713807222e+004,-2.25219946277651e+001,-5.48172462521115e-001

1.13288388529580e+004,-2.25220007721030e+001,-5.55824063506636e-001

1.14869835499703e+004,-2.25220070890494e+001,-5.63582451346485e-001

1.16473358646846e+004,-2.25220135834496e+001,-5.71449115648070e-001

1.18099266142953e+004,-2.25220202602846e+001,-5.79425566765869e-001

1.19747870461893e+004,-2.25220271246749e+001,-5.87513336092398e-001

1.21419488439505e+004,-2.25220341818845e+001,-5.95713976346684e-001

1.23114441334492e+004,-2.25220414373249e+001,-6.04029061870642e-001

1.24833054890161e+004,-2.25220488965592e+001,-6.12460188930227e-001

1.26575659397028e+004,-2.25220565653063e+001,-6.21008976017808e-001

1.28342589756290e+004,-2.25220644494453e+001,-6.29677064160026e-001

1.30134185544193e+004,-2.25220725550200e+001,-6.38466117230036e-001

1.31950791077289e+004,-2.25220808882435e+001,-6.47377822264247e-001

1.33792755478611e+004,-2.25220894555027e+001,-6.56413889782796e-001

1.35660432744767e+004,-2.25220982633633e+001,-6.65576054114997e-001

1.37554181813974e+004,-2.25221073185751e+001,-6.74866073727195e-001

1.39474366635040e+004,-2.25221166280765e+001,-6.84285731558245e-001

1.41421356237309e+004,-2.25221261990004e+001,-6.93836835357995e-001

1.43395524801583e+004,-2.25221360386788e+001,-7.03521218029621e-001

1.45397251732031e+004,-2.25221461546495e+001,-7.13340737976110e-001

1.47426921729110e+004,-2.25221565546606e+001,-7.23297279456607e-001

1.49484924863494e+004,-2.25221672466773e+001,-7.33392752938339e-001

1.51571656651040e+004,-2.25221782388876e+001,-7.43629095463066e-001

1.53687518128801e+004,-2.25221895397081e+001,-7.54008271011427e-001

1.55832915932100e+004,-2.25222011577910e+001,-7.64532270875922e-001

1.58008262372675e+004,-2.25222131020304e+001,-7.75203114036380e-001

1.60213975517924e+004,-2.25222253815690e+001,-7.86022847544352e-001

1.62450479271247e+004,-2.25222380058049e+001,-7.96993546906681e-001

1.64718203453514e+004,-2.25222509843987e+001,-8.08117316481968e-001

1.67017583885674e+004,-2.25222643272813e+001,-8.19396289874224e-001

1.69349062472505e+004,-2.25222780446605e+001,-8.30832630338225e-001

1.71713087287550e+004,-2.25222921470297e+001,-8.42428531185748e-001

1.74110112659224e+004,-2.25223066451748e+001,-8.54186216201584e-001

1.76540599258131e+004,-2.25223215501831e+001,-8.66107940061605e-001

1.79005014185594e+004,-2.25223368734513e+001,-8.78195988757832e-001

1.81503831063432e+004,-2.25223526266941e+001,-8.90452680027100e-001

1.84037530124975e+004,-2.25223688219530e+001,-9.02880363791594e-001

1.86606598307361e+004,-2.25223854716056e+001,-9.15481422595766e-001

1.89211529345119e+004,-2.25224025883744e+001,-9.28258272058901e-001

1.91852823865052e+004,-2.25224201853368e+001,-9.41213361325065e-001

1.94530989482457e+004,-2.25224382759346e+001,-9.54349173526528e-001

1.97246540898671e+004,-2.25224568739844e+001,-9.67668226246253e-001

1.99999999999999e+004,-2.25224759936877e+001,-9.81173071992291e-001

2.02791895958005e+004,-2.25224956496412e+001,-9.94866298676811e-001

2.05622765331213e+004,-2.25225158568486e+001,-1.00875053009717e+000

2.08493152168224e+004,-2.25225366307311e+001,-1.02282842643008e+000

2.11403608112276e+004,-2.25225579871389e+001,-1.03710268472927e+000

2.14354692507258e+004,-2.25225799423636e+001,-1.05157603942658e+000

2.17346972505211e+004,-2.25226025131497e+001,-1.06625126284501e+000

2.20381023175322e+004,-2.25226257167074e+001,-1.08113116571479e+000

2.23457427614443e+004,-2.25226495707252e+001,-1.09621859769770e+000

2.26576777059159e+004,-2.25226740933836e+001,-1.11151644791760e+000

2.29739670999406e+004,-2.25226993033676e+001,-1.12702764549796e+000

2.32946717293690e+004,-2.25227252198815e+001,-1.14275516010762e+000

2.36198532285905e+004,-2.25227518626627e+001,-1.15870200250964e+000

2.39495740923785e+004,-2.25227792519963e+001,-1.17487122512302e+000

2.42838976879009e+004,-2.25228074087303e+001,-1.19126592258700e+000

2.46228882668982e+004,-2.25228363542907e+001,-1.20788923233500e+000

2.49666109780322e+004,-2.25228661106975e+001,-1.22474433517350e+000

2.53151318794055e+004,-2.25228967005812e+001,-1.24183445587213e+000

2.56685179512580e+004,-2.25229281471987e+001,-1.25916286375777e+000

2.60268371088386e+004,-2.25229604744512e+001,-1.27673287331774e+000

2.63901582154578e+004,-2.25229937069011e+001,-1.29454784481089e+000

2.67585510957221e+004,-2.25230278697907e+001,-1.31261118488462e+000

2.71320865489533e+004,-2.25230629890599e+001,-1.33092634720274e+000

2.75108363627948e+004,-2.25230990913659e+001,-1.34949683307814e+000

2.78948733270080e+004,-2.25231362041020e+001,-1.36832619211465e+000

2.82842712474618e+004,-2.25231743554183e+001,-1.38741802285809e+000

2.86791049603164e+004,-2.25232135742415e+001,-1.40677597345333e+000

2.90794503464061e+004,-2.25232538902962e+001,-1.42640374231111e+000

2.94853843458219e+004,-2.25232953341269e+001,-1.44630507878114e+000

2.98969849726987e+004,-2.25233379371192e+001,-1.46648378383721e+000

3.03143313302078e+004,-2.25233817315234e+001,-1.48694371076541e+000

3.07375036257601e+004,-2.25234267504773e+001,-1.50768876586673e+000

3.11665831864199e+004,-2.25234730280304e+001,-1.52872290916231e+000

3.16016524745350e+004,-2.25235205991680e+001,-1.55005015511207e+000

3.20427951035848e+004,-2.25235694998367e+001,-1.57167457333965e+000

3.24900958542493e+004,-2.25236197669700e+001,-1.59360028936668e+000

3.29436406907028e+004,-2.25236714385147e+001,-1.61583148535436e+000

3.34035167771346e+004,-2.25237245534583e+001,-1.63837240085733e+000

3.38698124945009e+004,-2.25237791518561e+001,-1.66122733358373e+000

3.43426174575100e+004,-2.25238352748605e+001,-1.68440064016392e+000

3.48220225318448e+004,-2.25238929647498e+001,-1.70789673693046e+000

3.53081198516260e+004,-2.25239522649579e+001,-1.73172010070657e+000

3.58010028371187e+004,-2.25240132201053e+001,-1.75587526960184e+000

3.63007662126863e+004,-2.25240758760306e+001,-1.78036684381994e+000

3.68075060249948e+004,-2.25241402798226e+001,-1.80519948647366e+000

3.73213196614721e+004,-2.25242064798531e+001,-1.83037792441087e+000

3.78423058690237e+004,-2.25242745258110e+001,-1.85590694904896e+000

3.83705647730104e+004,-2.25243444687368e+001,-1.88179141721844e+000

3.89061978964912e+004,-2.25244163610584e+001,-1.90803625201752e+000

3.94493081797342e+004,-2.25244902566271e+001,-1.93464644367455e+000

3.99999999999998e+004,-2.25245662107548e+001,-1.96162705042161e+000

4.05583791916010e+004,-2.25246442802524e+001,-1.98898319937762e+000

4.11245530662425e+004,-2.25247245234690e+001,-2.01672008743915e+000

4.16986304336447e+004,-2.25248070003312e+001,-2.04484298218479e+000

4.22807216224550e+004,-2.25248917723847e+001,-2.07335722278573e+000

4.28709385014515e+004,-2.25249789028359e+001,-2.10226822092852e+000

4.34693945010421e+004,-2.25250684565951e+001,-2.13158146174587e+000

4.40762046350642e+004,-2.25251605003193e+001,-2.16130250476111e+000

4.46914855228886e+004,-2.25252551024588e+001,-2.19143698483644e+000

4.53153554118317e+004,-2.25253523333017e+001,-2.22199061313788e+000

4.59479341998812e+004,-2.25254522650215e+001,-2.25296917810572e+000

4.65893434587380e+004,-2.25255549717251e+001,-2.28437854643698e+000

4.72397064571810e+004,-2.25256605295020e+001,-2.31622466407737e+000

4.78991481847569e+004,-2.25257690164741e+001,-2.34851355722382e+000

4.85677953758016e+004,-2.25258805128477e+001,-2.38125133333674e+000

4.92457765337964e+004,-2.25259951009657e+001,-2.41444418216276e+000

4.99332219560642e+004,-2.25261128653612e+001,-2.44809837676746e+000

5.06302637588109e+004,-2.25262338928123e+001,-2.48222027457843e+000

5.13370359025159e+004,-2.25263582723985e+001,-2.51681631843829e+000

5.20536742176771e+004,-2.25264860955574e+001,-2.55189303766829e+000

5.27803164309155e+004,-2.25266174561434e+001,-2.58745704914185e+000

5.35171021914442e+004,-2.25267524504875e+001,-2.62351505836853e+000

5.42641730979066e+004,-2.25268911774580e+001,-2.66007386058804e+000

5.50216727255895e+004,-2.25270337385229e+001,-2.69714034187389e+000

5.57897466540159e+004,-2.25271802378129e+001,-2.73472148024988e+000

5.65685424949235e+004,-2.25273307821869e+001,-2.77282434681192e+000

5.73582099206328e+004,-2.25274854812973e+001,-2.81145610686536e+000

5.81589006928121e+004,-2.25276444476578e+001,-2.85062402106922e+000

5.89707686916437e+004,-2.25278077967120e+001,-2.89033544659095e+000

5.97939699453972e+004,-2.25279756469033e+001,-2.93059783827312e+000

6.06286626604156e+004,-2.25281481197465e+001,-2.97141874980739e+000

6.14750072515201e+004,-2.25283253399001e+001,-3.01280583492202e+000

6.23331663728396e+004,-2.25285074352409e+001,-3.05476684857598e+000

6.32033049490698e+004,-2.25286945369389e+001,-3.09730964816664e+000

6.40855902071694e+004,-2.25288867795346e+001,-3.14044219474383e+000

6.49801917084985e+004,-2.25290843010165e+001,-3.18417255423806e+000

6.58872813814055e+004,-2.25292872429016e+001,-3.22850889869487e+000

6.68070335542691e+004,-2.25294957503153e+001,-3.27345950752204e+000

6.77396249890018e+004,-2.25297099720747e+001,-3.31903276874556e+000

6.86852349150199e+004,-2.25299300607714e+001,-3.36523718027554e+000

6.96440450636895e+004,-2.25301561728571e+001,-3.41208135118320e+000

7.06162397032520e+004,-2.25303884687298e+001,-3.45957400298640e+000

7.16020056742374e+004,-2.25306271128217e+001,-3.50772397094593e+000

7.26015324253724e+004,-2.25308722736886e+001,-3.55654020537235e+000

7.36150120499896e+004,-2.25311241240997e+001,-3.60603177294163e+000

7.46426393229441e+004,-2.25313828411301e+001,-3.65620785802213e+000

7.56846117380472e+004,-2.25316486062539e+001,-3.70707776401010e+000

7.67411295460207e+004,-2.25319216054383e+001,-3.75865091467753e+000

7.78123957929823e+004,-2.25322020292398e+001,-3.81093685552709e+000

7.88986163594682e+004,-2.25324900729009e+001,-3.86394525516044e+000

7.99999999999995e+004,-2.25327859364491e+001,-3.91768590665440e+000

8.11167583832018e+004,-2.25330898247956e+001,-3.97216872894943e+000

8.22491061324848e+004,-2.25334019478365e+001,-4.02740376824600e+000

8.33972608672892e+004,-2.25337225205551e+001,-4.08340119941467e+000

8.45614432449099e+004,-2.25340517631245e+001,-4.14017132741391e+000

8.57418770029029e+004,-2.25343899010122e+001,-4.19772458872082e+000

8.69387890020841e+004,-2.25347371650853e+001,-4.25607155277191e+000

8.81524092701283e+004,-2.25350937917172e+001,-4.31522292341492e+000

8.93829710457770e+004,-2.25354600228951e+001,-4.37518954037245e+000

9.06307108236633e+004,-2.25358361063282e+001,-4.43598238071708e+000

9.18958683997622e+004,-2.25362222955575e+001,-4.49761256035850e+000

9.31786869174758e+004,-2.25366188500659e+001,-4.56009133554259e+000

9.44794129143618e+004,-2.25370260353900e+001,-4.62343010436297e+000

9.57982963695136e+004,-2.25374441232315e+001,-4.68764040828567e+000

9.71355907516031e+004,-2.25378733915710e+001,-4.75273393368657e+000

9.84915530675926e+004,-2.25383141247810e+001,-4.81872251340369e+000

9.98664439121282e+004,-2.25387666137407e+001,-4.88561812830208e+000

1.01260527517622e+005,-2.25392311559510e+001,-4.95343290885424e+000

1.02674071805032e+005,-2.25397080556502e+001,-5.02217913673617e+000

1.04107348435354e+005,-2.25401976239304e+001,-5.09186924643811e+000

1.05560632861831e+005,-2.25407001788543e+001,-5.16251582689308e+000

1.07034204382888e+005,-2.25412160455726e+001,-5.23413162312122e+000

1.08528346195813e+005,-2.25417455564419e+001,-5.30672953789342e+000

1.10043345451179e+005,-2.25422890511426e+001,-5.38032263341318e+000

1.11579493308032e+005,-2.25428468767983e+001,-5.45492413301734e+000

1.13137084989847e+005,-2.25434193880938e+001,-5.53054742289869e+000

1.14716419841265e+005,-2.25440069473954e+001,-5.60720605384985e+000

1.16317801385624e+005,-2.25446099248697e+001,-5.68491374302870e+000

1.17941537383287e+005,-2.25452286986041e+001,-5.76368437574920e+000

1.19587939890794e+005,-2.25458636547269e+001,-5.84353200729542e+000

1.21257325320831e+005,-2.25465151875273e+001,-5.92447086476351e+000

1.22950014503040e+005,-2.25471836995766e+001,-6.00651534893012e+000

1.24666332745679e+005,-2.25478696018490e+001,-6.08968003615000e+000

1.26406609898139e+005,-2.25485733138427e+001,-6.17397968028401e+000

1.28171180414339e+005,-2.25492952637017e+001,-6.25942921465926e+000

1.29960383416997e+005,-2.25500358883374e+001,-6.34604375406252e+000

1.31774562762811e+005,-2.25507956335515e+001,-6.43383859676954e+000

1.33614067108538e+005,-2.25515749541579e+001,-6.52282922661039e+000

1.35479249978003e+005,-2.25523743141069e+001,-6.61303131507480e+000

1.37370469830040e+005,-2.25531941866086e+001,-6.70446072345735e+000

1.39288090127379e+005,-2.25540350542575e+001,-6.79713350504618e+000

1.41232479406504e+005,-2.25548974091586e+001,-6.89106590735531e+000

1.43204011348474e+005,-2.25557817530536e+001,-6.98627437440549e+000

1.45203064850745e+005,-2.25566885974487e+001,-7.08277554905225e+000

1.47230024099979e+005,-2.25576184637440e+001,-7.18058627536662e+000

1.49285278645888e+005,-2.25585718833638e+001,-7.27972360106847e+000

1.51369223476094e+005,-2.25595493978899e+001,-7.38020478001553e+000

1.53482259092041e+005,-2.25605515591956e+001,-7.48204727475061e+000

1.55624791585964e+005,-2.25615789295833e+001,-7.58526875910958e+000

1.57797232718936e+005,-2.25626320819242e+001,-7.68988712089148e+000

1.59999999999999e+005,-2.25637115998012e+001,-7.79592046459305e+000

1.62233516766403e+005,-2.25648180776552e+001,-7.90338711421263e+000

1.64498212264969e+005,-2.25659521209357e+001,-8.01230561612141e+000

1.66794521734578e+005,-2.25671143462553e+001,-8.12269474200863e+000

1.69122886489819e+005,-2.25683053815488e+001,-8.23457349189902e+000

1.71483754005805e+005,-2.25695258662386e+001,-8.34796109724886e+000

1.73877578004168e+005,-2.25707764514052e+001,-8.46287702411847e+000

1.76304818540256e+005,-2.25720577999645e+001,-8.57934097642675e+000

1.78765942091554e+005,-2.25733705868521e+001,-8.69737289928719e+000

1.81261421647326e+005,-2.25747154992160e+001,-8.81699298242820e+000

1.83791736799524e+005,-2.25760932366171e+001,-8.93822166369951e+000

1.86357373834951e+005,-2.25775045112395e+001,-9.06107963266567e+000

1.88958825828723e+005,-2.25789500481110e+001,-9.18558783428771e+000

1.91596592739027e+005,-2.25804305853340e+001,-9.31176747269446e+000

1.94271181503206e+005,-2.25819468743293e+001,-9.43964001504442e+000

1.96983106135185e+005,-2.25834996800914e+001,-9.56922719547751e+000

1.99732887824256e+005,-2.25850897814584e+001,-9.70055101915875e+000

2.02521055035243e+005,-2.25867179713962e+001,-9.83363376641266e+000

2.05348143610063e+005,-2.25883850572988e+001,-9.96849799694749e+000

2.08214696870707e+005,-2.25900918613049e+001,-1.01051665541700e+001

2.11121265723661e+005,-2.25918392206328e+001,-1.02436625695884e+001

2.14068408765776e+005,-2.25936279879336e+001,-1.03840094673022e+001

2.17056692391625e+005,-2.25954590316658e+001,-1.05262309685771e+001

2.20086690902357e+005,-2.25973332364895e+001,-1.06703510965024e+001

2.23158986616063e+005,-2.25992515036846e+001,-1.08163941807278e+001

2.26274169979693e+005,-2.26012147515915e+001,-1.09643848622769e+001

2.29432839682530e+005,-2.26032239160771e+001,-1.11143480984316e+001

2.32635602771247e+005,-2.26052799510270e+001,-1.12663091676856e+001

2.35883074766574e+005,-2.26073838288643e+001,-1.14202936747593e+001

2.39175879781588e+005,-2.26095365410976e+001,-1.15763275556722e+001

2.42514650641661e+005,-2.26117390988980e+001,-1.17344370828659e+001

2.45900029006080e+005,-2.26139925337069e+001,-1.18946488703713e+001

2.49332665491357e+005,-2.26162978978761e+001,-1.20569898790116e+001

2.52813219796278e+005,-2.26186562653405e+001,-1.22214874216353e+001

2.56342360828676e+005,-2.26210687323250e+001,-1.23881691683674e+001

2.59920766833993e+005,-2.26235364180866e+001,-1.25570631518728e+001

2.63549125525621e+005,-2.26260604656925e+001,-1.27281977726201e+001

2.67228134217075e+005,-2.26286420428351e+001,-1.29016018041362e+001

2.70958499956006e+005,-2.26312823426852e+001,-1.30773043982402e+001

2.74740939660078e+005,-2.26339825847833e+001,-1.32553350902467e+001

2.78576180254757e+005,-2.26367440159711e+001,-1.34357238041237e+001

2.82464958813007e+005,-2.26395679113621e+001,-1.36185008575953e+001

2.86408022696948e+005,-2.26424555753533e+001,-1.38036969671746e+001

2.90406129701488e+005,-2.26454083426783e+001,-1.39913432531137e+001

2.94460048199957e+005,-2.26484275795002e+001,-1.41814712442575e+001

2.98570557291775e+005,-2.26515146845481e+001,-1.43741128827853e+001

3.02738446952187e+005,-2.26546710902938e+001,-1.45693005288279e+001

3.06964518184081e+005,-2.26578982641709e+001,-1.47670669649437e+001

3.11249583171928e+005,-2.26611977098355e+001,-1.49674454004386e+001

3.15594465437872e+005,-2.26645709684681e+001,-1.51704694755148e+001

3.19999999999997e+005,-2.26680196201165e+001,-1.53761732652342e+001

3.24467033532806e+005,-2.26715452850796e+001,-1.55845912832767e+001

3.28996424529938e+005,-2.26751496253306e+001,-1.57957584854833e+001

3.33589043469155e+005,-2.26788343459804e+001,-1.60097102731632e+001

3.38245772979638e+005,-2.26826011967777e+001,-1.62264824961524e+001

3.42967508011610e+005,-2.26864519736480e+001,-1.64461114556071e+001

3.47755156008335e+005,-2.26903885202681e+001,-1.66686339065168e+001

3.52609637080511e+005,-2.26944127296750e+001,-1.68940870599213e+001

3.57531884183106e+005,-2.26985265459095e+001,-1.71225085848172e+001

3.62522843294651e+005,-2.27027319656905e+001,-1.73539366097404e+001

3.67583473599047e+005,-2.27070310401206e+001,-1.75884097240072e+001

3.72714747669902e+005,-2.27114258764201e+001,-1.78259669786040e+001

3.77917651657445e+005,-2.27159186396870e+001,-1.80666478867094e+001

3.83193185478053e+005,-2.27205115546827e+001,-1.83104924238375e+001

3.88542363006410e+005,-2.27252069076399e+001,-1.85575410275882e+001

3.93966212270369e+005,-2.27300070480911e+001,-1.88078345969948e+001

3.99465775648511e+005,-2.27349143907152e+001,-1.90614144914562e+001

4.05042110070485e+005,-2.27399314172002e+001,-1.93183225292438e+001

4.10696287220124e+005,-2.27450606781189e+001,-1.95786009855723e+001

4.16429393741414e+005,-2.27503047948162e+001,-1.98422925902253e+001

4.22242531447321e+005,-2.27556664613042e+001,-2.01094405247280e+001

4.28136817531551e+005,-2.27611484461636e+001,-2.03800884190568e+001

4.34113384783250e+005,-2.27667535944474e+001,-2.06542803478805e+001

4.40173381804713e+005,-2.27724848295858e+001,-2.09320608263250e+001

4.46317973232124e+005,-2.27783451552882e+001,-2.12134748052550e+001

4.52548339959385e+005,-2.27843376574398e+001,-2.14985676660691e+001

4.58865679365059e+005,-2.27904655059910e+001,-2.17873852150007e+001

4.65271205542494e+005,-2.27967319568344e+001,-2.20799736769232e+001

4.71766149533147e+005,-2.28031403536695e+001,-2.23763796886530e+001

4.78351759563174e+005,-2.28096941298495e+001,-2.26766502917501e+001

4.85029301283321e+005,-2.28163968102089e+001,-2.29808329248105e+001

4.91800058012158e+005,-2.28232520128685e+001,-2.32889754152507e+001

4.98665330982714e+005,-2.28302634510143e+001,-2.36011259705830e+001

5.05626439592555e+005,-2.28374349346481e+001,-2.39173331691776e+001

5.12684721657352e+005,-2.28447703723065e+001,-2.42376459505141e+001

5.19841533667984e+005,-2.28522737727447e+001,-2.45621136049209e+001

5.27098251051240e+005,-2.28599492465831e+001,-2.48907857628022e+001

5.34456268434150e+005,-2.28678010079128e+001,-2.52237123833543e+001

5.41916999912011e+005,-2.28758333758567e+001,-2.55609437427718e+001

