Freq.,VOut,OutRef

1.00000000000000e+004,-1.39183693767689e+000,-9.47149795318031e-002

1.01395947979003e+004,-1.39183693531656e+000,-9.60371464610503e-002

1.02811382665607e+004,-1.39183693288896e+000,-9.73777699432791e-002

1.04246576084112e+004,-1.39183693039180e+000,-9.87371076154559e-002

1.05701804056138e+004,-1.39183692782319e+000,-1.00115420707526e-001

1.07177346253629e+004,-1.39183692518109e+000,-1.01512974097190e-001

1.08673486252606e+004,-1.39183692246333e+000,-1.02930036358818e-001

1.10190511587661e+004,-1.39183691966770e+000,-1.04366879815628e-001

1.11728713807222e+004,-1.39183691679176e+000,-1.05823780593327e-001

1.13288388529580e+004,-1.39183691383342e+000,-1.07301018668466e-001

1.14869835499703e+004,-1.39183691079016e+000,-1.08798877928025e-001

1.16473358646846e+004,-1.39183690765957e+000,-1.10317646220395e-001

1.18099266142953e+004,-1.39183690443902e+000,-1.11857615412152e-001

1.19747870461893e+004,-1.39183690112579e+000,-1.13419081444053e-001

1.21419488439505e+004,-1.39183689771725e+000,-1.15002344386427e-001

1.23114441334492e+004,-1.39183689421062e+000,-1.16607708497902e-001

1.24833054890161e+004,-1.39183689060288e+000,-1.18235482284959e-001

1.26575659397028e+004,-1.39183688689119e+000,-1.19885978558557e-001

1.28342589756290e+004,-1.39183688307243e+000,-1.21559514496287e-001

1.30134185544193e+004,-1.39183687914351e+000,-1.23256411702589e-001

1.31950791077289e+004,-1.39183687510105e+000,-1.24976996271318e-001

1.33792755478611e+004,-1.39183687094170e+000,-1.26721598847072e-001

1.35660432744767e+004,-1.39183686666207e+000,-1.28490554688824e-001

1.37554181813974e+004,-1.39183686225850e+000,-1.30284203735594e-001

1.39474366635040e+004,-1.39183685772750e+000,-1.32102890669562e-001

1.41421356237309e+004,-1.39183685306490e+000,-1.33946964986831e-001

1.43395524801583e+004,-1.39183684826722e+000,-1.35816781056408e-001

1.45397251732031e+004,-1.39183684333001e+000,-1.37712698198289e-001

1.47426921729110e+004,-1.39183683824930e+000,-1.39635080743793e-001

1.49484924863494e+004,-1.39183683302077e+000,-1.41584298110296e-001

1.51571656651040e+004,-1.39183682763994e+000,-1.43560724871133e-001

1.53687518128801e+004,-1.39183682210234e+000,-1.45564740826410e-001

1.55832915932100e+004,-1.39183681640311e+000,-1.47596731078436e-001

1.58008262372675e+004,-1.39183681053733e+000,-1.49657086103296e-001

1.60213975517924e+004,-1.39183680450021e+000,-1.51746201825114e-001

1.62450479271247e+004,-1.39183679828631e+000,-1.53864479696446e-001

1.64718203453514e+004,-1.39183679189034e+000,-1.56012326770767e-001

1.67017583885674e+004,-1.39183678530693e+000,-1.58190155781495e-001

1.69349062472505e+004,-1.39183677853006e+000,-1.60398385224999e-001

1.71713087287550e+004,-1.39183677155402e+000,-1.62637439435321e-001

1.74110112659224e+004,-1.39183676437278e+000,-1.64907748668717e-001

1.76540599258131e+004,-1.39183675697985e+000,-1.67209749187531e-001

1.79005014185594e+004,-1.39183674936891e+000,-1.69543883340339e-001

1.81503831063432e+004,-1.39183674153300e+000,-1.71910599650792e-001

1.84037530124975e+004,-1.39183673346550e+000,-1.74310352899039e-001

1.86606598307361e+004,-1.39183672515909e+000,-1.76743604214017e-001

1.89211529345119e+004,-1.39183671660640e+000,-1.79210821158813e-001

1.91852823865052e+004,-1.39183670779966e+000,-1.81712477821901e-001

1.94530989482457e+004,-1.39183669873107e+000,-1.84249054906597e-001

1.97246540898671e+004,-1.39183668939251e+000,-1.86821039823854e-001

1.99999999999999e+004,-1.39183667977536e+000,-1.89428926788226e-001

2.02791895958005e+004,-1.39183666987106e+000,-1.92073216907617e-001

2.05622765331213e+004,-1.39183665967044e+000,-1.94754418285253e-001

2.08493152168224e+004,-1.39183664916429e+000,-1.97473046112382e-001

2.11403608112276e+004,-1.39183663834284e+000,-2.00229622770623e-001

2.14354692507258e+004,-1.39183662719612e+000,-2.03024677929515e-001

2.17346972505211e+004,-1.39183661571380e+000,-2.05858748650158e-001

2.20381023175322e+004,-1.39183660388525e+000,-2.08732379486426e-001

2.23457427614443e+004,-1.39183659169943e+000,-2.11646122590961e-001

2.26576777059159e+004,-1.39183657914460e+000,-2.14600537822680e-001

2.29739670999406e+004,-1.39183656620925e+000,-2.17596192847546e-001

2.32946717293690e+004,-1.39183655288091e+000,-2.20633663255931e-001

2.36198532285905e+004,-1.39183653914706e+000,-2.23713532666271e-001

2.39495740923785e+004,-1.39183652499431e+000,-2.26836392843008e-001

2.42838976879009e+004,-1.39183651040903e+000,-2.30002843804212e-001

2.46228882668982e+004,-1.39183649537737e+000,-2.33213493939191e-001

2.49666109780322e+004,-1.39183647988455e+000,-2.36468960126658e-001

2.53151318794055e+004,-1.39183646391537e+000,-2.39769867851812e-001

2.56685179512580e+004,-1.39183644745412e+000,-2.43116851325142e-001

2.60268371088386e+004,-1.39183643048467e+000,-2.46510553604534e-001

2.63901582154578e+004,-1.39183641298994e+000,-2.49951626721020e-001

2.67585510957221e+004,-1.39183639495269e+000,-2.53440731798918e-001

2.71320865489533e+004,-1.39183637635458e+000,-2.56978539188131e-001

2.75108363627948e+004,-1.39183635717700e+000,-2.60565728587978e-001

2.78948733270080e+004,-1.39183633740029e+000,-2.64202989180694e-001

2.82842712474618e+004,-1.39183631700426e+000,-2.67891019761510e-001

2.86791049603164e+004,-1.39183629596789e+000,-2.71630528873845e-001

2.90794503464061e+004,-1.39183627426943e+000,-2.75422234944071e-001

2.94853843458219e+004,-1.39183625188628e+000,-2.79266866419369e-001

2.98969849726987e+004,-1.39183622879501e+000,-2.83165161908023e-001

3.03143313302078e+004,-1.39183620497114e+000,-2.87117870320915e-001

3.07375036257601e+004,-1.39183618038942e+000,-2.91125751013921e-001

3.11665831864199e+004,-1.39183615502348e+000,-2.95189573934466e-001

3.16016524745350e+004,-1.39183612884625e+000,-2.99310119767051e-001

3.20427951035848e+004,-1.39183610182911e+000,-3.03488180086858e-001

3.24900958542493e+004,-1.39183607394272e+000,-3.07724557506129e-001

3.29436406907028e+004,-1.39183604515634e+000,-3.12020065832660e-001

3.34035167771346e+004,-1.39183601543830e+000,-3.16375530221409e-001

3.38698124945009e+004,-1.39183598475541e+000,-3.20791787335741e-001

3.43426174575100e+004,-1.39183595307327e+000,-3.25269685505820e-001

3.48220225318448e+004,-1.39183592035599e+000,-3.29810084892444e-001

3.53081198516260e+004,-1.39183588656638e+000,-3.34413857649629e-001

3.58010028371187e+004,-1.39183585166579e+000,-3.39081888092230e-001

3.63007662126863e+004,-1.39183581561379e+000,-3.43815072867356e-001

3.68075060249948e+004,-1.39183577836845e+000,-3.48614321122525e-001

3.73213196614721e+004,-1.39183573988622e+000,-3.53480554681353e-001

3.78423058690237e+004,-1.39183570012152e+000,-3.58414708220581e-001

3.83705647730104e+004,-1.39183565902709e+000,-3.63417729447095e-001

3.89061978964912e+004,-1.39183561655354e+000,-3.68490579281063e-001

3.94493081797342e+004,-1.39183557264961e+000,-3.73634232037502e-001

3.99999999999998e+004,-1.39183552726183e+000,-3.78849675614201e-001

4.05583791916010e+004,-1.39183548033442e+000,-3.84137911680420e-001

4.11245530662425e+004,-1.39183543180934e+000,-3.89499955867795e-001

4.16986304336447e+004,-1.39183538162594e+000,-3.94936837965085e-001

4.22807216224550e+004,-1.39183532972127e+000,-4.00449602114200e-001

4.28709385014515e+004,-1.39183527602944e+000,-4.06039307010319e-001

4.34693945010421e+004,-1.39183522048181e+000,-4.11707026103901e-001

4.40762046350642e+004,-1.39183516300689e+000,-4.17453847805744e-001

4.46914855228886e+004,-1.39183510353007e+000,-4.23280875694538e-001

4.53153554118317e+004,-1.39183504197337e+000,-4.29189228729142e-001

4.59479341998812e+004,-1.39183497825556e+000,-4.35180041460080e-001

4.65893434587380e+004,-1.39183491229180e+000,-4.41254464247838e-001

4.72397064571810e+004,-1.39183484399369e+000,-4.47413663480412e-001

4.78991481847569e+004,-1.39183477326866e+000,-4.53658821799343e-001

4.85677953758016e+004,-1.39183470002025e+000,-4.59991138322109e-001

4.92457765337964e+004,-1.39183462414776e+000,-4.66411828871688e-001

4.99332219560642e+004,-1.39183454554591e+000,-4.72922126209818e-001

5.06302637588109e+004,-1.39183446410470e+000,-4.79523280271608e-001

5.13370359025159e+004,-1.39183437970942e+000,-4.86216558402083e-001

5.20536742176771e+004,-1.39183429224002e+000,-4.93003245600366e-001

5.27803164309155e+004,-1.39183420157107e+000,-4.99884644763665e-001

5.35171021914442e+004,-1.39183410757153e+000,-5.06862076935105e-001

5.42641730979066e+004,-1.39183401010439e+000,-5.13936881556234e-001

5.50216727255895e+004,-1.39183390902647e+000,-5.21110416721258e-001

5.57897466540159e+004,-1.39183380418806e+000,-5.28384059437389e-001

5.65685424949235e+004,-1.39183369543252e+000,-5.35759205885517e-001

5.73582099206328e+004,-1.39183358259612e+000,-5.43237271687084e-001

5.81589006928121e+004,-1.39183346550756e+000,-5.50819692173711e-001

5.89707686916437e+004,-1.39183334398781e+000,-5.58507922658353e-001

5.97939699453972e+004,-1.39183321784925e+000,-5.66303438716914e-001

6.06286626604156e+004,-1.39183308689602e+000,-5.74207736462635e-001

6.14750072515201e+004,-1.39183295092271e+000,-5.82222332837654e-001

6.23331663728396e+004,-1.39183280971463e+000,-5.90348765896248e-001

6.32033049490698e+004,-1.39183266304708e+000,-5.98588595099537e-001

6.40855902071694e+004,-1.39183251068492e+000,-6.06943401611485e-001

6.49801917084985e+004,-1.39183235238170e+000,-6.15414788601878e-001

6.58872813814055e+004,-1.39183218787977e+000,-6.24004381546864e-001

6.68070335542691e+004,-1.39183201690913e+000,-6.32713828541137e-001

6.77396249890018e+004,-1.39183183918726e+000,-6.41544800609874e-001

6.86852349150199e+004,-1.39183165441823e+000,-6.50498992026184e-001

6.96440450636895e+004,-1.39183146229201e+000,-6.59578120634575e-001

7.06162397032520e+004,-1.39183126248418e+000,-6.68783928174235e-001

7.16020056742374e+004,-1.39183105465474e+000,-6.78118180612278e-001

7.26015324253724e+004,-1.39183083844756e+000,-6.87582668478522e-001

7.36150120499896e+004,-1.39183061348985e+000,-6.97179207203773e-001

7.46426393229441e+004,-1.39183037939072e+000,-7.06909637467434e-001

7.56846117380472e+004,-1.39183013574101e+000,-7.16775825543845e-001

7.67411295460207e+004,-1.39182988211174e+000,-7.26779663658667e-001

7.78123957929823e+004,-1.39182961805381e+000,-7.36923070345476e-001

7.88986163594682e+004,-1.39182934309639e+000,-7.47207990812474e-001

7.99999999999995e+004,-1.39182905674634e+000,-7.57636397309451e-001

8.11167583832018e+004,-1.39182875848695e+000,-7.68210289501874e-001

8.22491061324848e+004,-1.39182844777655e+000,-7.78931694851916e-001

8.33972608672892e+004,-1.39182812404782e+000,-7.89802669000404e-001

8.45614432449099e+004,-1.39182778670621e+000,-8.00825296157800e-001

8.57418770029029e+004,-1.39182743512862e+000,-8.12001689499486e-001

8.69387890020841e+004,-1.39182706866219e+000,-8.23333991565725e-001

8.81524092701283e+004,-1.39182668662275e+000,-8.34824374667829e-001

8.93829710457770e+004,-1.39182628829339e+000,-8.46475041300227e-001

9.06307108236633e+004,-1.39182587292284e+000,-8.58288224557290e-001

9.18958683997622e+004,-1.39182543972379e+000,-8.70266188557263e-001

9.31786869174758e+004,-1.39182498787139e+000,-8.82411228870066e-001

9.44794129143618e+004,-1.39182451650117e+000,-8.94725672954112e-001

9.57982963695136e+004,-1.39182402470753e+000,-9.07211880594830e-001

9.71355907516031e+004,-1.39182351154132e+000,-9.19872244354860e-001

9.84915530675926e+004,-1.39182297600823e+000,-9.32709190024997e-001

9.98664439121282e+004,-1.39182241706646e+000,-9.45725177084869e-001

1.01260527517622e+005,-1.39182183362461e+000,-9.58922699168816e-001

1.02674071805032e+005,-1.39182122453919e+000,-9.72304284539297e-001

1.04107348435354e+005,-1.39182058861241e+000,-9.85872496564831e-001

1.05560632861831e+005,-1.39181992458958e+000,-9.99629934207090e-001

1.07034204382888e+005,-1.39181923115636e+000,-1.01357923251370e+000

1.08528346195813e+005,-1.39181850693627e+000,-1.02772306311705e+000

1.10043345451179e+005,-1.39181775048778e+000,-1.04206413474165e+000

1.11579493308032e+005,-1.39181696030117e+000,-1.05660519371831e+000

1.13137084989847e+005,-1.39181613479556e+000,-1.07134902450554e+000

1.14716419841265e+005,-1.39181527231585e+000,-1.08629845021686e+000

1.16317801385624e+005,-1.39181437112923e+000,-1.10145633315780e+000

1.17941537383287e+005,-1.39181342942165e+000,-1.11682557536996e+000

1.19587939890794e+005,-1.39181244529432e+000,-1.13240911918210e+000

1.21257325320831e+005,-1.39181141676000e+000,-1.14820994776907e+000

1.22950014503040e+005,-1.39181034173902e+000,-1.16423108571944e+000

1.24666332745679e+005,-1.39180921805529e+000,-1.18047559961147e+000

1.26406609898139e+005,-1.39180804343213e+000,-1.19694659859578e+000

1.28171180414339e+005,-1.39180681548779e+000,-1.21364723498900e+000

1.29960383416997e+005,-1.39180553173121e+000,-1.23058070487306e+000

1.31774562762811e+005,-1.39180418955709e+000,-1.24775024870543e+000

1.33614067108538e+005,-1.39180278624124e+000,-1.26515915193689e+000

1.35479249978003e+005,-1.39180131893538e+000,-1.28281074563976e+000

1.37370469830040e+005,-1.39179978466233e+000,-1.30070840714258e+000

1.39288090127379e+005,-1.39179818031008e+000,-1.31885556067801e+000

1.41232479406504e+005,-1.39179650262689e+000,-1.33725567803627e+000

1.43204011348474e+005,-1.39179474821515e+000,-1.35591227923040e+000

1.45203064850745e+005,-1.39179291352560e+000,-1.37482893317178e+000

1.47230024099979e+005,-1.39179099485125e+000,-1.39400925835301e+000

1.49285278645888e+005,-1.39178898832113e+000,-1.41345692354444e+000

1.51369223476094e+005,-1.39178688989379e+000,-1.43317564849773e+000

1.53482259092041e+005,-1.39178469535046e+000,-1.45316920466268e+000

1.55624791585964e+005,-1.39178240028861e+000,-1.47344141591161e+000

1.57797232718936e+005,-1.39178000011439e+000,-1.49399615927854e+000

1.59999999999999e+005,-1.39177749003562e+000,-1.51483736570599e+000

1.62233516766403e+005,-1.39177486505435e+000,-1.53596902080429e+000

1.64498212264969e+005,-1.39177211995912e+000,-1.55739516562241e+000

1.66794521734578e+005,-1.39176924931704e+000,-1.57911989743103e+000

1.69122886489819e+005,-1.39176624746584e+000,-1.60114737051533e+000

1.71483754005805e+005,-1.39176310850549e+000,-1.62348179698226e+000

1.73877578004168e+005,-1.39175982628963e+000,-1.64612744757939e+000

1.76304818540256e+005,-1.39175639441723e+000,-1.66908865252347e+000

1.78765942091554e+005,-1.39175280622332e+000,-1.69236980234646e+000

1.81261421647326e+005,-1.39174905477029e+000,-1.71597534874948e+000

1.83791736799524e+005,-1.39174513283813e+000,-1.73990980547458e+000

1.86357373834951e+005,-1.39174103291552e+000,-1.76417774918464e+000

1.88958825828723e+005,-1.39173674718986e+000,-1.78878382036064e+000

1.91596592739027e+005,-1.39173226753742e+000,-1.81373272421199e+000

1.94271181503206e+005,-1.39172758551339e+000,-1.83902923159853e+000

1.96983106135185e+005,-1.39172269234183e+000,-1.86467817996868e+000

1.99732887824256e+005,-1.39171757890507e+000,-1.89068447431151e+000

2.02521055035243e+005,-1.39171223573319e+000,-1.91705308812322e+000

2.05348143610063e+005,-1.39170665299345e+000,-1.94378906438763e+000

2.08214696870707e+005,-1.39170082047942e+000,-1.97089751657237e+000

2.11121265723661e+005,-1.39169472759984e+000,-1.99838362964003e+000

2.14068408765776e+005,-1.39168836336755e+000,-2.02625266107499e+000

2.17056692391625e+005,-1.39168171638810e+000,-2.05450994192492e+000

2.20086690902357e+005,-1.39167477484848e+000,-2.08316087785824e+000

2.23158986616063e+005,-1.39166752650531e+000,-2.11221095023873e+000

2.26274169979693e+005,-1.39165995867346e+000,-2.14166571721438e+000

2.29432839682530e+005,-1.39165205821385e+000,-2.17153081482416e+000

2.32635602771247e+005,-1.39164381152193e+000,-2.20181195812014e+000

2.35883074766574e+005,-1.39163520451533e+000,-2.23251494230770e+000

2.39175879781588e+005,-1.39162622262201e+000,-2.26364564390087e+000

2.42514650641661e+005,-1.39161685076775e+000,-2.29521002189668e+000

2.45900029006080e+005,-1.39160707336417e+000,-2.32721411896503e+000

2.49332665491357e+005,-1.39159687429603e+000,-2.35966406265786e+000

2.52813219796278e+005,-1.39158623690901e+000,-2.39256606663375e+000

2.56342360828676e+005,-1.39157514399689e+000,-2.42592643190302e+000

2.59920766833993e+005,-1.39156357778927e+000,-2.45975154808792e+000

2.63549125525621e+005,-1.39155151993862e+000,-2.49404789470328e+000

2.67228134217075e+005,-1.39153895150753e+000,-2.52882204245493e+000

2.70958499956006e+005,-1.39152585295598e+000,-2.56408065455567e+000

2.74740939660078e+005,-1.39151220412837e+000,-2.59983048806083e+000

2.78576180254757e+005,-1.39149798424041e+000,-2.63607839522332e+000

2.82464958813007e+005,-1.39148317186639e+000,-2.67283132486527e+000

2.86408022696948e+005,-1.39146774492558e+000,-2.71009632377178e+000

2.90406129701488e+005,-1.39145168066942e+000,-2.74788053810180e+000

2.94460048199957e+005,-1.39143495566782e+000,-2.78619121482019e+000

2.98570557291775e+005,-1.39141754579597e+000,-2.82503570314784e+000

3.02738446952187e+005,-1.39139942622072e+000,-2.86442145603255e+000

3.06964518184081e+005,-1.39138057138672e+000,-2.90435603164080e+000

3.11249583171928e+005,-1.39136095500284e+000,-2.94484709486731e+000

3.15594465437872e+005,-1.39134055002808e+000,-2.98590241886734e+000

3.19999999999997e+005,-1.39131932865733e+000,-3.02752988660864e+000

3.24467033532806e+005,-1.39129726230698e+000,-3.06973749244408e+000

3.28996424529938e+005,-1.39127432160065e+000,-3.11253334370509e+000

3.33589043469155e+005,-1.39125047635391e+000,-3.15592566231708e+000

3.38245772979638e+005,-1.39122569555958e+000,-3.19992278643538e+000

3.42967508011610e+005,-1.39119994737210e+000,-3.24453317210373e+000

3.47755156008335e+005,-1.39117319909204e+000,-3.28976539493341e+000

3.52609637080511e+005,-1.39114541714991e+000,-3.33562815180611e+000

3.57531884183106e+005,-1.39111656708982e+000,-3.38213026259766e+000

3.62522843294651e+005,-1.39108661355265e+000,-3.42928067192552e+000

3.67583473599047e+005,-1.39105552025872e+000,-3.47708845091867e+000

3.72714747669902e+005,-1.39102324999012e+000,-3.52556279901110e+000

3.77917651657445e+005,-1.39098976457242e+000,-3.57471304575869e+000

3.83193185478053e+005,-1.39095502485577e+000,-3.62454865268013e+000

3.88542363006410e+005,-1.39091899069549e+000,-3.67507921512250e+000

3.93966212270369e+005,-1.39088162093214e+000,-3.72631446415062e+000

3.99465775648511e+005,-1.39084287337062e+000,-3.77826426846214e+000

4.05042110070485e+005,-1.39080270475882e+000,-3.83093863632854e+000

4.10696287220124e+005,-1.39076107076526e+000,-3.88434771756099e+000

4.16429393741414e+005,-1.39071792595623e+000,-3.93850180550327e+000

4.22242531447321e+005,-1.39067322377185e+000,-3.99341133905124e+000

4.28136817531551e+005,-1.39062691650122e+000,-4.04908690469997e+000

4.34113384783250e+005,-1.39057895525682e+000,-4.10553923861801e+000

4.40173381804713e+005,-1.39052928994765e+000,-4.16277922875113e+000

4.46317973232124e+005,-1.39047786925175e+000,-4.22081791695354e+000

4.52548339959385e+005,-1.39042464058713e+000,-4.27966650114968e+000

4.58865679365059e+005,-1.39036955008205e+000,-4.33933633752560e+000

4.65271205542494e+005,-1.39031254254378e+000,-4.39983894275129e+000

4.71766149533147e+005,-1.39025356142644e+000,-4.46118599623337e+000

4.78351759563174e+005,-1.39019254879736e+000,-4.52338934240107e+000

4.85029301283321e+005,-1.39012944530231e+000,-4.58646099302361e+000

4.91800058012158e+005,-1.39006419012923e+000,-4.65041312956151e+000

4.98665330982714e+005,-1.38999672097080e+000,-4.71525810555126e+000

5.05626439592555e+005,-1.38992697398546e+000,-4.78100844902510e+000

5.12684721657352e+005,-1.38985488375677e+000,-4.84767686496644e+000

5.19841533667984e+005,-1.38978038325180e+000,-4.91527623780013e+000

5.27098251051240e+005,-1.38970340377739e+000,-4.98381963392083e+000

5.34456268434150e+005,-1.38962387493525e+000,-5.05332030425887e+000

5.41916999912011e+005,-1.38954172457528e+000,-5.12379168688382e+000

