Freq.,VOut,OutRef

1.00000000000000e+004,-1.69343320425159e+001,-6.93355404564979e-002

1.01395947979003e+004,-1.69343337698087e+001,-7.03031407740193e-002

1.02811382665607e+004,-1.69343355455988e+001,-7.12842360794773e-002

1.04246576084112e+004,-1.69343373712461e+001,-7.22790142385015e-002

1.05701804056138e+004,-1.69343392481485e+001,-7.32876657157395e-002

1.07177346253629e+004,-1.69343411777426e+001,-7.43103836157748e-002

1.08673486252606e+004,-1.69343431615059e+001,-7.53473637094791e-002

1.10190511587661e+004,-1.69343452009565e+001,-7.63988044805339e-002

1.11728713807222e+004,-1.69343472976554e+001,-7.74649071538130e-002

1.13288388529580e+004,-1.69343494532069e+001,-7.85458757396673e-002

1.14869835499703e+004,-1.69343516692604e+001,-7.96419170640878e-002

1.16473358646846e+004,-1.69343539475112e+001,-8.07532408150345e-002

1.18099266142953e+004,-1.69343562897016e+001,-8.18800595757352e-002

1.19747870461893e+004,-1.69343586976235e+001,-8.30225888626265e-002

1.21419488439505e+004,-1.69343611731179e+001,-8.41810471703110e-002

1.23114441334492e+004,-1.69343637180771e+001,-8.53556560107109e-002

1.24833054890161e+004,-1.69343663344472e+001,-8.65466399459071e-002

1.26575659397028e+004,-1.69343690242280e+001,-8.77542266388195e-002

1.28342589756290e+004,-1.69343717894745e+001,-8.89786468940658e-002

1.30134185544193e+004,-1.69343746323000e+001,-9.02201346920720e-002

1.31950791077289e+004,-1.69343775548761e+001,-9.14789272400660e-002

1.33792755478611e+004,-1.69343805594351e+001,-9.27552650112639e-002

1.35660432744767e+004,-1.69343836482718e+001,-9.40493917888283e-002

1.37554181813974e+004,-1.69343868237443e+001,-9.53615547141289e-002

1.39474366635040e+004,-1.69343900882768e+001,-9.66920043247616e-002

1.41421356237309e+004,-1.69343934443606e+001,-9.80409946067320e-002

1.43395524801583e+004,-1.69343968945575e+001,-9.94087830308205e-002

1.45397251732031e+004,-1.69344004414987e+001,-1.00795630614743e-001

1.47426921729110e+004,-1.69344040878904e+001,-1.02201801952329e-001

1.49484924863494e+004,-1.69344078365128e+001,-1.03627565273807e-001

1.51571656651040e+004,-1.69344116902241e+001,-1.05073192488519e-001

1.53687518128801e+004,-1.69344156519620e+001,-1.06538959232131e-001

1.55832915932100e+004,-1.69344197247449e+001,-1.08025144924358e-001

1.58008262372675e+004,-1.69344239116762e+001,-1.09532032806352e-001

1.60213975517924e+004,-1.69344282159447e+001,-1.11059910001220e-001

1.62450479271247e+004,-1.69344326408282e+001,-1.12609067558980e-001

1.64718203453514e+004,-1.69344371896953e+001,-1.14179800510788e-001

1.67017583885674e+004,-1.69344418660073e+001,-1.15772407924354e-001

1.69349062472505e+004,-1.69344466733226e+001,-1.17387192947416e-001

1.71713087287550e+004,-1.69344516152978e+001,-1.19024462868134e-001

1.74110112659224e+004,-1.69344566956904e+001,-1.20684529169974e-001

1.76540599258131e+004,-1.69344619183624e+001,-1.22367707579908e-001

1.79005014185594e+004,-1.69344672872825e+001,-1.24074318129622e-001

1.81503831063432e+004,-1.69344728065294e+001,-1.25804685206456e-001

1.84037530124975e+004,-1.69344784802946e+001,-1.27559137612775e-001

1.86606598307361e+004,-1.69344843128849e+001,-1.29338008622744e-001

1.89211529345119e+004,-1.69344903087266e+001,-1.31141636038342e-001

1.91852823865052e+004,-1.69344964723684e+001,-1.32970362245962e-001

1.94530989482457e+004,-1.69345028084840e+001,-1.34824534279215e-001

1.97246540898671e+004,-1.69345093218764e+001,-1.36704503875007e-001

1.99999999999999e+004,-1.69345160174810e+001,-1.38610627533268e-001

2.02791895958005e+004,-1.69345229003690e+001,-1.40543266579127e-001

2.05622765331213e+004,-1.69345299757514e+001,-1.42502787223264e-001

2.08493152168224e+004,-1.69345372489827e+001,-1.44489560622614e-001

2.11403608112276e+004,-1.69345447255645e+001,-1.46503962942390e-001

2.14354692507258e+004,-1.69345524111499e+001,-1.48546375420576e-001

2.17346972505211e+004,-1.69345603115467e+001,-1.50617184432047e-001

2.20381023175322e+004,-1.69345684327231e+001,-1.52716781544878e-001

2.23457427614443e+004,-1.69345767808102e+001,-1.54845563597257e-001

2.26576777059159e+004,-1.69345853621077e+001,-1.57003932750864e-001

2.29739670999406e+004,-1.69345941830875e+001,-1.59192296564142e-001

2.32946717293690e+004,-1.69346032503990e+001,-1.61411068054001e-001

2.36198532285905e+004,-1.69346125708734e+001,-1.63660665765872e-001

2.39495740923785e+004,-1.69346221515286e+001,-1.65941513837545e-001

2.42838976879009e+004,-1.69346319995743e+001,-1.68254042068885e-001

2.46228882668982e+004,-1.69346421224166e+001,-1.70598685991917e-001

2.49666109780322e+004,-1.69346525276639e+001,-1.72975886935132e-001

2.53151318794055e+004,-1.69346632231318e+001,-1.75386092096571e-001

2.56685179512580e+004,-1.69346742168483e+001,-1.77829754613161e-001

2.60268371088386e+004,-1.69346855170603e+001,-1.80307333627009e-001

2.63901582154578e+004,-1.69346971322382e+001,-1.82819294362720e-001

2.67585510957221e+004,-1.69347090710826e+001,-1.85366108193808e-001

2.71320865489533e+004,-1.69347213425299e+001,-1.87948252714973e-001

2.75108363627948e+004,-1.69347339557583e+001,-1.90566211817904e-001

2.78948733270080e+004,-1.69347469201948e+001,-1.93220475756836e-001

2.82842712474618e+004,-1.69347602455208e+001,-1.95911541227385e-001

2.86791049603164e+004,-1.69347739416790e+001,-1.98639911438846e-001

2.90794503464061e+004,-1.69347880188807e+001,-2.01406096184305e-001

2.94853843458219e+004,-1.69348024876113e+001,-2.04210611920409e-001

2.98969849726987e+004,-1.69348173586392e+001,-2.07053981834105e-001

3.03143313302078e+004,-1.69348326430212e+001,-2.09936735925043e-001

3.07375036257601e+004,-1.69348483521114e+001,-2.12859411074146e-001

3.11665831864199e+004,-1.69348644975676e+001,-2.15822551122838e-001

3.16016524745350e+004,-1.69348810913598e+001,-2.18826706945229e-001

3.20427951035848e+004,-1.69348981457776e+001,-2.21872436525739e-001

3.24900958542493e+004,-1.69349156734384e+001,-2.24960305034016e-001

3.29436406907028e+004,-1.69349336872955e+001,-2.28090884900382e-001

3.34035167771346e+004,-1.69349522006472e+001,-2.31264755890556e-001

3.38698124945009e+004,-1.69349712271444e+001,-2.34482505182974e-001

3.43426174575100e+004,-1.69349907808000e+001,-2.37744727445261e-001

3.48220225318448e+004,-1.69350108759974e+001,-2.41052024908699e-001

3.53081198516260e+004,-1.69350315275001e+001,-2.44405007443870e-001

3.58010028371187e+004,-1.69350527504608e+001,-2.47804292637227e-001

3.63007662126863e+004,-1.69350745604310e+001,-2.51250505865153e-001

3.68075060249948e+004,-1.69350969733705e+001,-2.54744280371560e-001

3.73213196614721e+004,-1.69351200056575e+001,-2.58286257339834e-001

3.78423058690237e+004,-1.69351436740984e+001,-2.61877085972018e-001

3.83705647730104e+004,-1.69351679959387e+001,-2.65517423556795e-001

3.89061978964912e+004,-1.69351929888725e+001,-2.69207935551012e-001

3.94493081797342e+004,-1.69352186710539e+001,-2.72949295647240e-001

3.99999999999998e+004,-1.69352450611078e+001,-2.76742185849627e-001

4.05583791916010e+004,-1.69352721781406e+001,-2.80587296545580e-001

4.11245530662425e+004,-1.69353000417515e+001,-2.84485326578438e-001

4.16986304336447e+004,-1.69353286720443e+001,-2.88436983316098e-001

4.22807216224550e+004,-1.69353580896384e+001,-2.92442982726569e-001

4.28709385014515e+004,-1.69353883156816e+001,-2.96504049439605e-001

4.34693945010421e+004,-1.69354193718604e+001,-3.00620916824533e-001

4.40762046350642e+004,-1.69354512804142e+001,-3.04794327049354e-001

4.46914855228886e+004,-1.69354840641460e+001,-3.09025031153346e-001

4.53153554118317e+004,-1.69355177464361e+001,-3.13313789108268e-001

4.59479341998812e+004,-1.69355523512538e+001,-3.17661369886681e-001

4.65893434587380e+004,-1.69355879031712e+001,-3.22068551520782e-001

4.72397064571810e+004,-1.69356244273756e+001,-3.26536121166099e-001

4.78991481847569e+004,-1.69356619496830e+001,-3.31064875161062e-001

4.85677953758016e+004,-1.69357004965516e+001,-3.35655619084495e-001

4.92457765337964e+004,-1.69357400950947e+001,-3.40309167814380e-001

4.99332219560642e+004,-1.69357807730949e+001,-3.45026345580559e-001

5.06302637588109e+004,-1.69358225590180e+001,-3.49807986018633e-001

5.13370359025159e+004,-1.69358654820263e+001,-3.54654932220779e-001

5.20536742176771e+004,-1.69359095719933e+001,-3.59568036784533e-001

5.27803164309155e+004,-1.69359548595170e+001,-3.64548161861347e-001

5.35171021914442e+004,-1.69360013759350e+001,-3.69596179197676e-001

5.42641730979066e+004,-1.69360491533384e+001,-3.74712970179931e-001

5.50216727255895e+004,-1.69360982245857e+001,-3.79899425872990e-001

5.57897466540159e+004,-1.69361486233184e+001,-3.85156447054888e-001

5.65685424949235e+004,-1.69362003839739e+001,-3.90484944256793e-001

5.73582099206328e+004,-1.69362535418016e+001,-3.95885837785147e-001

5.81589006928121e+004,-1.69363081328757e+001,-4.01360057759707e-001

5.89707686916437e+004,-1.69363641941113e+001,-4.06908544129621e-001

5.97939699453972e+004,-1.69364217632778e+001,-4.12532246701615e-001

6.06286626604156e+004,-1.69364808790128e+001,-4.18232125156270e-001

6.14750072515201e+004,-1.69365415808382e+001,-4.24009149060339e-001

6.23331663728396e+004,-1.69366039091725e+001,-4.29864297882048e-001

6.32033049490698e+004,-1.69366679053455e+001,-4.35798560995866e-001

6.40855902071694e+004,-1.69367336116127e+001,-4.41812937686005e-001

6.49801917084985e+004,-1.69368010711681e+001,-4.47908437148364e-001

6.58872813814055e+004,-1.69368703281581e+001,-4.54086078482890e-001

6.68070335542691e+004,-1.69369414276947e+001,-4.60346890686806e-001

6.77396249890018e+004,-1.69370144158684e+001,-4.66691912639250e-001

6.86852349150199e+004,-1.69370893397603e+001,-4.73122193086872e-001

6.96440450636895e+004,-1.69371662474552e+001,-4.79638790617484e-001

7.06162397032520e+004,-1.69372451880526e+001,-4.86242773635441e-001

7.16020056742374e+004,-1.69373262116783e+001,-4.92935220328480e-001

7.26015324253724e+004,-1.69374093694952e+001,-4.99717218631785e-001

7.36150120499896e+004,-1.69374947137136e+001,-5.06589866185826e-001

7.46426393229441e+004,-1.69375822976010e+001,-5.13554270287020e-001

7.56846117380472e+004,-1.69376721754907e+001,-5.20611547840410e-001

7.67411295460207e+004,-1.69377644027907e+001,-5.27762825295740e-001

7.78123957929823e+004,-1.69378590359905e+001,-5.35009238590168e-001

7.88986163594682e+004,-1.69379561326687e+001,-5.42351933076180e-001

7.99999999999995e+004,-1.69380557514981e+001,-5.49792063449157e-001

8.11167583832018e+004,-1.69381579522507e+001,-5.57330793668193e-001

8.22491061324848e+004,-1.69382627958017e+001,-5.64969296871902e-001

8.33972608672892e+004,-1.69383703441324e+001,-5.72708755285176e-001

8.45614432449099e+004,-1.69384806603310e+001,-5.80550360128082e-001

8.57418770029029e+004,-1.69385938085938e+001,-5.88495311510195e-001

8.69387890020841e+004,-1.69387098542238e+001,-5.96544818325713e-001

8.81524092701283e+004,-1.69388288636277e+001,-6.04700098143702e-001

8.93829710457770e+004,-1.69389509043132e+001,-6.12962377085009e-001

9.06307108236633e+004,-1.69390760448820e+001,-6.21332889706768e-001

9.18958683997622e+004,-1.69392043550240e+001,-6.29812878869535e-001

9.31786869174758e+004,-1.69393359055069e+001,-6.38403595609105e-001

9.44794129143618e+004,-1.69394707681668e+001,-6.47106298995504e-001

9.57982963695136e+004,-1.69396090158939e+001,-6.55922255996103e-001

9.71355907516031e+004,-1.69397507226189e+001,-6.64852741326746e-001

9.84915530675926e+004,-1.69398959632948e+001,-6.73899037305155e-001

9.98664439121282e+004,-1.69400448138784e+001,-6.83062433695349e-001

1.01260527517622e+005,-1.69401973513083e+001,-6.92344227554560e-001

1.02674071805032e+005,-1.69403536534801e+001,-7.01745723072805e-001

1.04107348435354e+005,-1.69405137992203e+001,-7.11268231413097e-001

1.05560632861831e+005,-1.69406778682564e+001,-7.20913070547146e-001

1.07034204382888e+005,-1.69408459411845e+001,-7.30681565092975e-001

1.08528346195813e+005,-1.69410180994335e+001,-7.40575046151087e-001

1.10043345451179e+005,-1.69411944252276e+001,-7.50594851137551e-001

1.11579493308032e+005,-1.69413750015438e+001,-7.60742323621167e-001

1.13137084989847e+005,-1.69415599120674e+001,-7.71018813162372e-001

1.14716419841265e+005,-1.69417492411435e+001,-7.81425675152076e-001

1.16317801385624e+005,-1.69419430737255e+001,-7.91964270654515e-001

1.17941537383287e+005,-1.69421414953189e+001,-8.02635966255523e-001

1.19587939890794e+005,-1.69423445919227e+001,-8.13442133915262e-001

1.21257325320831e+005,-1.69425524499663e+001,-8.24384150824157e-001

1.22950014503040e+005,-1.69427651562419e+001,-8.35463399272919e-001

1.24666332745679e+005,-1.69429827978339e+001,-8.46681266523364e-001

1.26406609898139e+005,-1.69432054620436e+001,-8.58039144694806e-001

1.28171180414339e+005,-1.69434332363093e+001,-8.69538430659473e-001

1.29960383416997e+005,-1.69436662081231e+001,-8.81180525948876e-001

1.31774562762811e+005,-1.69439044649423e+001,-8.92966836677992e-001

1.33614067108538e+005,-1.69441480940968e+001,-9.04898773481416e-001

1.35479249978003e+005,-1.69443971826918e+001,-9.16977751469185e-001

1.37370469830040e+005,-1.69446518175061e+001,-9.29205190200612e-001

1.39288090127379e+005,-1.69449120848860e+001,-9.41582513678976e-001

1.41232479406504e+005,-1.69451780706336e+001,-9.54111150368530e-001

1.43204011348474e+005,-1.69454498598914e+001,-9.66792533237795e-001

1.45203064850745e+005,-1.69457275370223e+001,-9.79628099825093e-001

1.47230024099979e+005,-1.69460111854840e+001,-9.92619292338141e-001

1.49285278645888e+005,-1.69463008876996e+001,-1.00576755778118e+000

1.51369223476094e+005,-1.69465967249232e+001,-1.01907434811379e+000

1.53482259092041e+005,-1.69468987771015e+001,-1.03254112044755e+000

1.55624791585964e+005,-1.69472071227302e+001,-1.04616933727926e+000

1.57797232718936e+005,-1.69475218387065e+001,-1.05996046676208e+000

1.59999999999999e+005,-1.69478430001778e+001,-1.07391598301968e+000

1.62233516766403e+005,-1.69481706803853e+001,-1.08803736650649e+000

1.64498212264969e+005,-1.69485049505044e+001,-1.10232610441075e+000

1.66794521734578e+005,-1.69488458794815e+001,-1.11678369111025e+000

1.69122886489819e+005,-1.69491935338670e+001,-1.13141162867775e+000

1.71483754005805e+005,-1.69495479776445e+001,-1.14621142744066e+000

1.73877578004168e+005,-1.69499092720586e+001,-1.16118460659628e+000

1.76304818540256e+005,-1.69502774754380e+001,-1.17633269488713e+000

1.78765942091554e+005,-1.69506526430178e+001,-1.19165723133613e+000

1.81261421647326e+005,-1.69510348267589e+001,-1.20715976604450e+000

1.83791736799524e+005,-1.69514240751662e+001,-1.22284186105573e+000

1.86357373834951e+005,-1.69518204331051e+001,-1.23870509128724e+000

1.88958825828723e+005,-1.69522239416177e+001,-1.25475104553066e+000

1.91596592739027e+005,-1.69526346377385e+001,-1.27098132752226e+000

1.94271181503206e+005,-1.69530525543097e+001,-1.28739755708981e+000

1.96983106135185e+005,-1.69534777197978e+001,-1.30400137137101e+000

1.99732887824256e+005,-1.69539101581115e+001,-1.32079442610814e+000

2.02521055035243e+005,-1.69543498884207e+001,-1.33777839702267e+000

2.05348143610063e+005,-1.69547969249784e+001,-1.35495498126431e+000

2.08214696870707e+005,-1.69552512769456e+001,-1.37232589894336e+000

2.11121265723661e+005,-1.69557129482192e+001,-1.38989289473960e+000

2.14068408765776e+005,-1.69561819372654e+001,-1.40765773959310e+000

2.17056692391625e+005,-1.69566582369569e+001,-1.42562223247684e+000

2.20086690902357e+005,-1.69571418344160e+001,-1.44378820224589e+000

2.23158986616063e+005,-1.69576327108653e+001,-1.46215750956987e+000

2.26274169979693e+005,-1.69581308414835e+001,-1.48073204894203e+000

2.29432839682530e+005,-1.69586361952707e+001,-1.49951375076915e+000

2.32635602771247e+005,-1.69591487349216e+001,-1.51850458353535e+000

2.35883074766574e+005,-1.69596684167079e+001,-1.53770655604277e+000

2.39175879781588e+005,-1.69601951903711e+001,-1.55712171972314e+000

2.42514650641661e+005,-1.69607289990260e+001,-1.57675217102246e+000

2.45900029006080e+005,-1.69612697790753e+001,-1.59660005385191e+000

2.49332665491357e+005,-1.69618174601370e+001,-1.61666756210217e+000

2.52813219796278e+005,-1.69623719649841e+001,-1.63695694222203e+000

2.56342360828676e+005,-1.69629332094985e+001,-1.65747049585125e+000

2.59920766833993e+005,-1.69635011026380e+001,-1.67821058250803e+000

2.63549125525621e+005,-1.69640755464194e+001,-1.69917962232487e+000

2.67228134217075e+005,-1.69646564359158e+001,-1.72038009882748e+000

2.70958499956006e+005,-1.69652436592705e+001,-1.74181456175244e+000

2.74740939660078e+005,-1.69658370977267e+001,-1.76348562989925e+000

2.78576180254757e+005,-1.69664366256742e+001,-1.78539599400646e+000

2.82464958813007e+005,-1.69670421107132e+001,-1.80754841965210e+000

2.86408022696948e+005,-1.69676534137357e+001,-1.82994575016621e+000

2.90406129701488e+005,-1.69682703890239e+001,-1.85259090955422e+000

2.94460048199957e+005,-1.69688928843676e+001,-1.87548690541918e+000

2.98570557291775e+005,-1.69695207411983e+001,-1.89863683188081e+000

3.02738446952187e+005,-1.69701537947422e+001,-1.92204387248018e+000

3.06964518184081e+005,-1.69707918741912e+001,-1.94571130306576e+000

3.11249583171928e+005,-1.69714348028912e+001,-1.96964249465364e+000

3.15594465437872e+005,-1.69720823985482e+001,-1.99384091625223e+000

3.19999999999997e+005,-1.69727344734527e+001,-2.01831013764634e+000

3.24467033532806e+005,-1.69733908347200e+001,-2.04305383213259e+000

3.28996424529938e+005,-1.69740512845479e+001,-2.06807577920114e+000

3.33589043469155e+005,-1.69747156204903e+001,-2.09337986715321e+000

3.38245772979638e+005,-1.69753836357467e+001,-2.11897009565038e+000

3.42967508011610e+005,-1.69760551194661e+001,-2.14485057818984e+000

3.47755156008335e+005,-1.69767298570655e+001,-2.17102554449639e+000

3.52609637080511e+005,-1.69774076305618e+001,-2.19749934282706e+000

3.57531884183106e+005,-1.69780882189159e+001,-2.22427644218587e+000

3.62522843294651e+005,-1.69787713983891e+001,-2.25136143443467e+000

3.67583473599047e+005,-1.69794569429091e+001,-2.27875903630773e+000

3.72714747669902e+005,-1.69801446244461e+001,-2.30647409131457e+000

3.77917651657445e+005,-1.69808342133982e+001,-2.33451157153387e+000

3.83193185478053e+005,-1.69815254789820e+001,-2.36287657929337e+000

3.88542363006410e+005,-1.69822181896317e+001,-2.39157434873210e+000

3.93966212270369e+005,-1.69829121134014e+001,-2.42061024724423e+000

3.99465775648511e+005,-1.69836070183723e+001,-2.44998977680225e+000

4.05042110070485e+005,-1.69843026730612e+001,-2.47971857515764e+000

4.10696287220124e+005,-1.69849988468310e+001,-2.50980241692165e+000

4.16429393741414e+005,-1.69856953103014e+001,-2.54024721452086e+000

4.22242531447321e+005,-1.69863918357569e+001,-2.57105901903436e+000

4.28136817531551e+005,-1.69870881975537e+001,-2.60224402091023e+000

4.34113384783250e+005,-1.69877841725220e+001,-2.63380855056358e+000

4.40173381804713e+005,-1.69884795403632e+001,-2.66575907886039e+000

4.46317973232124e+005,-1.69891740840411e+001,-2.69810221748809e+000

4.52548339959385e+005,-1.69898675901660e+001,-2.73084471921730e+000

4.58865679365059e+005,-1.69905598493698e+001,-2.76399347806049e+000

4.65271205542494e+005,-1.69912506566720e+001,-2.79755552932933e+000

4.71766149533147e+005,-1.69919398118350e+001,-2.83153804959745e+000

4.78351759563174e+005,-1.69926271197081e+001,-2.86594835657412e+000

4.85029301283321e+005,-1.69933123905591e+001,-2.90079390889438e+000

4.91800058012158e+005,-1.69939954403933e+001,-2.93608230583153e+000

4.98665330982714e+005,-1.69946760912576e+001,-2.97182128693976e+000

5.05626439592555e+005,-1.69953541715314e+001,-3.00801873163154e+000

5.12684721657352e+005,-1.69960295162018e+001,-3.04468265869925e+000

5.19841533667984e+005,-1.69967019671232e+001,-3.08182122578707e+000

5.27098251051240e+005,-1.69973713732612e+001,-3.11944272882023e+000

5.34456268434150e+005,-1.69980375909203e+001,-3.15755560140013e+000

5.41916999912011e+005,-1.69987004839547e+001,-3.19616841417112e+000

