Freq.,VOut,OutRef

1.00000000000000e+004,-1.34935822918703e+001,-8.36246251472693e-002

1.01395947979003e+004,-1.34935841754795e+001,-8.47916646645562e-002

1.02811382665607e+004,-1.34935861119741e+001,-8.59749820079842e-002

1.04246576084112e+004,-1.34935881028371e+001,-8.71748038366855e-002

1.05701804056138e+004,-1.34935901495928e+001,-8.83913599513803e-002

1.07177346253629e+004,-1.34935922538081e+001,-8.96248833342157e-002

1.08673486252606e+004,-1.34935944170937e+001,-9.08756101945880e-002

1.10190511587661e+004,-1.34935966411055e+001,-9.21437800100513e-002

1.11728713807222e+004,-1.34935989275449e+001,-9.34296355777675e-002

1.13288388529580e+004,-1.34936012781619e+001,-9.47334230478713e-002

1.14869835499703e+004,-1.34936036947548e+001,-9.60553919787535e-002

1.16473358646846e+004,-1.34936061791725e+001,-9.73957953792808e-002

1.18099266142953e+004,-1.34936087333150e+001,-9.87548897583193e-002

1.19747870461893e+004,-1.34936113591354e+001,-1.00132935171779e-001

1.21419488439505e+004,-1.34936140586419e+001,-1.01530195263133e-001

1.23114441334492e+004,-1.34936168338982e+001,-1.02946937324032e-001

1.24833054890161e+004,-1.34936196870257e+001,-1.04383432335597e-001

1.26575659397028e+004,-1.34936226202048e+001,-1.05839955022194e-001

1.28342589756290e+004,-1.34936256356775e+001,-1.07316783894628e-001

1.30134185544193e+004,-1.34936287357473e+001,-1.08814201312895e-001

1.31950791077289e+004,-1.34936319227824e+001,-1.10332493529024e-001

1.33792755478611e+004,-1.34936351992172e+001,-1.11871950741290e-001

1.35660432744767e+004,-1.34936385675532e+001,-1.13432867152046e-001

1.37554181813974e+004,-1.34936420303625e+001,-1.15015541011939e-001

1.39474366635040e+004,-1.34936455902879e+001,-1.16620274686563e-001

1.41421356237309e+004,-1.34936492500469e+001,-1.18247374696756e-001

1.43395524801583e+004,-1.34936530124314e+001,-1.19897151790008e-001

1.45397251732031e+004,-1.34936568803118e+001,-1.21569920984393e-001

1.47426921729110e+004,-1.34936608566380e+001,-1.23266001632198e-001

1.49484924863494e+004,-1.34936649444423e+001,-1.24985717475070e-001

1.51571656651040e+004,-1.34936691468407e+001,-1.26729396705030e-001

1.53687518128801e+004,-1.34936734670364e+001,-1.28497372019099e-001

1.55832915932100e+004,-1.34936779083211e+001,-1.30289980683980e-001

1.58008262372675e+004,-1.34936824740785e+001,-1.32107564591605e-001

1.60213975517924e+004,-1.34936871677853e+001,-1.33950470328281e-001

1.62450479271247e+004,-1.34936919930158e+001,-1.35819049225956e-001

1.64718203453514e+004,-1.34936969534425e+001,-1.37713657434971e-001

1.67017583885674e+004,-1.34937020528405e+001,-1.39634655978822e-001

1.69349062472505e+004,-1.34937072950891e+001,-1.41582410826265e-001

1.71713087287550e+004,-1.34937126841750e+001,-1.43557292950431e-001

1.74110112659224e+004,-1.34937182241959e+001,-1.45559678395537e-001

1.76540599258131e+004,-1.34937239193623e+001,-1.47589948346075e-001

1.79005014185594e+004,-1.34937297740017e+001,-1.49648489189930e-001

1.81503831063432e+004,-1.34937357925608e+001,-1.51735692590341e-001

1.84037530124975e+004,-1.34937419796100e+001,-1.53851955548888e-001

1.86606598307361e+004,-1.34937483398453e+001,-1.55997680480432e-001

1.89211529345119e+004,-1.34937548780926e+001,-1.58173275280865e-001

1.91852823865052e+004,-1.34937615993114e+001,-1.60379153396148e-001

1.94530989482457e+004,-1.34937685085977e+001,-1.62615733896407e-001

1.97246540898671e+004,-1.34937756111882e+001,-1.64883441547459e-001

1.99999999999999e+004,-1.34937829124635e+001,-1.67182706884964e-001

2.02791895958005e+004,-1.34937904179533e+001,-1.69513966284001e-001

2.05622765331213e+004,-1.34937981333390e+001,-1.71877662038302e-001

2.08493152168224e+004,-1.34938060644582e+001,-1.74274242435333e-001

2.11403608112276e+004,-1.34938142173095e+001,-1.76704161827475e-001

2.14354692507258e+004,-1.34938225980558e+001,-1.79167880716097e-001

2.17346972505211e+004,-1.34938312130300e+001,-1.81665865821527e-001

2.20381023175322e+004,-1.34938400687381e+001,-1.84198590167902e-001

2.23457427614443e+004,-1.34938491718649e+001,-1.86766533158246e-001

2.26576777059159e+004,-1.34938585292785e+001,-1.89370180654788e-001

2.29739670999406e+004,-1.34938681480350e+001,-1.92010025060003e-001

2.32946717293690e+004,-1.34938780353834e+001,-1.94686565400286e-001

2.36198532285905e+004,-1.34938881987714e+001,-1.97400307401620e-001

2.39495740923785e+004,-1.34938986458499e+001,-2.00151763579264e-001

2.42838976879009e+004,-1.34939093844788e+001,-2.02941453315558e-001

2.46228882668982e+004,-1.34939204227324e+001,-2.05769902948479e-001

2.49666109780322e+004,-1.34939317689050e+001,-2.08637645853362e-001

2.53151318794055e+004,-1.34939434315170e+001,-2.11545222528521e-001

2.56685179512580e+004,-1.34939554193206e+001,-2.14493180682265e-001

2.60268371088386e+004,-1.34939677413055e+001,-2.17482075321281e-001

2.63901582154578e+004,-1.34939804067061e+001,-2.20512468834682e-001

2.67585510957221e+004,-1.34939934250071e+001,-2.23584931083218e-001

2.71320865489533e+004,-1.34940068059501e+001,-2.26700039489147e-001

2.75108363627948e+004,-1.34940205595407e+001,-2.29858379125381e-001

2.78948733270080e+004,-1.34940346960547e+001,-2.33060542804347e-001

2.82842712474618e+004,-1.34940492260462e+001,-2.36307131166362e-001

2.86791049603164e+004,-1.34940641603532e+001,-2.39598752777855e-001

2.90794503464061e+004,-1.34940795101065e+001,-2.42936024212894e-001

2.94853843458219e+004,-1.34940952867360e+001,-2.46319570155254e-001

2.98969849726987e+004,-1.34941115019793e+001,-2.49750023482646e-001

3.03143313302078e+004,-1.34941281678889e+001,-2.53228025364111e-001

3.07375036257601e+004,-1.34941452968405e+001,-2.56754225353530e-001

3.11665831864199e+004,-1.34941629015412e+001,-2.60329281481241e-001

3.16016524745350e+004,-1.34941809950380e+001,-2.63953860349323e-001

3.20427951035848e+004,-1.34941995907259e+001,-2.67628637228879e-001

3.24900958542493e+004,-1.34942187023574e+001,-2.71354296149388e-001

3.29436406907028e+004,-1.34942383440508e+001,-2.75131529998087e-001

3.34035167771346e+004,-1.34942585302998e+001,-2.78961040615304e-001

3.38698124945009e+004,-1.34942792759824e+001,-2.82843538888421e-001

3.43426174575100e+004,-1.34943005963711e+001,-2.86779744847812e-001

3.48220225318448e+004,-1.34943225071418e+001,-2.90770387765546e-001

3.53081198516260e+004,-1.34943450243842e+001,-2.94816206248666e-001

3.58010028371187e+004,-1.34943681646122e+001,-2.98917948334898e-001

3.63007662126863e+004,-1.34943919447736e+001,-3.03076371593295e-001

3.68075060249948e+004,-1.34944163822613e+001,-3.07292243214690e-001

3.73213196614721e+004,-1.34944414949232e+001,-3.11566340112763e-001

3.78423058690237e+004,-1.34944673010743e+001,-3.15899449015296e-001

3.83705647730104e+004,-1.34944938195068e+001,-3.20292366564937e-001

3.89061978964912e+004,-1.34945210695020e+001,-3.24745899410627e-001

3.94493081797342e+004,-1.34945490708420e+001,-3.29260864304888e-001

3.99999999999998e+004,-1.34945778438209e+001,-3.33838088198578e-001

4.05583791916010e+004,-1.34946074092573e+001,-3.38478408334884e-001

4.11245530662425e+004,-1.34946377885066e+001,-3.43182672341909e-001

4.16986304336447e+004,-1.34946690034729e+001,-3.47951738329832e-001

4.22807216224550e+004,-1.34947010766219e+001,-3.52786474978729e-001

4.28709385014515e+004,-1.34947340309938e+001,-3.57687761635459e-001

4.34693945010421e+004,-1.34947678902161e+001,-3.62656488400619e-001

4.40762046350642e+004,-1.34948026785168e+001,-3.67693556222380e-001

4.46914855228886e+004,-1.34948384207383e+001,-3.72799876981862e-001

4.53153554118317e+004,-1.34948751423502e+001,-3.77976373587261e-001

4.59479341998812e+004,-1.34949128694637e+001,-3.83223980054737e-001

4.65893434587380e+004,-1.34949516288453e+001,-3.88543641599130e-001

4.72397064571810e+004,-1.34949914479310e+001,-3.93936314716207e-001

4.78991481847569e+004,-1.34950323548405e+001,-3.99402967268081e-001

4.85677953758016e+004,-1.34950743783921e+001,-4.04944578561544e-001

4.92457765337964e+004,-1.34951175481167e+001,-4.10562139431702e-001

4.99332219560642e+004,-1.34951618942728e+001,-4.16256652320117e-001

5.06302637588109e+004,-1.34952074478620e+001,-4.22029131348428e-001

5.13370359025159e+004,-1.34952542406431e+001,-4.27880602396125e-001

5.20536742176771e+004,-1.34953023051477e+001,-4.33812103173068e-001

5.27803164309155e+004,-1.34953516746959e+001,-4.39824683288724e-001

5.35171021914442e+004,-1.34954023834111e+001,-4.45919404319818e-001

5.42641730979066e+004,-1.34954544662351e+001,-4.52097339879993e-001

5.50216727255895e+004,-1.34955079589449e+001,-4.58359575678511e-001

5.57897466540159e+004,-1.34955628981670e+001,-4.64707209583011e-001

5.65685424949235e+004,-1.34956193213934e+001,-4.71141351678775e-001

5.73582099206328e+004,-1.34956772669976e+001,-4.77663124321871e-001

5.81589006928121e+004,-1.34957367742498e+001,-4.84273662190930e-001

5.89707686916437e+004,-1.34957978833322e+001,-4.90974112337859e-001

5.97939699453972e+004,-1.34958606353551e+001,-4.97765634232730e-001

6.06286626604156e+004,-1.34959250723719e+001,-5.04649399805580e-001

6.14750072515201e+004,-1.34959912373951e+001,-5.11626593482806e-001

6.23331663728396e+004,-1.34960591744103e+001,-5.18698412228151e-001

6.32033049490698e+004,-1.34961289283926e+001,-5.25866065566572e-001

6.40855902071694e+004,-1.34962005453206e+001,-5.33130775616650e-001

6.49801917084985e+004,-1.34962740721909e+001,-5.40493777112102e-001

6.58872813814055e+004,-1.34963495570335e+001,-5.47956317417784e-001

6.68070335542691e+004,-1.34964270489248e+001,-5.55519656548877e-001

6.77396249890018e+004,-1.34965065980018e+001,-5.63185067176859e-001

6.86852349150199e+004,-1.34965882554756e+001,-5.70953834637608e-001

6.96440450636895e+004,-1.34966720736438e+001,-5.78827256930098e-001

7.06162397032520e+004,-1.34967581059036e+001,-5.86806644713342e-001

7.16020056742374e+004,-1.34968464067636e+001,-5.94893321296104e-001

7.26015324253724e+004,-1.34969370318546e+001,-6.03088622624386e-001

7.36150120499896e+004,-1.34970300379414e+001,-6.11393897259261e-001

7.46426393229441e+004,-1.34971254829321e+001,-6.19810506354341e-001

7.56846117380472e+004,-1.34972234258877e+001,-6.28339823625197e-001

7.67411295460207e+004,-1.34973239270306e+001,-6.36983235314113e-001

7.78123957929823e+004,-1.34974270477525e+001,-6.45742140147401e-001

7.88986163594682e+004,-1.34975328506209e+001,-6.54617949290869e-001

7.99999999999995e+004,-1.34976413993851e+001,-6.63612086296881e-001

8.11167583832018e+004,-1.34977527589808e+001,-6.72725987046439e-001

8.22491061324848e+004,-1.34978669955333e+001,-6.81961099686313e-001

8.33972608672892e+004,-1.34979841763604e+001,-6.91318884559087e-001

8.45614432449099e+004,-1.34981043699733e+001,-7.00800814129311e-001

8.57418770029029e+004,-1.34982276460756e+001,-7.10408372903295e-001

8.69387890020841e+004,-1.34983540755621e+001,-7.20143057342736e-001

8.81524092701283e+004,-1.34984837305150e+001,-7.30006375774114e-001

8.93829710457770e+004,-1.34986166841989e+001,-7.39999848291865e-001

9.06307108236633e+004,-1.34987530110537e+001,-7.50125006657641e-001

9.18958683997622e+004,-1.34988927866860e+001,-7.60383394192159e-001

9.31786869174758e+004,-1.34990360878583e+001,-7.70776565664873e-001

9.44794129143618e+004,-1.34991829924762e+001,-7.81306087177394e-001

9.57982963695136e+004,-1.34993335795729e+001,-7.91973536043354e-001

9.71355907516031e+004,-1.34994879292929e+001,-8.02780500663055e-001

9.84915530675926e+004,-1.34996461228710e+001,-8.13728580396232e-001

9.98664439121282e+004,-1.34998082426108e+001,-8.24819385430684e-001

1.01260527517622e+005,-1.34999743718596e+001,-8.36054536646479e-001

1.02674071805032e+005,-1.35001445949804e+001,-8.47435665480014e-001

1.04107348435354e+005,-1.35003189973218e+001,-8.58964413784567e-001

1.05560632861831e+005,-1.35004976651835e+001,-8.70642433690953e-001

1.07034204382888e+005,-1.35006806857802e+001,-8.82471387465141e-001

1.08528346195813e+005,-1.35008681472014e+001,-8.94452947367033e-001

1.10043345451179e+005,-1.35010601383677e+001,-9.06588795511542e-001

1.11579493308032e+005,-1.35012567489836e+001,-9.18880623728181e-001

1.13137084989847e+005,-1.35014580694872e+001,-9.31330133423660e-001

1.14716419841265e+005,-1.35016641909956e+001,-9.43939035448277e-001

1.16317801385624e+005,-1.35018752052463e+001,-9.56709049966843e-001

1.17941537383287e+005,-1.35020912045351e+001,-9.69641906333839e-001

1.19587939890794e+005,-1.35023122816489e+001,-9.82739342975184e-001

1.21257325320831e+005,-1.35025385297956e+001,-9.96003107276166e-001

1.22950014503040e+005,-1.35027700425284e+001,-1.00943495548199e+000

1.24666332745679e+005,-1.35030069136660e+001,-1.02303665260262e+000

1.26406609898139e+005,-1.35032492372082e+001,-1.03680997233487e+000

1.28171180414339e+005,-1.35034971072472e+001,-1.05075669699396e+000

1.29960383416997e+005,-1.35037506178734e+001,-1.06487861745871e+000

1.31774562762811e+005,-1.35040098630764e+001,-1.07917753313859e+000

1.33614067108538e+005,-1.35042749366418e+001,-1.09365525195074e+000

1.35479249978003e+005,-1.35045459320424e+001,-1.10831359032289e+000

1.37370469830040e+005,-1.35048229423238e+001,-1.12315437321678e+000

1.39288090127379e+005,-1.35051060599860e+001,-1.13817943417108e+000

1.41232479406504e+005,-1.35053953768591e+001,-1.15339061537661e+000

1.43204011348474e+005,-1.35056909839738e+001,-1.16878976777331e+000

1.45203064850745e+005,-1.35059929714275e+001,-1.18437875118076e+000

1.47230024099979e+005,-1.35063014282436e+001,-1.20015943446038e+000

1.49285278645888e+005,-1.35066164422278e+001,-1.21613369570981e+000

1.51369223476094e+005,-1.35069380998177e+001,-1.23230342249695e+000

1.53482259092041e+005,-1.35072664859276e+001,-1.24867051213428e+000

1.55624791585964e+005,-1.35076016837890e+001,-1.26523687199082e+000

1.57797232718936e+005,-1.35079437747861e+001,-1.28200441985081e+000

1.59999999999999e+005,-1.35082928382859e+001,-1.29897508432207e+000

1.62233516766403e+005,-1.35086489514645e+001,-1.31615080528906e+000

1.64498212264969e+005,-1.35090121891286e+001,-1.33353353442339e+000

1.66794521734578e+005,-1.35093826235336e+001,-1.35112523574193e+000

1.69122886489819e+005,-1.35097603241966e+001,-1.36892788623228e+000

1.71483754005805e+005,-1.35101453577066e+001,-1.38694347652965e+000

1.73877578004168e+005,-1.35105377875312e+001,-1.40517401166173e+000

1.76304818540256e+005,-1.35109376738201e+001,-1.42362151185676e+000

1.78765942091554e+005,-1.35113450732061e+001,-1.44228801342034e+000

1.81261421647326e+005,-1.35117600386033e+001,-1.46117556968224e+000

1.83791736799524e+005,-1.35121826190042e+001,-1.48028625201693e+000

1.86357373834951e+005,-1.35126128592748e+001,-1.49962215093811e+000

1.88958825828723e+005,-1.35130507999487e+001,-1.51918537727082e+000

1.91596592739027e+005,-1.35134964770212e+001,-1.53897806340402e+000

1.94271181503206e+005,-1.35139499217427e+001,-1.55900236462346e+000

1.96983106135185e+005,-1.35144111604138e+001,-1.57926046052703e+000

1.99732887824256e+005,-1.35148802141806e+001,-1.59975455652783e+000

2.02521055035243e+005,-1.35153570988325e+001,-1.62048688543931e+000

2.05348143610063e+005,-1.35158418246023e+001,-1.64145970915139e+000

2.08214696870707e+005,-1.35163343959697e+001,-1.66267532039166e+000

2.11121265723661e+005,-1.35168348114682e+001,-1.68413604457920e+000

2.14068408765776e+005,-1.35173430634974e+001,-1.70584424176386e+000

2.17056692391625e+005,-1.35178591381399e+001,-1.72780230865867e+000

2.20086690902357e+005,-1.35183830149850e+001,-1.75001268075942e+000

2.23158986616063e+005,-1.35189146669588e+001,-1.77247783455374e+000

2.26274169979693e+005,-1.35194540601624e+001,-1.79520028981962e+000

2.29432839682530e+005,-1.35200011537185e+001,-1.81818261200822e+000

2.32635602771247e+005,-1.35205558996270e+001,-1.84142741471552e+000

2.35883074766574e+005,-1.35211182426314e+001,-1.86493736223513e+000

2.39175879781588e+005,-1.35216881200955e+001,-1.88871517219343e+000

2.42514650641661e+005,-1.35222654618917e+001,-1.91276361826463e+000

2.45900029006080e+005,-1.35228501903031e+001,-1.93708553295732e+000

2.49332665491357e+005,-1.35234422199369e+001,-1.96168381047978e+000

2.52813219796278e+005,-1.35240414576532e+001,-1.98656140966885e+000

2.56342360828676e+005,-1.35246478025085e+001,-2.01172135698353e+000

2.59920766833993e+005,-1.35252611457138e+001,-2.03716674956132e+000

2.63549125525621e+005,-1.35258813706094e+001,-2.06290075832554e+000

2.67228134217075e+005,-1.35265083526564e+001,-2.08892663114448e+000

2.70958499956006e+005,-1.35271419594450e+001,-2.11524769603332e+000

2.74740939660078e+005,-1.35277820507212e+001,-2.14186736439356e+000

2.78576180254757e+005,-1.35284284784312e+001,-2.16878913428369e+000

2.82464958813007e+005,-1.35290810867846e+001,-2.19601659371508e+000

2.86408022696948e+005,-1.35297397123367e+001,-2.22355342396428e+000

2.90406129701488e+005,-1.35304041840896e+001,-2.25140340289782e+000

2.94460048199957e+005,-1.35310743236138e+001,-2.27957040829724e+000

2.98570557291775e+005,-1.35317499451877e+001,-2.30805842118272e+000

3.02738446952187e+005,-1.35324308559581e+001,-2.33687152912157e+000

3.06964518184081e+005,-1.35331168561195e+001,-2.36601392951989e+000

3.11249583171928e+005,-1.35338077391131e+001,-2.39548993288338e+000

3.15594465437872e+005,-1.35345032918450e+001,-2.42530396604432e+000

3.19999999999997e+005,-1.35352032949231e+001,-2.45546057534469e+000

3.24467033532806e+005,-1.35359075229128e+001,-2.48596442976658e+000

3.28996424529938e+005,-1.35366157446102e+001,-2.51682032400538e+000

3.33589043469155e+005,-1.35373277233336e+001,-2.54803318147480e+000

3.38245772979638e+005,-1.35380432172315e+001,-2.57960805723934e+000

3.42967508011610e+005,-1.35387619796057e+001,-2.61155014086444e+000

3.47755156008335e+005,-1.35394837592519e+001,-2.64386475917944e+000

3.52609637080511e+005,-1.35402083008123e+001,-2.67655737894713e+000

3.57531884183106e+005,-1.35409353451429e+001,-2.70963360943183e+000

3.62522843294651e+005,-1.35416646296937e+001,-2.74309920486206e+000

3.67583473599047e+005,-1.35423958888986e+001,-2.77696006678309e+000

3.72714747669902e+005,-1.35431288545768e+001,-2.81122224629298e+000

3.77917651657445e+005,-1.35438632563425e+001,-2.84589194615898e+000

3.83193185478053e+005,-1.35445988220224e+001,-2.88097552281178e+000

3.88542363006410e+005,-1.35453352780794e+001,-2.91647948821203e+000

3.93966212270369e+005,-1.35460723500418e+001,-2.95241051158936e+000

3.99465775648511e+005,-1.35468097629349e+001,-2.98877542105196e+000

4.05042110070485e+005,-1.35475472417167e+001,-3.02558120506230e+000

4.10696287220124e+005,-1.35482845117125e+001,-3.06283501378500e+000

4.16429393741414e+005,-1.35490212990505e+001,-3.10054416029903e+000

4.22242531447321e+005,-1.35497573310942e+001,-3.13871612168366e+000

4.28136817531551e+005,-1.35504923368727e+001,-3.17735853997167e+000

4.34113384783250e+005,-1.35512260475047e+001,-3.21647922297929e+000

4.40173381804713e+005,-1.35519581966184e+001,-3.25608614500893e+000

4.46317973232124e+005,-1.35526885207620e+001,-3.29618744743471e+000

4.52548339959385e+005,-1.35534167598072e+001,-3.33679143916881e+000

4.58865679365059e+005,-1.35541426573416e+001,-3.37790659701854e+000

4.65271205542494e+005,-1.35548659610513e+001,-3.41954156593408e+000

4.71766149533147e+005,-1.35555864230901e+001,-3.46170515915808e+000

4.78351759563174e+005,-1.35563038004367e+001,-3.50440635827904e+000

4.85029301283321e+005,-1.35570178552369e+001,-3.54765431319495e+000

4.91800058012158e+005,-1.35577283551315e+001,-3.59145834199883e+000

4.98665330982714e+005,-1.35584350735674e+001,-3.63582793078705e+000

5.05626439592555e+005,-1.35591377900938e+001,-3.68077273340365e+000

5.12684721657352e+005,-1.35598362906391e+001,-3.72630257112371e+000

5.19841533667984e+005,-1.35605303677718e+001,-3.77242743228823e+000

5.27098251051240e+005,-1.35612198209422e+001,-3.81915747189507e+000

5.34456268434150e+005,-1.35619044567061e+001,-3.86650301115613e+000

5.41916999912011e+005,-1.35625840889286e+001,-3.91447453702993e+000

