Freq.,VOut,OutRef

1.00000000000000e+004,-1.97278242504111e+001,-2.03965423367701e-001

1.01395947979003e+004,-1.97278260534295e+001,-2.06812430350221e-001

1.02811382665607e+004,-1.97278279070842e+001,-2.09699169707448e-001

1.04246576084112e+004,-1.97278298127962e+001,-2.12626195642116e-001

1.05701804056138e+004,-1.97278317720253e+001,-2.15594070078316e-001

1.07177346253629e+004,-1.97278337862731e+001,-2.18603362759802e-001

1.08673486252606e+004,-1.97278358570826e+001,-2.21654651367741e-001

1.10190511587661e+004,-1.97278379860403e+001,-2.24748521624410e-001

1.11728713807222e+004,-1.97278401747769e+001,-2.27885567406017e-001

1.13288388529580e+004,-1.97278424249688e+001,-2.31066390857678e-001

1.14869835499703e+004,-1.97278447383392e+001,-2.34291602506071e-001

1.16473358646846e+004,-1.97278471166597e+001,-2.37561821373659e-001

1.18099266142953e+004,-1.97278495617511e+001,-2.40877675101374e-001

1.19747870461893e+004,-1.97278520754856e+001,-2.44239800060968e-001

1.21419488439505e+004,-1.97278546597872e+001,-2.47648841482417e-001

1.23114441334492e+004,-1.97278573166341e+001,-2.51105453572272e-001

1.24833054890161e+004,-1.97278600480594e+001,-2.54610299639245e-001

1.26575659397028e+004,-1.97278628561533e+001,-2.58164052219220e-001

1.28342589756290e+004,-1.97278657430644e+001,-2.61767393203138e-001

1.30134185544193e+004,-1.97278687110010e+001,-2.65421013967401e-001

1.31950791077289e+004,-1.97278717622335e+001,-2.69125615500205e-001

1.33792755478611e+004,-1.97278748990952e+001,-2.72881908542063e-001

1.35660432744767e+004,-1.97278781239848e+001,-2.76690613713120e-001

1.37554181813974e+004,-1.97278814393681e+001,-2.80552461652219e-001

1.39474366635040e+004,-1.97278848477796e+001,-2.84468193155105e-001

1.41421356237309e+004,-1.97278883518241e+001,-2.88438559316637e-001

1.43395524801583e+004,-1.97278919541797e+001,-2.92464321665898e-001

1.45397251732031e+004,-1.97278956575986e+001,-2.96546252318563e-001

1.47426921729110e+004,-1.97278994649101e+001,-3.00685134116142e-001

1.49484924863494e+004,-1.97279033790224e+001,-3.04881760775487e-001

1.51571656651040e+004,-1.97279074029242e+001,-3.09136937041398e-001

1.53687518128801e+004,-1.97279115396881e+001,-3.13451478833096e-001

1.55832915932100e+004,-1.97279157924720e+001,-3.17826213400715e-001

1.58008262372675e+004,-1.97279201645215e+001,-3.22261979482765e-001

1.60213975517924e+004,-1.97279246591730e+001,-3.26759627459379e-001

1.62450479271247e+004,-1.97279292798553e+001,-3.31320019516032e-001

1.64718203453514e+004,-1.97279340300930e+001,-3.35944029802199e-001

1.67017583885674e+004,-1.97279389135083e+001,-3.40632544600023e-001

1.69349062472505e+004,-1.97279439338245e+001,-3.45386462485968e-001

1.71713087287550e+004,-1.97279490948681e+001,-3.50206694501439e-001

1.74110112659224e+004,-1.97279544005719e+001,-3.55094164323682e-001

1.76540599258131e+004,-1.97279598549782e+001,-3.60049808437763e-001

1.79005014185594e+004,-1.97279654622414e+001,-3.65074576312294e-001

1.81503831063432e+004,-1.97279712266310e+001,-3.70169430577930e-001

1.84037530124975e+004,-1.97279771525353e+001,-3.75335347203917e-001

1.86606598307361e+004,-1.97279832444642e+001,-3.80573315683726e-001

1.89211529345119e+004,-1.97279895070525e+001,-3.85884339219072e-001

1.91852823865052e+004,-1.97279959450635e+001,-3.91269434905384e-001

1.94530989482457e+004,-1.97280025633925e+001,-3.96729633921814e-001

1.97246540898671e+004,-1.97280093670705e+001,-4.02265981722509e-001

1.99999999999999e+004,-1.97280163612674e+001,-4.07879538232922e-001

2.02791895958005e+004,-1.97280235512966e+001,-4.13571378043656e-001

2.05622765331213e+004,-1.97280309426180e+001,-4.19342590612846e-001

2.08493152168224e+004,-1.97280385408424e+001,-4.25194280466663e-001

2.11403608112276e+004,-1.97280463517362e+001,-4.31127567400824e-001

2.14354692507258e+004,-1.97280543812244e+001,-4.37143586695034e-001

2.17346972505211e+004,-1.97280626353959e+001,-4.43243489314297e-001

2.20381023175322e+004,-1.97280711205073e+001,-4.49428442127514e-001

2.23457427614443e+004,-1.97280798429881e+001,-4.55699628119604e-001

2.26576777059159e+004,-1.97280888094445e+001,-4.62058246610135e-001

2.29739670999406e+004,-1.97280980266648e+001,-4.68505513474159e-001

2.32946717293690e+004,-1.97281075016245e+001,-4.75042661363845e-001

2.36198532285905e+004,-1.97281172414905e+001,-4.81670939937782e-001

2.39495740923785e+004,-1.97281272536267e+001,-4.88391616087239e-001

2.42838976879009e+004,-1.97281375455999e+001,-4.95205974167566e-001

2.46228882668982e+004,-1.97281481251841e+001,-5.02115316236163e-001

2.49666109780322e+004,-1.97281590003666e+001,-5.09120962287141e-001

2.53151318794055e+004,-1.97281701793540e+001,-5.16224250492653e-001

2.56685179512580e+004,-1.97281816705776e+001,-5.23426537446029e-001

2.60268371088386e+004,-1.97281934826995e+001,-5.30729198409093e-001

2.63901582154578e+004,-1.97282056246188e+001,-5.38133627561146e-001

2.67585510957221e+004,-1.97282181054777e+001,-5.45641238251576e-001

2.71320865489533e+004,-1.97282309346685e+001,-5.53253463254989e-001

2.75108363627948e+004,-1.97282441218395e+001,-5.60971755030248e-001

2.78948733270080e+004,-1.97282576769023e+001,-5.68797585981572e-001

2.82842712474618e+004,-1.97282716100384e+001,-5.76732448724034e-001

2.86791049603164e+004,-1.97282859317064e+001,-5.84777856352121e-001

2.90794503464061e+004,-1.97283006526496e+001,-5.92935342708713e-001

2.94853843458219e+004,-1.97283157839029e+001,-6.01206462662925e-001

2.98969849726987e+004,-1.97283313368009e+001,-6.09592792383177e-001

3.03143313302078e+004,-1.97283473229855e+001,-6.18095929622707e-001

3.07375036257601e+004,-1.97283637544140e+001,-6.26717494000059e-001

3.11665831864199e+004,-1.97283806433672e+001,-6.35459127287745e-001

3.16016524745350e+004,-1.97283980024578e+001,-6.44322493704182e-001

3.20427951035848e+004,-1.97284158446393e+001,-6.53309280204339e-001

3.24900958542493e+004,-1.97284341832142e+001,-6.62421196781298e-001

3.29436406907028e+004,-1.97284530318435e+001,-6.71659976763139e-001

3.34035167771346e+004,-1.97284724045557e+001,-6.81027377119543e-001

3.38698124945009e+004,-1.97284923157562e+001,-6.90525178767823e-001

3.43426174575100e+004,-1.97285127802372e+001,-7.00155186883122e-001

3.48220225318448e+004,-1.97285338131870e+001,-7.09919231215549e-001

3.53081198516260e+004,-1.97285554302004e+001,-7.19819166405044e-001

3.58010028371187e+004,-1.97285776472890e+001,-7.29856872303369e-001

3.63007662126863e+004,-1.97286004808919e+001,-7.40034254297870e-001

3.68075060249948e+004,-1.97286239478860e+001,-7.50353243641592e-001

3.73213196614721e+004,-1.97286480655971e+001,-7.60815797782944e-001

3.78423058690237e+004,-1.97286728518114e+001,-7.71423900701468e-001

3.83705647730104e+004,-1.97286983247866e+001,-7.82179563245649e-001

3.89061978964912e+004,-1.97287245032641e+001,-7.93084823475421e-001

3.94493081797342e+004,-1.97287514064800e+001,-8.04141747008453e-001

3.99999999999998e+004,-1.97287790541784e+001,-8.15352427367139e-001

4.05583791916010e+004,-1.97288074666231e+001,-8.26718986332214e-001

4.11245530662425e+004,-1.97288366646102e+001,-8.38243574300406e-001

4.16986304336447e+004,-1.97288666694818e+001,-8.49928370640241e-001

4.22807216224550e+004,-1.97288975031384e+001,-8.61775584058657e-001

4.28709385014515e+004,-1.97289291880527e+001,-8.73787452965887e-001

4.34693945010421e+004,-1.97289617472832e+001,-8.85966245845011e-001

4.40762046350642e+004,-1.97289952044883e+001,-8.98314261626849e-001

4.46914855228886e+004,-1.97290295839401e+001,-9.10833830067734e-001

4.53153554118317e+004,-1.97290649105395e+001,-9.23527312126534e-001

4.59479341998812e+004,-1.97291012098304e+001,-9.36397100353007e-001

4.65893434587380e+004,-1.97291385080150e+001,-9.49445619271680e-001

4.72397064571810e+004,-1.97291768319686e+001,-9.62675325776727e-001

4.78991481847569e+004,-1.97292162092558e+001,-9.76088709522571e-001

4.85677953758016e+004,-1.97292566681456e+001,-9.89688293324017e-001

4.92457765337964e+004,-1.97292982376279e+001,-1.00347663355666e+000

4.99332219560642e+004,-1.97293409474292e+001,-1.01745632056267e+000

5.06302637588109e+004,-1.97293848280296e+001,-1.03162997905746e+000

5.13370359025159e+004,-1.97294299106793e+001,-1.04600026854257e+000

5.20536742176771e+004,-1.97294762274156e+001,-1.06056988371956e+000

5.27803164309155e+004,-1.97295238110801e+001,-1.07534155490775e+000

5.35171021914442e+004,-1.97295726953364e+001,-1.09031804846710e+000

5.42641730979066e+004,-1.97296229146872e+001,-1.10550216722170e+000

5.50216727255895e+004,-1.97296745044926e+001,-1.12089675088894e+000

5.57897466540159e+004,-1.97297275009884e+001,-1.13650467650927e+000

5.65685424949235e+004,-1.97297819413036e+001,-1.15232885888141e+000

5.73582099206328e+004,-1.97298378634797e+001,-1.16837225100054e+000

5.81589006928121e+004,-1.97298953064889e+001,-1.18463784449780e+000

5.89707686916437e+004,-1.97299543102530e+001,-1.20112867008464e+000

5.97939699453972e+004,-1.97300149156623e+001,-1.21784779800070e+000

6.06286626604156e+004,-1.97300771645950e+001,-1.23479833846294e+000

6.14750072515201e+004,-1.97301410999362e+001,-1.25198344211821e+000

6.23331663728396e+004,-1.97302067655973e+001,-1.26940630050090e+000

6.32033049490698e+004,-1.97302742065353e+001,-1.28707014649111e+000

6.40855902071694e+004,-1.97303434687731e+001,-1.30497825477611e+000

6.49801917084985e+004,-1.97304145994177e+001,-1.32313394231723e+000

6.58872813814055e+004,-1.97304876466815e+001,-1.34154056881562e+000

6.68070335542691e+004,-1.97305626599005e+001,-1.36020153718554e+000

6.77396249890018e+004,-1.97306396895547e+001,-1.37912029402591e+000

6.86852349150199e+004,-1.97307187872877e+001,-1.39830033009769e+000

6.96440450636895e+004,-1.97308000059263e+001,-1.41774518080440e+000

7.06162397032520e+004,-1.97308833994994e+001,-1.43745842667315e+000

7.16020056742374e+004,-1.97309690232582e+001,-1.45744369384129e+000

7.26015324253724e+004,-1.97310569336947e+001,-1.47770465454286e+000

7.36150120499896e+004,-1.97311471885614e+001,-1.49824502760156e+000

7.46426393229441e+004,-1.97312398468895e+001,-1.51906857892298e+000

7.56846117380472e+004,-1.97313349690079e+001,-1.54017912199315e+000

7.67411295460207e+004,-1.97314326165616e+001,-1.56158051837648e+000

7.78123957929823e+004,-1.97315328525290e+001,-1.58327667822090e+000

7.88986163594682e+004,-1.97316357412405e+001,-1.60527156076200e+000

7.99999999999995e+004,-1.97317413483945e+001,-1.62756917483283e+000

8.11167583832018e+004,-1.97318497410755e+001,-1.65017357937632e+000

8.22491061324848e+004,-1.97319609877690e+001,-1.67308888396036e+000

8.33972608672892e+004,-1.97320751583783e+001,-1.69631924929668e+000

8.45614432449099e+004,-1.97321923242385e+001,-1.71986888776444e+000

8.57418770029029e+004,-1.97323125581317e+001,-1.74374206393472e+000

8.69387890020841e+004,-1.97324359343004e+001,-1.76794309510137e+000

8.81524092701283e+004,-1.97325625284602e+001,-1.79247635181407e+000

8.93829710457770e+004,-1.97326924178121e+001,-1.81734625841778e+000

9.06307108236633e+004,-1.97328256810537e+001,-1.84255729359230e+000

9.18958683997622e+004,-1.97329623983888e+001,-1.86811399090245e+000

9.31786869174758e+004,-1.97331026515375e+001,-1.89402093934605e+000

9.44794129143618e+004,-1.97332465237433e+001,-1.92028278391373e+000

9.57982963695136e+004,-1.97333940997805e+001,-1.94690422614964e+000

9.71355907516031e+004,-1.97335454659598e+001,-1.97389002471897e+000

9.84915530675926e+004,-1.97337007101325e+001,-2.00124499598219e+000

9.98664439121282e+004,-1.97338599216931e+001,-2.02897401457663e+000

1.01260527517622e+005,-1.97340231915815e+001,-2.05708201400170e+000

1.02674071805032e+005,-1.97341906122821e+001,-2.08557398721514e+000

1.04107348435354e+005,-1.97343622778225e+001,-2.11445498723538e+000

1.05560632861831e+005,-1.97345382837701e+001,-2.14373012775180e+000

1.07034204382888e+005,-1.97347187272268e+001,-2.17340458374583e+000

1.08528346195813e+005,-1.97349037068217e+001,-2.20348359211956e+000

1.10043345451179e+005,-1.97350933227024e+001,-2.23397245233663e+000

1.11579493308032e+005,-1.97352876765240e+001,-2.26487652707302e+000

1.13137084989847e+005,-1.97354868714355e+001,-2.29620124287873e+000

1.14716419841265e+005,-1.97356910120650e+001,-2.32795209085511e+000

1.16317801385624e+005,-1.97359002045019e+001,-2.36013462734132e+000

1.17941537383287e+005,-1.97361145562772e+001,-2.39275447461944e+000

1.19587939890794e+005,-1.97363341763407e+001,-2.42581732163261e+000

1.21257325320831e+005,-1.97365591750368e+001,-2.45932892471873e+000

1.22950014503040e+005,-1.97367896640771e+001,-2.49329510836374e+000

1.24666332745679e+005,-1.97370257565101e+001,-2.52772176597317e+000

1.26406609898139e+005,-1.97372675666893e+001,-2.56261486066191e+000

1.28171180414339e+005,-1.97375152102373e+001,-2.59798042606643e+000

1.29960383416997e+005,-1.97377688040084e+001,-2.63382456717882e+000

1.31774562762811e+005,-1.97380284660473e+001,-2.67015346120527e+000

1.33614067108538e+005,-1.97382943155457e+001,-2.70697335844865e+000

1.35479249978003e+005,-1.97385664727960e+001,-2.74429058321966e+000

1.37370469830040e+005,-1.97388450591418e+001,-2.78211153477360e+000

1.39288090127379e+005,-1.97391301969253e+001,-2.82044268828000e+000

1.41232479406504e+005,-1.97394220094331e+001,-2.85929059582170e+000

1.43204011348474e+005,-1.97397206208375e+001,-2.89866188742847e+000

1.45203064850745e+005,-1.97400261561360e+001,-2.93856327214517e+000

1.47230024099979e+005,-1.97403387410879e+001,-2.97900153913803e+000

1.49285278645888e+005,-1.97406585021477e+001,-3.01998355883792e+000

1.51369223476094e+005,-1.97409855663964e+001,-3.06151628412665e+000

1.53482259092041e+005,-1.97413200614698e+001,-3.10360675156489e+000

1.55624791585964e+005,-1.97416621154845e+001,-3.14626208266529e+000

1.57797232718936e+005,-1.97420118569617e+001,-3.18948948521314e+000

1.59999999999999e+005,-1.97423694147483e+001,-3.23329625463478e+000

1.62233516766403e+005,-1.97427349179364e+001,-3.27768977541933e+000

1.64498212264969e+005,-1.97431084957805e+001,-3.32267752259178e+000

1.66794521734578e+005,-1.97434902776135e+001,-3.36826706324295e+000

1.69122886489819e+005,-1.97438803927607e+001,-3.41446605811644e+000

1.71483754005805e+005,-1.97442789704529e+001,-3.46128226325598e+000

1.73877578004168e+005,-1.97446861397384e+001,-3.50872353171420e+000

1.76304818540256e+005,-1.97451020293942e+001,-3.55679781532546e+000

1.78765942091554e+005,-1.97455267678371e+001,-3.60551316654511e+000

1.81261421647326e+005,-1.97459604830346e+001,-3.65487774035817e+000

1.83791736799524e+005,-1.97464033024161e+001,-3.70489979625406e+000

1.86357373834951e+005,-1.97468553527848e+001,-3.75558770027888e+000

1.88958825828723e+005,-1.97473167602308e+001,-3.80694992715717e+000

1.91596592739027e+005,-1.97477876500455e+001,-3.85899506249121e+000

1.94271181503206e+005,-1.97482681466388e+001,-3.91173180503642e+000

1.96983106135185e+005,-1.97487583734578e+001,-3.96516896905676e+000

1.99732887824256e+005,-1.97492584529089e+001,-4.01931548675884e+000

2.02521055035243e+005,-1.97497685062838e+001,-4.07418041080726e+000

2.05348143610063e+005,-1.97502886536893e+001,-4.12977291692329e+000

2.08214696870707e+005,-1.97508190139817e+001,-4.18610230656447e+000

2.11121265723661e+005,-1.97513597047065e+001,-4.24317800969017e+000

2.14068408765776e+005,-1.97519108420442e+001,-4.30100958760958e+000

2.17056692391625e+005,-1.97524725407629e+001,-4.35960673591454e+000

2.20086690902357e+005,-1.97530449141771e+001,-4.41897928749739e+000

2.23158986616063e+005,-1.97536280741152e+001,-4.47913721565131e+000

2.26274169979693e+005,-1.97542221308955e+001,-4.54009063725578e+000

2.29432839682530e+005,-1.97548271933109e+001,-4.60184981604415e+000

2.32635602771247e+005,-1.97554433686239e+001,-4.66442516595231e+000

2.35883074766574e+005,-1.97560707625719e+001,-4.72782725454869e+000

2.39175879781588e+005,-1.97567094793842e+001,-4.79206680654214e+000

2.42514650641661e+005,-1.97573596218102e+001,-4.85715470736761e+000

2.45900029006080e+005,-1.97580212911611e+001,-4.92310200684464e+000

2.49332665491357e+005,-1.97586945873641e+001,-4.98991992290941e+000

2.52813219796278e+005,-1.97593796090312e+001,-5.05761984541522e+000

2.56342360828676e+005,-1.97600764535422e+001,-5.12621333999824e+000

2.59920766833993e+005,-1.97607852171430e+001,-5.19571215200655e+000

2.63549125525621e+005,-1.97615059950596e+001,-5.26612821048784e+000

2.67228134217075e+005,-1.97622388816287e+001,-5.33747363223089e+000

2.70958499956006e+005,-1.97629839704452e+001,-5.40976072585733e+000

2.74740939660078e+005,-1.97637413545262e+001,-5.48300199596006e+000

2.78576180254757e+005,-1.97645111264943e+001,-5.55721014728108e+000

2.82464958813007e+005,-1.97652933787783e+001,-5.63239808892599e+000

2.86408022696948e+005,-1.97660882038321e+001,-5.70857893860673e+000

2.90406129701488e+005,-1.97668956943733e+001,-5.78576602691282e+000

2.94460048199957e+005,-1.97677159436408e+001,-5.86397290159671e+000

2.98570557291775e+005,-1.97685490456715e+001,-5.94321333187680e+000

3.02738446952187e+005,-1.97693950955966e+001,-6.02350131274439e+000

3.06964518184081e+005,-1.97702541899578e+001,-6.10485106927299e+000

3.11249583171928e+005,-1.97711264270428e+001,-6.18727706092320e+000

3.15594465437872e+005,-1.97720119072408e+001,-6.27079398583441e+000

3.19999999999997e+005,-1.97729107334168e+001,-6.35541678510104e+000

3.24467033532806e+005,-1.97738230113061e+001,-6.44116064702362e+000

3.28996424529938e+005,-1.97747488499274e+001,-6.52804101133148e+000

3.33589043469155e+005,-1.97756883620149e+001,-6.61607357336812e+000

3.38245772979638e+005,-1.97766416644686e+001,-6.70527428823720e+000

3.42967508011610e+005,-1.97776088788232e+001,-6.79565937489874e+000

3.47755156008335e+005,-1.97785901317336e+001,-6.88724532021553e+000

3.52609637080511e+005,-1.97795855554790e+001,-6.98004888293836e+000

3.57531884183106e+005,-1.97805952884816e+001,-7.07408709763137e+000

3.62522843294651e+005,-1.97816194758427e+001,-7.16937727852814e+000

3.67583473599047e+005,-1.97826582698929e+001,-7.26593702331538e+000

3.72714747669902e+005,-1.97837118307571e+001,-7.36378421684283e+000

3.77917651657445e+005,-1.97847803269333e+001,-7.46293703475130e+000

3.83193185478053e+005,-1.97858639358839e+001,-7.56341394701914e+000

3.88542363006410e+005,-1.97869628446389e+001,-7.66523372142314e+000

3.93966212270369e+005,-1.97880772504108e+001,-7.76841542691140e+000

3.99465775648511e+005,-1.97892073612194e+001,-7.87297843688547e+000

4.05042110070485e+005,-1.97903533965257e+001,-7.97894243239318e+000

4.10696287220124e+005,-1.97915155878750e+001,-8.08632740522653e+000

4.16429393741414e+005,-1.97926941795467e+001,-8.19515366092907e+000

4.22242531447321e+005,-1.97938894292121e+001,-8.30544182170835e+000

4.28136817531551e+005,-1.97951016085963e+001,-8.41721282925808e+000

4.34113384783250e+005,-1.97963310041467e+001,-8.53048794748532e+000

4.40173381804713e+005,-1.97975779177047e+001,-8.64528876515031e+000

4.46317973232124e+005,-1.97988426671812e+001,-8.76163719841528e+000

4.52548339959385e+005,-1.98001255872343e+001,-8.87955549330754e+000

4.58865679365059e+005,-1.98014270299488e+001,-8.99906622809761e+000

4.65271205542494e+005,-1.98027473655176e+001,-9.12019231559642e+000

4.71766149533147e+005,-1.98040869829227e+001,-9.24295700537325e+000

4.78351759563174e+005,-1.98054462906165e+001,-9.36738388589961e+000

4.85029301283321e+005,-1.98068257172023e+001,-9.49349688662152e+000

4.91800058012158e+005,-1.98082257121144e+001,-9.62132027996377e+000

4.98665330982714e+005,-1.98096467462956e+001,-9.75087868327207e+000

5.05626439592555e+005,-1.98110893128736e+001,-9.88219706069606e+000

5.12684721657352e+005,-1.98125539278351e+001,-1.00153007250168e+001

5.19841533667984e+005,-1.98140411306977e+001,-1.01502153394258e+001

5.27098251051240e+005,-1.98155514851788e+001,-1.02869669192579e+001

5.34456268434150e+005,-1.98170855798624e+001,-1.04255818336831e+001

5.41916999912011e+005,-1.98186440288633e+001,-1.05660868073626e+001

