Freq.,VOut,OutRef

1.00000000000000e+004,-2.60349267001079e+001,-5.07546579485357e-001

1.01395947979003e+004,-2.60349322770486e+001,-5.14631195839257e-001

1.02811382665607e+004,-2.60349380106875e+001,-5.21814689813751e-001

1.04246576084112e+004,-2.60349439054246e+001,-5.29098440844200e-001

1.05701804056138e+004,-2.60349499657837e+001,-5.36483847584914e-001

1.07177346253629e+004,-2.60349561964154e+001,-5.43972328177721e-001

1.08673486252606e+004,-2.60349626021002e+001,-5.51565320523068e-001

1.10190511587661e+004,-2.60349691877535e+001,-5.59264282551286e-001

1.11728713807222e+004,-2.60349759584276e+001,-5.67070692504816e-001

1.13288388529580e+004,-2.60349829193173e+001,-5.74986049215515e-001

1.14869835499703e+004,-2.60349900757624e+001,-5.83011872392713e-001

1.16473358646846e+004,-2.60349974332529e+001,-5.91149702912470e-001

1.18099266142953e+004,-2.60350049974321e+001,-5.99401103110998e-001

1.19747870461893e+004,-2.60350127741020e+001,-6.07767657081074e-001

1.21419488439505e+004,-2.60350207692271e+001,-6.16250970974960e-001

1.23114441334492e+004,-2.60350289889386e+001,-6.24852673309676e-001

1.24833054890161e+004,-2.60350374395402e+001,-6.33574415275888e-001

1.26575659397028e+004,-2.60350461275116e+001,-6.42417871053356e-001

1.28342589756290e+004,-2.60350550595144e+001,-6.51384738127835e-001

1.30134185544193e+004,-2.60350642423967e+001,-6.60476737615205e-001

1.31950791077289e+004,-2.60350736831983e+001,-6.69695614587242e-001

1.33792755478611e+004,-2.60350833891564e+001,-6.79043138403887e-001

1.35660432744767e+004,-2.60350933677106e+001,-6.88521103047998e-001

1.37554181813974e+004,-2.60351036265090e+001,-6.98131327468269e-001

1.39474366635040e+004,-2.60351141734137e+001,-7.07875655922140e-001

1.41421356237309e+004,-2.60351250165071e+001,-7.17755958326550e-001

1.43395524801583e+004,-2.60351361640976e+001,-7.27774130612561e-001

1.45397251732031e+004,-2.60351476247262e+001,-7.37932095084412e-001

1.47426921729110e+004,-2.60351594071729e+001,-7.48231800784609e-001

1.49484924863494e+004,-2.60351715204635e+001,-7.58675223861404e-001

1.51571656651040e+004,-2.60351839738761e+001,-7.69264367945392e-001

1.53687518128801e+004,-2.60351967769485e+001,-7.80001264525867e-001

1.55832915932100e+004,-2.60352099394852e+001,-7.90887973337659e-001

1.58008262372675e+004,-2.60352234715647e+001,-8.01926582749093e-001

1.60213975517924e+004,-2.60352373835476e+001,-8.13119210157230e-001

1.62450479271247e+004,-2.60352516860839e+001,-8.24468002387475e-001

1.64718203453514e+004,-2.60352663901216e+001,-8.35975136099329e-001

1.67017583885674e+004,-2.60352815069142e+001,-8.47642818197697e-001

1.69349062472505e+004,-2.60352970480299e+001,-8.59473286248430e-001

1.71713087287550e+004,-2.60353130253603e+001,-8.71468808899370e-001

1.74110112659224e+004,-2.60353294511288e+001,-8.83631686309926e-001

1.76540599258131e+004,-2.60353463379002e+001,-8.95964250582991e-001

1.79005014185594e+004,-2.60353636985904e+001,-9.08468866203385e-001

1.81503831063432e+004,-2.60353815464757e+001,-9.21147930484695e-001

1.84037530124975e+004,-2.60353998952029e+001,-9.34003874017640e-001

1.86606598307361e+004,-2.60354187587997e+001,-9.47039161128138e-001

1.89211529345119e+004,-2.60354381516854e+001,-9.60256290339421e-001

1.91852823865052e+004,-2.60354580886810e+001,-9.73657794841656e-001

1.94530989482457e+004,-2.60354785850212e+001,-9.87246242966334e-001

1.97246540898671e+004,-2.60354996563654e+001,-1.00102423866807e+000

1.99999999999999e+004,-2.60355213188096e+001,-1.01499442201068e+000

2.02791895958005e+004,-2.60355435888980e+001,-1.02915946966424e+000

2.05622765331213e+004,-2.60355664836362e+001,-1.04352209540281e+000

2.08493152168224e+004,-2.60355900205032e+001,-1.05808505061268e+000

2.11403608112276e+004,-2.60356142174648e+001,-1.07285112480667e+000

2.14354692507258e+004,-2.60356390929870e+001,-1.08782314614260e+000

2.17346972505211e+004,-2.60356646660498e+001,-1.10300398195278e+000

2.20381023175322e+004,-2.60356909561613e+001,-1.11839653927677e+000

2.23457427614443e+004,-2.60357179833720e+001,-1.13400376540222e+000

2.26576777059159e+004,-2.60357457682903e+001,-1.14982864841387e+000

2.29739670999406e+004,-2.60357743320973e+001,-1.16587421774738e+000

2.32946717293690e+004,-2.60358036965628e+001,-1.18214354475238e+000

2.36198532285905e+004,-2.60358338840613e+001,-1.19863974326168e+000

2.39495740923785e+004,-2.60358649175891e+001,-1.21536597016714e+000

2.42838976879009e+004,-2.60358968207803e+001,-1.23232542600577e+000

2.46228882668982e+004,-2.60359296179254e+001,-1.24952135554923e+000

2.49666109780322e+004,-2.60359633339886e+001,-1.26695704840430e+000

2.53151318794055e+004,-2.60359979946266e+001,-1.28463583961835e+000

2.56685179512580e+004,-2.60360336262073e+001,-1.30256111029511e+000

2.60268371088386e+004,-2.60360702558291e+001,-1.32073628821584e+000

2.63901582154578e+004,-2.60361079113413e+001,-1.33916484846999e+000

2.67585510957221e+004,-2.60361466213642e+001,-1.35785031409231e+000

2.71320865489533e+004,-2.60361864153102e+001,-1.37679625670898e+000

2.75108363627948e+004,-2.60362273234054e+001,-1.39600629719278e+000

2.78948733270080e+004,-2.60362693767119e+001,-1.41548410632287e+000

2.82842712474618e+004,-2.60363126071502e+001,-1.43523340545703e+000

2.86791049603164e+004,-2.60363570475225e+001,-1.45525796720953e+000

2.90794503464061e+004,-2.60364027315371e+001,-1.47556161613814e+000

2.94853843458219e+004,-2.60364496938325e+001,-1.49614822943864e+000

2.98969849726987e+004,-2.60364979700027e+001,-1.51702173765061e+000

3.03143313302078e+004,-2.60365475966229e+001,-1.53818612536821e+000

3.07375036257601e+004,-2.60365986112765e+001,-1.55964543196194e+000

3.11665831864199e+004,-2.60366510525816e+001,-1.58140375230825e+000

3.16016524745350e+004,-2.60367049602194e+001,-1.60346523752843e+000

3.20427951035848e+004,-2.60367603749628e+001,-1.62583409573557e+000

3.24900958542493e+004,-2.60368173387052e+001,-1.64851459279183e+000

3.29436406907028e+004,-2.60368758944915e+001,-1.67151105307255e+000

3.34035167771346e+004,-2.60369360865481e+001,-1.69482786024183e+000

3.38698124945009e+004,-2.60369979603150e+001,-1.71846945803576e+000

3.43426174575100e+004,-2.60370615624783e+001,-1.74244035105419e+000

3.48220225318448e+004,-2.60371269410033e+001,-1.76674510556435e+000

3.53081198516260e+004,-2.60371941451685e+001,-1.79138835031121e+000

3.58010028371187e+004,-2.60372632256008e+001,-1.81637477733800e+000

3.63007662126863e+004,-2.60373342343115e+001,-1.84170914281668e+000

3.68075060249948e+004,-2.60374072247326e+001,-1.86739626788741e+000

3.73213196614721e+004,-2.60374822517547e+001,-1.89344103950720e+000

3.78423058690237e+004,-2.60375593717657e+001,-1.91984841130956e+000

3.83705647730104e+004,-2.60376386426901e+001,-1.94662340447193e+000

3.89061978964912e+004,-2.60377201240296e+001,-1.97377110859360e+000

3.94493081797342e+004,-2.60378038769049e+001,-2.00129668258437e+000

3.99999999999998e+004,-2.60378899640977e+001,-2.02920535556109e+000

4.05583791916010e+004,-2.60379784500947e+001,-2.05750242775543e+000

4.11245530662425e+004,-2.60380694011320e+001,-2.08619327143101e+000

4.16986304336447e+004,-2.60381628852408e+001,-2.11528333181052e+000

4.22807216224550e+004,-2.60382589722943e+001,-2.14477812801233e+000

4.28709385014515e+004,-2.60383577340554e+001,-2.17468325399804e+000

4.34693945010421e+004,-2.60384592442261e+001,-2.20500437952905e+000

4.40762046350642e+004,-2.60385635784971e+001,-2.23574725113373e+000

4.46914855228886e+004,-2.60386708145998e+001,-2.26691769308439e+000

4.53153554118317e+004,-2.60387810323586e+001,-2.29852160838384e+000

4.59479341998812e+004,-2.60388943137446e+001,-2.33056497976338e+000

4.65893434587380e+004,-2.60390107429308e+001,-2.36305387069001e+000

4.72397064571810e+004,-2.60391304063485e+001,-2.39599442638286e+000

4.78991481847569e+004,-2.60392533927444e+001,-2.42939287484175e+000

4.85677953758016e+004,-2.60393797932403e+001,-2.46325552788478e+000

4.92457765337964e+004,-2.60395097013927e+001,-2.49758878219470e+000

4.99332219560642e+004,-2.60396432132545e+001,-2.53239912037922e+000

5.06302637588109e+004,-2.60397804274382e+001,-2.56769311203664e+000

5.13370359025159e+004,-2.60399214451799e+001,-2.60347741483562e+000

5.20536742176771e+004,-2.60400663704053e+001,-2.63975877560289e+000

5.27803164309155e+004,-2.60402153097969e+001,-2.67654403142125e+000

5.35171021914442e+004,-2.60403683728621e+001,-2.71384011073937e+000

5.42641730979066e+004,-2.60405256720044e+001,-2.75165403448824e+000

5.50216727255895e+004,-2.60406873225936e+001,-2.78999291721244e+000

5.57897466540159e+004,-2.60408534430400e+001,-2.82886396820599e+000

5.65685424949235e+004,-2.60410241548685e+001,-2.86827449266346e+000

5.73582099206328e+004,-2.60411995827947e+001,-2.90823189283646e+000

5.81589006928121e+004,-2.60413798548030e+001,-2.94874366920410e+000

5.89707686916437e+004,-2.60415651022254e+001,-2.98981742165026e+000

5.97939699453972e+004,-2.60417554598226e+001,-3.03146085065188e+000

6.06286626604156e+004,-2.60419510658665e+001,-3.07368175847805e+000

6.14750072515201e+004,-2.60421520622241e+001,-3.11648805039719e+000

6.23331663728396e+004,-2.60423585944436e+001,-3.15988773589484e+000

6.32033049490698e+004,-2.60425708118412e+001,-3.20388892990143e+000

6.40855902071694e+004,-2.60427888675904e+001,-3.24849985402892e+000

6.49801917084985e+004,-2.60430129188127e+001,-3.29372883781833e+000

6.58872813814055e+004,-2.60432431266695e+001,-3.33958431999504e+000

6.68070335542691e+004,-2.60434796564569e+001,-3.38607484973503e+000

6.77396249890018e+004,-2.60437226777005e+001,-3.43320908794028e+000

6.86852349150199e+004,-2.60439723642532e+001,-3.48099580852406e+000

6.96440450636895e+004,-2.60442288943941e+001,-3.52944389970364e+000

7.06162397032520e+004,-2.60444924509294e+001,-3.57856236530565e+000

7.16020056742374e+004,-2.60447632212945e+001,-3.62836032607781e+000

7.26015324253724e+004,-2.60450413976586e+001,-3.67884702101140e+000

7.36150120499896e+004,-2.60453271770298e+001,-3.73003180867357e+000

7.46426393229441e+004,-2.60456207613632e+001,-3.78192416854658e+000

7.56846117380472e+004,-2.60459223576697e+001,-3.83453370237967e+000

7.67411295460207e+004,-2.60462321781267e+001,-3.88787013554753e+000

7.78123957929823e+004,-2.60465504401909e+001,-3.94194331841869e+000

7.88986163594682e+004,-2.60468773667123e+001,-3.99676322773415e+000

7.99999999999995e+004,-2.60472131860496e+001,-4.05233996799390e+000

8.11167583832018e+004,-2.60475581321880e+001,-4.10868377285466e+000

8.22491061324848e+004,-2.60479124448579e+001,-4.16580500653467e+000

8.33972608672892e+004,-2.60482763696553e+001,-4.22371416522972e+000

8.45614432449099e+004,-2.60486501581641e+001,-4.28242187853873e+000

8.57418770029029e+004,-2.60490340680798e+001,-4.34193891089797e+000

8.69387890020841e+004,-2.60494283633342e+001,-4.40227616302524e+000

8.81524092701283e+004,-2.60498333142223e+001,-4.46344467337587e+000

8.93829710457770e+004,-2.60502491975305e+001,-4.52545561960575e+000

9.06307108236633e+004,-2.60506762966657e+001,-4.58832032004747e+000

9.18958683997622e+004,-2.60511149017862e+001,-4.65205023519515e+000

9.31786869174758e+004,-2.60515653099346e+001,-4.71665696920095e+000

9.44794129143618e+004,-2.60520278251703e+001,-4.78215227138282e+000

9.57982963695136e+004,-2.60525027587055e+001,-4.84854803774262e+000

9.71355907516031e+004,-2.60529904290402e+001,-4.91585631249691e+000

9.84915530675926e+004,-2.60534911621005e+001,-4.98408928962025e+000

9.98664439121282e+004,-2.60540052913766e+001,-5.05325931439936e+000

1.01260527517622e+005,-2.60545331580626e+001,-5.12337888500197e+000

1.02674071805032e+005,-2.60550751111973e+001,-5.19446065405867e+000

1.04107348435354e+005,-2.60556315078061e+001,-5.26651743025889e+000

1.05560632861831e+005,-2.60562027130440e+001,-5.33956217996111e+000

1.07034204382888e+005,-2.60567891003392e+001,-5.41360802881967e+000

1.08528346195813e+005,-2.60573910515385e+001,-5.48866826342662e+000

1.10043345451179e+005,-2.60580089570527e+001,-5.56475633297071e+000

1.11579493308032e+005,-2.60586432160033e+001,-5.64188585091464e+000

1.13137084989847e+005,-2.60592942363710e+001,-5.72007059669006e+000

1.14716419841265e+005,-2.60599624351431e+001,-5.79932451741335e+000

1.16317801385624e+005,-2.60606482384637e+001,-5.87966172962076e+000

1.17941537383287e+005,-2.60613520817837e+001,-5.96109652102604e+000

1.19587939890794e+005,-2.60620744100120e+001,-6.04364335230087e+000

1.21257325320831e+005,-2.60628156776672e+001,-6.12731685887916e+000

1.22950014503040e+005,-2.60635763490308e+001,-6.21213185278691e+000

1.24666332745679e+005,-2.60643568983007e+001,-6.29810332449876e+000

1.26406609898139e+005,-2.60651578097460e+001,-6.38524644482263e+000

1.28171180414339e+005,-2.60659795778624e+001,-6.47357656681463e+000

1.29960383416997e+005,-2.60668227075289e+001,-6.56310922772452e+000

1.31774562762811e+005,-2.60676877141658e+001,-6.65386015097438e+000

1.33614067108538e+005,-2.60685751238931e+001,-6.74584524817309e+000

1.35479249978003e+005,-2.60694854736908e+001,-6.83908062116515e+000

1.37370469830040e+005,-2.60704193115605e+001,-6.93358256411980e+000

1.39288090127379e+005,-2.60713771966884e+001,-7.02936756565926e+000

1.41232479406504e+005,-2.60723596996098e+001,-7.12645231103038e+000

1.43204011348474e+005,-2.60733674023758e+001,-7.22485368431940e+000

1.45203064850745e+005,-2.60744008987216e+001,-7.32458877071383e+000

1.47230024099979e+005,-2.60754607942376e+001,-7.42567485881325e+000

1.49285278645888e+005,-2.60765477065420e+001,-7.52812944298976e+000

1.51369223476094e+005,-2.60776622654577e+001,-7.63197022580302e+000

1.53482259092041e+005,-2.60788051131906e+001,-7.73721512046905e+000

1.55624791585964e+005,-2.60799769045124e+001,-7.84388225338759e+000

1.57797232718936e+005,-2.60811783069467e+001,-7.95198996672865e+000

1.59999999999999e+005,-2.60824100009594e+001,-8.06155682108175e+000

1.62233516766403e+005,-2.60836726801535e+001,-8.17260159816875e+000

1.64498212264969e+005,-2.60849670514692e+001,-8.28514330362387e+000

1.66794521734578e+005,-2.60862938353889e+001,-8.39920116984250e+000

1.69122886489819e+005,-2.60876537661494e+001,-8.51479465889980e+000

1.71483754005805e+005,-2.60890475919592e+001,-8.63194346554377e+000

1.73877578004168e+005,-2.60904760752247e+001,-8.75066752026221e+000

1.76304818540256e+005,-2.60919399927828e+001,-8.87098699242666e+000

1.78765942091554e+005,-2.60934401361432e+001,-8.99292229351497e+000

1.81261421647326e+005,-2.60949773117394e+001,-9.11649408041297e+000

1.83791736799524e+005,-2.60965523411902e+001,-9.24172325879941e+000

1.86357373834951e+005,-2.60981660615716e+001,-9.36863098661144e+000

1.88958825828723e+005,-2.60998193257012e+001,-9.49723867759496e+000

1.91596592739027e+005,-2.61015130024347e+001,-9.62756800493917e+000

1.94271181503206e+005,-2.61032479769764e+001,-9.75964090499513e+000

1.96983106135185e+005,-2.61050251512042e+001,-9.89347958108040e+000

1.99732887824256e+005,-2.61068454440101e+001,-1.00291065073676e+001

2.02521055035243e+005,-2.61087097916575e+001,-1.01665444328583e+001

2.05348143610063e+005,-2.61106191481567e+001,-1.03058163854388e+001

2.08214696870707e+005,-2.61125744856584e+001,-1.04469456760202e+001

2.11121265723661e+005,-2.61145767948684e+001,-1.05899559027573e+001

2.14068408765776e+005,-2.61166270854826e+001,-1.07348709553470e+001

2.17056692391625e+005,-2.61187263866451e+001,-1.08817150194022e+001

2.20086690902357e+005,-2.61208757474296e+001,-1.10305125808981e+001

2.23158986616063e+005,-2.61230762373461e+001,-1.11812884306883e+001

2.26274169979693e+005,-2.61253289468735e+001,-1.13340676690853e+001

2.29432839682530e+005,-2.61276349880201e+001,-1.14888757105011e+001

2.32635602771247e+005,-2.61299954949120e+001,-1.16457382881433e+001

2.35883074766574e+005,-2.61324116244127e+001,-1.18046814587601e+001

2.39175879781588e+005,-2.61348845567728e+001,-1.19657316074264e+001

2.42514650641661e+005,-2.61374154963131e+001,-1.21289154523670e+001

2.45900029006080e+005,-2.61400056721405e+001,-1.22942600498061e+001

2.49332665491357e+005,-2.61426563389002e+001,-1.24617927988357e+001

2.52813219796278e+005,-2.61453687775624e+001,-1.26315414462948e+001

2.56342360828676e+005,-2.61481442962471e+001,-1.28035340916471e+001

2.59920766833993e+005,-2.61509842310868e+001,-1.29777991918501e+001

2.63549125525621e+005,-2.61538899471292e+001,-1.31543655662013e+001

2.67228134217075e+005,-2.61568628392786e+001,-1.33332624011521e+001

2.70958499956006e+005,-2.61599043332800e+001,-1.35145192550764e+001

2.74740939660078e+005,-2.61630158867441e+001,-1.36981660629801e+001

2.78576180254757e+005,-2.61661989902150e+001,-1.38842331411392e+001

2.82464958813007e+005,-2.61694551682811e+001,-1.40727511916522e+001

2.86408022696948e+005,-2.61727859807304e+001,-1.42637513068917e+001

2.90406129701488e+005,-2.61761930237487e+001,-1.44572649738402e+001

2.94460048199957e+005,-2.61796779311632e+001,-1.46533240782956e+001

2.98570557291775e+005,-2.61832423757304e+001,-1.48519609089288e+001

3.02738446952187e+005,-2.61868880704684e+001,-1.50532081611781e+001

3.06964518184081e+005,-2.61906167700341e+001,-1.52570989409643e+001

3.11249583171928e+005,-2.61944302721447e+001,-1.54636667682077e+001

3.15594465437872e+005,-2.61983304190432e+001,-1.56729455801321e+001

3.19999999999997e+005,-2.62023190990072e+001,-1.58849697343369e+001

3.24467033532806e+005,-2.62063982479014e+001,-1.60997740116201e+001

3.28996424529938e+005,-2.62105698507707e+001,-1.63173936185356e+001

3.33589043469155e+005,-2.62148359434765e+001,-1.65378641896671e+001

3.38245772979638e+005,-2.62191986143714e+001,-1.67612217895989e+001

3.42967508011610e+005,-2.62236600060136e+001,-1.69875029145713e+001

3.47755156008335e+005,-2.62282223169189e+001,-1.72167444937977e+001

3.52609637080511e+005,-2.62328878033484e+001,-1.74489838904308e+001

3.57531884183106e+005,-2.62376587811308e+001,-1.76842589021600e+001

3.62522843294651e+005,-2.62425376275171e+001,-1.79226077614226e+001

3.67583473599047e+005,-2.62475267830659e+001,-1.81640691352156e+001

3.72714747669902e+005,-2.62526287535576e+001,-1.84086821244897e+001

3.77917651657445e+005,-2.62578461119344e+001,-1.86564862631138e+001

3.83193185478053e+005,-2.62631815002647e+001,-1.89075215163931e+001

3.88542363006410e+005,-2.62686376317291e+001,-1.91618282791288e+001

3.93966212270369e+005,-2.62742172926251e+001,-1.94194473732061e+001

3.99465775648511e+005,-2.62799233443888e+001,-1.96804200446967e+001

4.05042110070485e+005,-2.62857587256289e+001,-1.99447879604671e+001

4.10696287220124e+005,-2.62917264541732e+001,-2.02125932042784e+001

4.16429393741414e+005,-2.62978296291214e+001,-2.04838782723695e+001

4.22242531447321e+005,-2.63040714329034e+001,-2.07586860685140e+001

4.28136817531551e+005,-2.63104551333388e+001,-2.10370598985415e+001

4.34113384783250e+005,-2.63169840856957e+001,-2.13190434643156e+001

4.40173381804713e+005,-2.63236617347434e+001,-2.16046808571620e+001

4.46317973232124e+005,-2.63304916167984e+001,-2.18940165507397e+001

4.52548339959385e+005,-2.63374773617583e+001,-2.21870953933498e+001

4.58865679365059e+005,-2.63446226951209e+001,-2.24839625996781e+001

4.65271205542494e+005,-2.63519314399852e+001,-2.27846637419654e+001

4.71766149533147e+005,-2.63594075190311e+001,-2.30892447406050e+001

4.78351759563174e+005,-2.63670549564732e+001,-2.33977518541624e+001

4.85029301283321e+005,-2.63748778799866e+001,-2.37102316688167e+001

4.91800058012158e+005,-2.63828805225999e+001,-2.40267310872226e+001

4.98665330982714e+005,-2.63910672245525e+001,-2.43472973167922e+001

5.05626439592555e+005,-2.63994424351128e+001,-2.46719778573970e+001

5.12684721657352e+005,-2.64080107143527e+001,-2.50008204884917e+001

5.19841533667984e+005,-2.64167767348755e+001,-2.53338732556603e+001

5.27098251051240e+005,-2.64257452834939e+001,-2.56711844565881e+001

5.34456268434150e+005,-2.64349212628526e+001,-2.60128026264620e+001

5.41916999912011e+005,-2.64443096929947e+001,-2.63587765228026e+001

