Freq.,VOut,OutRef

1.00000000000000e+004,-7.72318436934990e+000,-9.90407622491963e-002

1.01395947979003e+004,-7.72318464220029e+000,-1.00423260160704e-001

1.02811382665607e+004,-7.72318492270817e+000,-1.01825054495604e-001

1.04246576084112e+004,-7.72318521108852e+000,-1.03246414512284e-001

1.05701804056138e+004,-7.72318550756114e+000,-1.04687613229903e-001

1.07177346253629e+004,-7.72318581235350e+000,-1.06148927465033e-001

1.08673486252606e+004,-7.72318612569801e+000,-1.07630637902172e-001

1.10190511587661e+004,-7.72318644783447e+000,-1.09133029133134e-001

1.11728713807222e+004,-7.72318677900893e+000,-1.10656389720000e-001

1.13288388529580e+004,-7.72318711947454e+000,-1.12201012245701e-001

1.14869835499703e+004,-7.72318746949118e+000,-1.13767193373947e-001

1.16473358646846e+004,-7.72318782932653e+000,-1.15355233899955e-001

1.18099266142953e+004,-7.72318819925516e+000,-1.16965438815454e-001

1.19747870461893e+004,-7.72318857955960e+000,-1.18598117360938e-001

1.21419488439505e+004,-7.72318897053014e+000,-1.20253583087424e-001

1.23114441334492e+004,-7.72318937246518e+000,-1.21932153915770e-001

1.24833054890161e+004,-7.72318978567148e+000,-1.23634152196938e-001

1.26575659397028e+004,-7.72319021046418e+000,-1.25359904775160e-001

1.28342589756290e+004,-7.72319064716738e+000,-1.27109743047727e-001

1.30134185544193e+004,-7.72319109611412e+000,-1.28884003030068e-001

1.31950791077289e+004,-7.72319155764653e+000,-1.30683025420519e-001

1.33792755478611e+004,-7.72319203211635e+000,-1.32507155663700e-001

1.35660432744767e+004,-7.72319251988564e+000,-1.34356744013157e-001

1.37554181813974e+004,-7.72319302132551e+000,-1.36232145608494e-001

1.39474366635040e+004,-7.72319353681807e+000,-1.38133720531935e-001

1.41421356237309e+004,-7.72319406675578e+000,-1.40061833883014e-001

1.43395524801583e+004,-7.72319461154214e+000,-1.42016855845654e-001

1.45397251732031e+004,-7.72319517159186e+000,-1.43999161759599e-001

1.47426921729110e+004,-7.72319574733076e+000,-1.46009132194158e-001

1.49484924863494e+004,-7.72319633919696e+000,-1.48047153015262e-001

1.51571656651040e+004,-7.72319694764038e+000,-1.50113615464373e-001

1.53687518128801e+004,-7.72319757312369e+000,-1.52208916228800e-001

1.55832915932100e+004,-7.72319821612206e+000,-1.54333457520443e-001

1.58008262372675e+004,-7.72319887712406e+000,-1.56487647149540e-001

1.60213975517924e+004,-7.72319955663154e+000,-1.58671898605023e-001

1.62450479271247e+004,-7.72320025516039e+000,-1.60886631130320e-001

1.64718203453514e+004,-7.72320097324066e+000,-1.63132269804593e-001

1.67017583885674e+004,-7.72320171141704e+000,-1.65409245623647e-001

1.69349062472505e+004,-7.72320247024956e+000,-1.67717995579104e-001

1.71713087287550e+004,-7.72320325031305e+000,-1.70058962747243e-001

1.74110112659224e+004,-7.72320405219871e+000,-1.72432596366546e-001

1.76540599258131e+004,-7.72320487651387e+000,-1.74839351926349e-001

1.79005014185594e+004,-7.72320572388265e+000,-1.77279691252584e-001

1.81503831063432e+004,-7.72320659494650e+000,-1.79754082594063e-001

1.84037530124975e+004,-7.72320749036382e+000,-1.82263000716588e-001

1.86606598307361e+004,-7.72320841081199e+000,-1.84806926983760e-001

1.89211529345119e+004,-7.72320935698636e+000,-1.87386349456722e-001

1.91852823865052e+004,-7.72321032960172e+000,-1.90001762980713e-001

1.94530989482457e+004,-7.72321132939252e+000,-1.92653669280784e-001

1.97246540898671e+004,-7.72321235711286e+000,-1.95342577059473e-001

1.99999999999999e+004,-7.72321341353799e+000,-1.98069002087190e-001

2.02791895958005e+004,-7.72321449946438e+000,-2.00833467303060e-001

2.05622765331213e+004,-7.72321561570981e+000,-2.03636502916128e-001

2.08493152168224e+004,-7.72321676311484e+000,-2.06478646499766e-001

2.11403608112276e+004,-7.72321794254293e+000,-2.09360443096325e-001

2.14354692507258e+004,-7.72321915488098e+000,-2.12282445320240e-001

2.17346972505211e+004,-7.72322040104012e+000,-2.15245213461299e-001

2.20381023175322e+004,-7.72322168195630e+000,-2.18249315590333e-001

2.23457427614443e+004,-7.72322299859089e+000,-2.21295327666374e-001

2.26576777059159e+004,-7.72322435193151e+000,-2.24383833643805e-001

2.29739670999406e+004,-7.72322574299251e+000,-2.27515425584207e-001

2.32946717293690e+004,-7.72322717281583e+000,-2.30690703765980e-001

2.36198532285905e+004,-7.72322864247159e+000,-2.33910276797989e-001

2.39495740923785e+004,-7.72323015305895e+000,-2.37174761733171e-001

2.42838976879009e+004,-7.72323170570662e+000,-2.40484784185473e-001

2.46228882668982e+004,-7.72323330157413e+000,-2.43840978444505e-001

2.49666109780322e+004,-7.72323494185196e+000,-2.47243987598356e-001

2.53151318794055e+004,-7.72323662776302e+000,-2.50694463648811e-001

2.56685179512580e+004,-7.72323836056276e+000,-2.54193067639365e-001

2.60268371088386e+004,-7.72324014154059e+000,-2.57740469773878e-001

2.63901582154578e+004,-7.72324197202078e+000,-2.61337349542315e-001

2.67585510957221e+004,-7.72324385336261e+000,-2.64984395851716e-001

2.71320865489533e+004,-7.72324578696210e+000,-2.68682307149535e-001

2.75108363627948e+004,-7.72324777425243e+000,-2.72431791557148e-001

2.78948733270080e+004,-7.72324981670528e+000,-2.76233566998894e-001

2.82842712474618e+004,-7.72325191583142e+000,-2.80088361338343e-001

2.86791049603164e+004,-7.72325407318171e+000,-2.83996912513221e-001

2.90794503464061e+004,-7.72325629034839e+000,-2.87959968670546e-001

2.94853843458219e+004,-7.72325856896597e+000,-2.91978288306295e-001

2.98969849726987e+004,-7.72326091071212e+000,-2.96052640407825e-001

3.03143313302078e+004,-7.72326331730897e+000,-3.00183804593237e-001

3.07375036257601e+004,-7.72326579052410e+000,-3.04372571257778e-001

3.11665831864199e+004,-7.72326833217151e+000,-3.08619741719521e-001

3.16016524745350e+004,-7.72327094411302e+000,-3.12926128366641e-001

3.20427951035848e+004,-7.72327362825938e+000,-3.17292554807291e-001

3.24900958542493e+004,-7.72327638657127e+000,-3.21719856021792e-001

3.29436406907028e+004,-7.72327922106043e+000,-3.26208878517740e-001

3.34035167771346e+004,-7.72328213379152e+000,-3.30760480480433e-001

3.38698124945009e+004,-7.72328512688235e+000,-3.35375531938450e-001

3.43426174575100e+004,-7.72328820250609e+000,-3.40054914915315e-001

3.48220225318448e+004,-7.72329136289200e+000,-3.44799523596141e-001

3.53081198516260e+004,-7.72329461032701e+000,-3.49610264488819e-001

3.58010028371187e+004,-7.72329794715683e+000,-3.54488056591186e-001

3.63007662126863e+004,-7.72330137578759e+000,-3.59433831556623e-001

3.68075060249948e+004,-7.72330489868711e+000,-3.64448533865586e-001

3.73213196614721e+004,-7.72330851838584e+000,-3.69533120998118e-001

3.78423058690237e+004,-7.72331223747923e+000,-3.74688563604919e-001

3.83705647730104e+004,-7.72331605862833e+000,-3.79915845685952e-001

3.89061978964912e+004,-7.72331998456162e+000,-3.85215964768168e-001

3.94493081797342e+004,-7.72332401807652e+000,-3.90589932084997e-001

3.99999999999998e+004,-7.72332816204081e+000,-3.96038772759975e-001

4.05583791916010e+004,-7.72333241939400e+000,-4.01563525992320e-001

4.11245530662425e+004,-7.72333679314908e+000,-4.07165245242742e-001

4.16986304336447e+004,-7.72334128639429e+000,-4.12844998421469e-001

4.22807216224550e+004,-7.72334590229398e+000,-4.18603868084553e-001

4.28709385014515e+004,-7.72335064409097e+000,-4.24442951622770e-001

4.34693945010421e+004,-7.72335551510765e+000,-4.30363361461248e-001

4.40762046350642e+004,-7.72336051874792e+000,-4.36366225256015e-001

4.46914855228886e+004,-7.72336565849857e+000,-4.42452686096316e-001

4.53153554118317e+004,-7.72337093793107e+000,-4.48623902707324e-001

4.59479341998812e+004,-7.72337636070322e+000,-4.54881049655609e-001

4.65893434587380e+004,-7.72338193056060e+000,-4.61225317558771e-001

4.72397064571810e+004,-7.72338765133845e+000,-4.67657913294350e-001

4.78991481847569e+004,-7.72339352696339e+000,-4.74180060213122e-001

4.85677953758016e+004,-7.72339956145485e+000,-4.80792998355447e-001

4.92457765337964e+004,-7.72340575892691e+000,-4.87497984668284e-001

4.99332219560642e+004,-7.72341212358976e+000,-4.94296293227670e-001

5.06302637588109e+004,-7.72341865975191e+000,-5.01189215457457e-001

5.13370359025159e+004,-7.72342537182086e+000,-5.08178060361480e-001

5.20536742176771e+004,-7.72343226430578e+000,-5.15264154744904e-001

5.27803164309155e+004,-7.72343934181852e+000,-5.22448843449478e-001

5.35171021914442e+004,-7.72344660907526e+000,-5.29733489585637e-001

5.42641730979066e+004,-7.72345407089842e+000,-5.37119474767392e-001

5.50216727255895e+004,-7.72346173221768e+000,-5.44608199353507e-001

5.57897466540159e+004,-7.72346959807216e+000,-5.52201082685701e-001

5.65685424949235e+004,-7.72347767361139e+000,-5.59899563335104e-001

5.73582099206328e+004,-7.72348596409691e+000,-5.67705099348642e-001

5.81589006928121e+004,-7.72349447490396e+000,-5.75619168495994e-001

5.89707686916437e+004,-7.72350321152237e+000,-5.83643268525624e-001

5.97939699453972e+004,-7.72351217955826e+000,-5.91778917417076e-001

6.06286626604156e+004,-7.72352138473501e+000,-6.00027653640331e-001

6.14750072515201e+004,-7.72353083289470e+000,-6.08391036414425e-001

6.23331663728396e+004,-7.72354052999920e+000,-6.16870645972092e-001

6.32033049490698e+004,-7.72355048213081e+000,-6.25468083827155e-001

6.40855902071694e+004,-7.72356069549364e+000,-6.34184973042546e-001

6.49801917084985e+004,-7.72357117641441e+000,-6.43022958500698e-001

6.58872813814055e+004,-7.72358193134289e+000,-6.51983707183033e-001

6.68070335542691e+004,-7.72359296685289e+000,-6.61068908443590e-001

6.77396249890018e+004,-7.72360428964265e+000,-6.70280274291851e-001

6.86852349150199e+004,-7.72361590653489e+000,-6.79619539678882e-001

6.96440450636895e+004,-7.72362782447782e+000,-6.89088462779270e-001

7.06162397032520e+004,-7.72364005054430e+000,-6.98688825287468e-001

7.16020056742374e+004,-7.72365259193253e+000,-7.08422432706591e-001

7.26015324253724e+004,-7.72366545596551e+000,-7.18291114646454e-001

7.36150120499896e+004,-7.72367865009035e+000,-7.28296725124944e-001

7.46426393229441e+004,-7.72369218187819e+000,-7.38441142868049e-001

7.56846117380472e+004,-7.72370605902286e+000,-7.48726271618781e-001

7.67411295460207e+004,-7.72372028934016e+000,-7.59154040444887e-001

7.78123957929823e+004,-7.72373488076632e+000,-7.69726404053727e-001

7.88986163594682e+004,-7.72374984135669e+000,-7.80445343106583e-001

7.99999999999995e+004,-7.72376517928359e+000,-7.91312864540912e-001

8.11167583832018e+004,-7.72378090283451e+000,-8.02331001891995e-001

8.22491061324848e+004,-7.72379702040950e+000,-8.13501815621478e-001

8.33972608672892e+004,-7.72381354051857e+000,-8.24827393447176e-001

8.45614432449099e+004,-7.72383047177848e+000,-8.36309850678238e-001

8.57418770029029e+004,-7.72384782290934e+000,-8.47951330553922e-001

8.69387890020841e+004,-7.72386560273103e+000,-8.59754004584324e-001

8.81524092701283e+004,-7.72388382015852e+000,-8.71720072899503e-001

8.93829710457770e+004,-7.72390248419780e+000,-8.83851764596788e-001

9.06307108236633e+004,-7.72392160394043e+000,-8.96151338097631e-001

9.18958683997622e+004,-7.72394118855811e+000,-9.08621081505947e-001

9.31786869174758e+004,-7.72396124729678e+000,-9.21263312970851e-001

9.44794129143618e+004,-7.72398178947007e+000,-9.34080381054947e-001

9.57982963695136e+004,-7.72400282445212e+000,-9.47074665107325e-001

9.71355907516031e+004,-7.72402436167025e+000,-9.60248575639318e-001

9.84915530675926e+004,-7.72404641059654e+000,-9.73604554708391e-001

9.98664439121282e+004,-7.72406898073898e+000,-9.87145076305223e-001

1.01260527517622e+005,-7.72409208163249e+000,-1.00087264674404e+000

1.02674071805032e+005,-7.72411572282837e+000,-1.01478980506334e+000

1.04107348435354e+005,-7.72413991388378e+000,-1.02889912342805e+000

1.05560632861831e+005,-7.72416466435016e+000,-1.04320320753855e+000

1.07034204382888e+005,-7.72418998376107e+000,-1.05770469704637e+000

1.08528346195813e+005,-7.72421588161920e+000,-1.07240626597557e+000

1.10043345451179e+005,-7.72424236738259e+000,-1.08731062315007e+000

1.11579493308032e+005,-7.72426945044991e+000,-1.10242051262902e+000

1.13137084989847e+005,-7.72429714014513e+000,-1.11773871414707e+000

1.14716419841265e+005,-7.72432544570099e+000,-1.13326804356458e+000

1.16317801385624e+005,-7.72435437624192e+000,-1.14901135332180e+000

1.17941537383287e+005,-7.72438394076566e+000,-1.16497153290394e+000

1.19587939890794e+005,-7.72441414812431e+000,-1.18115150931124e+000

1.21257325320831e+005,-7.72444500700373e+000,-1.19755424754246e+000

1.22950014503040e+005,-7.72447652590275e+000,-1.21418275108025e+000

1.24666332745679e+005,-7.72450871311072e+000,-1.23104006239088e+000

1.26406609898139e+005,-7.72454157668418e+000,-1.24812926343154e+000

1.28171180414339e+005,-7.72457512442243e+000,-1.26545347616754e+000

1.29960383416997e+005,-7.72460936384197e+000,-1.28301586309947e+000

1.31774562762811e+005,-7.72464430214979e+000,-1.30081962780157e+000

1.33614067108538e+005,-7.72467994621549e+000,-1.31886801547119e+000

1.35479249978003e+005,-7.72471630254226e+000,-1.33716431348903e+000

1.37370469830040e+005,-7.72475337723632e+000,-1.35571185199320e+000

1.39288090127379e+005,-7.72479117597595e+000,-1.37451400446245e+000

1.41232479406504e+005,-7.72482970397809e+000,-1.39357418831763e+000

1.43204011348474e+005,-7.72486896596511e+000,-1.41289586552961e+000

1.45203064850745e+005,-7.72490896612886e+000,-1.43248254324885e+000

1.47230024099979e+005,-7.72494970809465e+000,-1.45233777444454e+000

1.49285278645888e+005,-7.72499119488315e+000,-1.47246515856075e+000

1.51369223476094e+005,-7.72503342887185e+000,-1.49286834218685e+000

1.53482259092041e+005,-7.72507641175411e+000,-1.51355101974819e+000

1.55624791585964e+005,-7.72512014449827e+000,-1.53451693420823e+000

1.57797232718936e+005,-7.72516462730439e+000,-1.55576987779368e+000

1.59999999999999e+005,-7.72520985956067e+000,-1.57731369273296e+000

1.62233516766403e+005,-7.72525583979789e+000,-1.59915227201818e+000

1.64498212264969e+005,-7.72530256564326e+000,-1.62128956018284e+000

1.66794521734578e+005,-7.72535003377278e+000,-1.64372955410249e+000

1.69122886489819e+005,-7.72539823986274e+000,-1.66647630381357e+000

1.71483754005805e+005,-7.72544717853989e+000,-1.68953391335645e+000

1.73877578004168e+005,-7.72549684333073e+000,-1.71290654163857e+000

1.76304818540256e+005,-7.72554722660970e+000,-1.73659840332177e+000

1.78765942091554e+005,-7.72559831954670e+000,-1.76061376973159e+000

1.81261421647326e+005,-7.72565011205353e+000,-1.78495696979120e+000

1.83791736799524e+005,-7.72570259272934e+000,-1.80963239098187e+000

1.86357373834951e+005,-7.72575574880605e+000,-1.83464448032418e+000

1.88958825828723e+005,-7.72580956609227e+000,-1.85999774539073e+000

1.91596592739027e+005,-7.72586402891707e+000,-1.88569675534134e+000

1.94271181503206e+005,-7.72591912007360e+000,-1.91174614198535e+000

1.96983106135185e+005,-7.72597482076154e+000,-1.93815060087475e+000

1.99732887824256e+005,-7.72603111052999e+000,-1.96491489242114e+000

2.02521055035243e+005,-7.72608796721988e+000,-1.99204384304367e+000

2.05348143610063e+005,-7.72614536690616e+000,-2.01954234634565e+000

2.08214696870707e+005,-7.72620328384043e+000,-2.04741536431939e+000

2.11121265723661e+005,-7.72626169039347e+000,-2.07566792858082e+000

2.14068408765776e+005,-7.72632055699783e+000,-2.10430514163649e+000

2.17056692391625e+005,-7.72637985209172e+000,-2.13333217817513e+000

2.20086690902357e+005,-7.72643954206209e+000,-2.16275428639660e+000

2.23158986616063e+005,-7.72649959118971e+000,-2.19257678936491e+000

2.26274169979693e+005,-7.72655996159426e+000,-2.22280508639564e+000

2.29432839682530e+005,-7.72662061318058e+000,-2.25344465447237e+000

2.32635602771247e+005,-7.72668150358598e+000,-2.28450104969383e+000

2.35883074766574e+005,-7.72674258812892e+000,-2.31597990875129e+000

2.39175879781588e+005,-7.72680381975869e+000,-2.34788695043624e+000

2.42514650641661e+005,-7.72686514900693e+000,-2.38022797717797e+000

2.45900029006080e+005,-7.72692652394074e+000,-2.41300887660929e+000

2.49332665491357e+005,-7.72698789011690e+000,-2.44623562316496e+000

2.52813219796278e+005,-7.72704919053905e+000,-2.47991427970412e+000

2.56342360828676e+005,-7.72711036561588e+000,-2.51405099916370e+000

2.59920766833993e+005,-7.72717135312173e+000,-2.54865202623974e+000

2.63549125525621e+005,-7.72723208815958e+000,-2.58372369909354e+000

2.67228134217075e+005,-7.72729250312601e+000,-2.61927245108453e+000

2.70958499956006e+005,-7.72735252767877e+000,-2.65530481252949e+000

2.74740939660078e+005,-7.72741208870644e+000,-2.69182741248563e+000

2.78576180254757e+005,-7.72747111030108e+000,-2.72884698055543e+000

2.82464958813007e+005,-7.72752951373312e+000,-2.76637034871654e+000

2.86408022696948e+005,-7.72758721742866e+000,-2.80440445317225e+000

2.90406129701488e+005,-7.72764413694999e+000,-2.84295633622101e+000

2.94460048199957e+005,-7.72770018497812e+000,-2.88203314814727e+000

2.98570557291775e+005,-7.72775527129831e+000,-2.92164214912884e+000

3.02738446952187e+005,-7.72780930278799e+000,-2.96179071116294e+000

3.06964518184081e+005,-7.72786218340746e+000,-3.00248632000591e+000

3.11249583171928e+005,-7.72791381419284e+000,-3.04373657712989e+000

3.15594465437872e+005,-7.72796409325181e+000,-3.08554920169142e+000

3.19999999999997e+005,-7.72801291576117e+000,-3.12793203251311e+000

3.24467033532806e+005,-7.72806017396732e+000,-3.17089303007621e+000

3.28996424529938e+005,-7.72810575718838e+000,-3.21444027852345e+000

3.33589043469155e+005,-7.72814955181838e+000,-3.25858198767086e+000

3.38245772979638e+005,-7.72819144133342e+000,-3.30332649502753e+000

3.42967508011610e+005,-7.72823130629937e+000,-3.34868226782269e+000

3.47755156008335e+005,-7.72826902438098e+000,-3.39465790503829e+000

3.52609637080511e+005,-7.72830447035242e+000,-3.44126213944772e+000

3.57531884183106e+005,-7.72833751610865e+000,-3.48850383965823e+000

3.62522843294651e+005,-7.72836803067775e+000,-3.53639201215711e+000

3.67583473599047e+005,-7.72839588023353e+000,-3.58493580336351e+000

3.72714747669902e+005,-7.72842092810883e+000,-3.63414450167831e+000

3.77917651657445e+005,-7.72844303480819e+000,-3.68402753954273e+000

3.83193185478053e+005,-7.72846205802112e+000,-3.73459449549235e+000

3.88542363006410e+005,-7.72847785263368e+000,-3.78585509622043e+000

3.93966212270369e+005,-7.72849027074009e+000,-3.83781921863698e+000

3.99465775648511e+005,-7.72849916165276e+000,-3.89049689193403e+000

4.05042110070485e+005,-7.72850437191066e+000,-3.94389829965277e+000

4.10696287220124e+005,-7.72850574528612e+000,-3.99803378175305e+000

4.16429393741414e+005,-7.72850312278933e+000,-4.05291383668629e+000

4.22242531447321e+005,-7.72849634267032e+000,-4.10854912347420e+000

4.28136817531551e+005,-7.72848524041810e+000,-4.16495046379138e+000

4.34113384783250e+005,-7.72846964875687e+000,-4.22212884405350e+000

4.40173381804713e+005,-7.72844939763860e+000,-4.28009541751448e+000

4.46317973232124e+005,-7.72842431423166e+000,-4.33886150637090e+000

4.52548339959385e+005,-7.72839422290602e+000,-4.39843860387560e+000

4.58865679365059e+005,-7.72835894521316e+000,-4.45883837646514e+000

4.65271205542494e+005,-7.72831829986209e+000,-4.52007266589728e+000

4.71766149533147e+005,-7.72827210269009e+000,-4.58215349140492e+000

4.78351759563174e+005,-7.72822016662817e+000,-4.64509305186619e+000

4.85029301283321e+005,-7.72816230166135e+000,-4.70890372799256e+000

4.91800058012158e+005,-7.72809831478288e+000,-4.77359808453786e+000

4.98665330982714e+005,-7.72802800994260e+000,-4.83918887253107e+000

5.05626439592555e+005,-7.72795118798931e+000,-4.90568903153058e+000

5.12684721657352e+005,-7.72786764660666e+000,-4.97311169190974e+000

5.19841533667984e+005,-7.72777718024221e+000,-5.04147017716898e+000

5.27098251051240e+005,-7.72767958003024e+000,-5.11077800628067e+000

5.34456268434150e+005,-7.72757463370718e+000,-5.18104889606869e+000

5.41916999912011e+005,-7.72746212552022e+000,-5.25229676362420e+000

