Freq.,VOut,OutRef

1.00000000000000e+004,-1.54556289053269e+001,-1.24515110364376e-001

1.01395947979003e+004,-1.54556297518241e+001,-1.26253144704041e-001

1.02811382665607e+004,-1.54556306220905e+001,-1.28015435507335e-001

1.04246576084112e+004,-1.54556315167928e+001,-1.29802321142279e-001

1.05701804056138e+004,-1.54556324366164e+001,-1.31614144692781e-001

1.07177346253629e+004,-1.54556333822653e+001,-1.33451254023469e-001

1.08673486252606e+004,-1.54556343544639e+001,-1.35314001840775e-001

1.10190511587661e+004,-1.54556353539565e+001,-1.37202745764633e-001

1.11728713807222e+004,-1.54556363815082e+001,-1.39117848395317e-001

1.13288388529580e+004,-1.54556374379057e+001,-1.41059677382075e-001

1.14869835499703e+004,-1.54556385239573e+001,-1.43028605495128e-001

1.16473358646846e+004,-1.54556396404942e+001,-1.45025010693602e-001

1.18099266142953e+004,-1.54556407883707e+001,-1.47049276198057e-001

1.19747870461893e+004,-1.54556419684652e+001,-1.49101790565241e-001

1.21419488439505e+004,-1.54556431816804e+001,-1.51182947759235e-001

1.23114441334492e+004,-1.54556444289440e+001,-1.53293147230437e-001

1.24833054890161e+004,-1.54556457112100e+001,-1.55432793986700e-001

1.26575659397028e+004,-1.54556470294589e+001,-1.57602298673392e-001

1.28342589756290e+004,-1.54556483846985e+001,-1.59802077649041e-001

1.30134185544193e+004,-1.54556497779646e+001,-1.62032553067762e-001

1.31950791077289e+004,-1.54556512103224e+001,-1.64294152954495e-001

1.33792755478611e+004,-1.54556526828660e+001,-1.66587311292210e-001

1.35660432744767e+004,-1.54556541967208e+001,-1.68912468097701e-001

1.37554181813974e+004,-1.54556557530429e+001,-1.71270069511213e-001

1.39474366635040e+004,-1.54556573530213e+001,-1.73660567873710e-001

1.41421356237309e+004,-1.54556589978775e+001,-1.76084421821781e-001

1.43395524801583e+004,-1.54556606888675e+001,-1.78542096364657e-001

1.45397251732031e+004,-1.54556624272819e+001,-1.81034062980439e-001

1.47426921729110e+004,-1.54556642144473e+001,-1.83560799700273e-001

1.49484924863494e+004,-1.54556660517275e+001,-1.86122791199229e-001

1.51571656651040e+004,-1.54556679405241e+001,-1.88720528890260e-001

1.53687518128801e+004,-1.54556698822774e+001,-1.91354511015207e-001

1.55832915932100e+004,-1.54556718784684e+001,-1.94025242737824e-001

1.58008262372675e+004,-1.54556739306185e+001,-1.96733236241850e-001

1.60213975517924e+004,-1.54556760402919e+001,-1.99479010826381e-001

1.62450479271247e+004,-1.54556782090960e+001,-2.02263093002916e-001

1.64718203453514e+004,-1.54556804386832e+001,-2.05086016593500e-001

1.67017583885674e+004,-1.54556827307511e+001,-2.07948322836506e-001

1.69349062472505e+004,-1.54556850870451e+001,-2.10850560481060e-001

1.71713087287550e+004,-1.54556875093588e+001,-2.13793285895640e-001

1.74110112659224e+004,-1.54556899995353e+001,-2.16777063171367e-001

1.76540599258131e+004,-1.54556925594691e+001,-2.19802464226435e-001

1.79005014185594e+004,-1.54556951911070e+001,-2.22870068914739e-001

1.81503831063432e+004,-1.54556978964499e+001,-2.25980465134665e-001

1.84037530124975e+004,-1.54557006775539e+001,-2.29134248938860e-001

1.86606598307361e+004,-1.54557035365321e+001,-2.32332024646493e-001

1.89211529345119e+004,-1.54557064755559e+001,-2.35574404955153e-001

1.91852823865052e+004,-1.54557094968571e+001,-2.38862011056498e-001

1.94530989482457e+004,-1.54557126027288e+001,-2.42195472751684e-001

1.97246540898671e+004,-1.54557157955277e+001,-2.45575428569140e-001

1.99999999999999e+004,-1.54557190776754e+001,-2.49002525884961e-001

2.02791895958005e+004,-1.54557224516604e+001,-2.52477421041263e-001

2.05622765331213e+004,-1.54557259200398e+001,-2.56000779470537e-001

2.08493152168224e+004,-1.54557294854411e+001,-2.59573275818799e-001

2.11403608112276e+004,-1.54557331505645e+001,-2.63195594068681e-001

2.14354692507258e+004,-1.54557369181842e+001,-2.66868427671482e-001

2.17346972505211e+004,-1.54557407911507e+001,-2.70592479672659e-001

2.20381023175322e+004,-1.54557447723933e+001,-2.74368462840651e-001

2.23457427614443e+004,-1.54557488649215e+001,-2.78197099802595e-001

2.26576777059159e+004,-1.54557530718276e+001,-2.82079123175525e-001

2.29739670999406e+004,-1.54557573962884e+001,-2.86015275704212e-001

2.32946717293690e+004,-1.54557618415682e+001,-2.90006310395537e-001

2.36198532285905e+004,-1.54557664110210e+001,-2.94052990657353e-001

2.39495740923785e+004,-1.54557711080921e+001,-2.98156090442540e-001

2.42838976879009e+004,-1.54557759363212e+001,-3.02316394389548e-001

2.46228882668982e+004,-1.54557808993452e+001,-3.06534697963190e-001

2.49666109780322e+004,-1.54557860009000e+001,-3.10811807608490e-001

2.53151318794055e+004,-1.54557912448236e+001,-3.15148540890589e-001

2.56685179512580e+004,-1.54557966350589e+001,-3.19545726648007e-001

2.60268371088386e+004,-1.54558021756558e+001,-3.24004205146899e-001

2.63901582154578e+004,-1.54558078707750e+001,-3.28524828228479e-001

2.67585510957221e+004,-1.54558137246902e+001,-3.33108459469039e-001

2.71320865489533e+004,-1.54558197417911e+001,-3.37755974336053e-001

2.75108363627948e+004,-1.54558259265869e+001,-3.42468260347514e-001

2.78948733270080e+004,-1.54558322837092e+001,-3.47246217230726e-001

2.82842712474618e+004,-1.54558388179145e+001,-3.52090757090624e-001

2.86791049603164e+004,-1.54558455340887e+001,-3.57002804568414e-001

2.90794503464061e+004,-1.54558524372497e+001,-3.61983297014715e-001

2.94853843458219e+004,-1.54558595325508e+001,-3.67033184655067e-001

2.98969849726987e+004,-1.54558668252844e+001,-3.72153430761287e-001

3.03143313302078e+004,-1.54558743208856e+001,-3.77345011825932e-001

3.07375036257601e+004,-1.54558820249359e+001,-3.82608917736978e-001

3.11665831864199e+004,-1.54558899431665e+001,-3.87946151956055e-001

3.16016524745350e+004,-1.54558980814627e+001,-3.93357731696295e-001

3.20427951035848e+004,-1.54559064458677e+001,-3.98844688103882e-001

3.24900958542493e+004,-1.54559150425865e+001,-4.04408066443439e-001

3.29436406907028e+004,-1.54559238779898e+001,-4.10048926283152e-001

3.34035167771346e+004,-1.54559329586186e+001,-4.15768341680980e-001

3.38698124945009e+004,-1.54559422911881e+001,-4.21567401377488e-001

3.43426174575100e+004,-1.54559518825925e+001,-4.27447208986323e-001

3.48220225318448e+004,-1.54559617399092e+001,-4.33408883189053e-001

3.53081198516260e+004,-1.54559718704031e+001,-4.39453557931797e-001

3.58010028371187e+004,-1.54559822815317e+001,-4.45582382625625e-001

3.63007662126863e+004,-1.54559929809499e+001,-4.51796522343880e-001

3.68075060249948e+004,-1.54560039765145e+001,-4.58097158029440e-001

3.73213196614721e+004,-1.54560152762893e+001,-4.64485486698722e-001

3.78423058690237e+004,-1.54560268885501e+001,-4.70962721648839e-001

3.83705647730104e+004,-1.54560388217900e+001,-4.77530092670034e-001

3.89061978964912e+004,-1.54560510847245e+001,-4.84188846253886e-001

3.94493081797342e+004,-1.54560636862972e+001,-4.90940245812262e-001

3.99999999999998e+004,-1.54560766356843e+001,-4.97785571892762e-001

4.05583791916010e+004,-1.54560899423017e+001,-5.04726122396133e-001

4.11245530662425e+004,-1.54561036158092e+001,-5.11763212800620e-001

4.16986304336447e+004,-1.54561176661170e+001,-5.18898176383489e-001

4.22807216224550e+004,-1.54561321033914e+001,-5.26132364450179e-001

4.28709385014515e+004,-1.54561469380608e+001,-5.33467146558930e-001

4.34693945010421e+004,-1.54561621808219e+001,-5.40903910753669e-001

4.40762046350642e+004,-1.54561778426455e+001,-5.48444063798079e-001

4.46914855228886e+004,-1.54561939347831e+001,-5.56089031408627e-001

4.53153554118317e+004,-1.54562104687731e+001,-5.63840258495649e-001

4.59479341998812e+004,-1.54562274564474e+001,-5.71699209399634e-001

4.65893434587380e+004,-1.54562449099377e+001,-5.79667368136740e-001

4.72397064571810e+004,-1.54562628416827e+001,-5.87746238641397e-001

4.78991481847569e+004,-1.54562812644341e+001,-5.95937345016294e-001

4.85677953758016e+004,-1.54563001912639e+001,-6.04242231779100e-001

4.92457765337964e+004,-1.54563196355715e+001,-6.12662464114832e-001

4.99332219560642e+004,-1.54563396110902e+001,-6.21199628132087e-001

5.06302637588109e+004,-1.54563601318948e+001,-6.29855331116039e-001

5.13370359025159e+004,-1.54563812124082e+001,-6.38631201790839e-001

5.20536742176771e+004,-1.54564028674095e+001,-6.47528890577907e-001

5.27803164309155e+004,-1.54564251120402e+001,-6.56550069861803e-001

5.35171021914442e+004,-1.54564479618127e+001,-6.65696434253841e-001

5.42641730979066e+004,-1.54564714326169e+001,-6.74969700862359e-001

5.50216727255895e+004,-1.54564955407283e+001,-6.84371609560466e-001

5.57897466540159e+004,-1.54565203028152e+001,-6.93903923261273e-001

5.65685424949235e+004,-1.54565457359464e+001,-7.03568428191370e-001

5.73582099206328e+004,-1.54565718575990e+001,-7.13366934169055e-001

5.81589006928121e+004,-1.54565986856657e+001,-7.23301274883588e-001

5.89707686916437e+004,-1.54566262384628e+001,-7.33373308176208e-001

5.97939699453972e+004,-1.54566545347377e+001,-7.43584916325786e-001

6.06286626604156e+004,-1.54566835936770e+001,-7.53938006334253e-001

6.14750072515201e+004,-1.54567134349135e+001,-7.64434510215933e-001

6.23331663728396e+004,-1.54567440785345e+001,-7.75076385287157e-001

6.32033049490698e+004,-1.54567755450893e+001,-7.85865614460992e-001

6.40855902071694e+004,-1.54568078555967e+001,-7.96804206542080e-001

6.49801917084985e+004,-1.54568410315526e+001,-8.07894196524098e-001

6.58872813814055e+004,-1.54568750949374e+001,-8.19137645890272e-001

6.68070335542691e+004,-1.54569100682238e+001,-8.30536642914290e-001

6.77396249890018e+004,-1.54569459743835e+001,-8.42093302967429e-001

6.86852349150199e+004,-1.54569828368950e+001,-8.53809768822100e-001

6.96440450636895e+004,-1.54570206797506e+001,-8.65688210962497e-001

7.06162397032520e+004,-1.54570595274627e+001,-8.77730827896907e-001

7.16020056742374e+004,-1.54570994050714e+001,-8.89939846468120e-001

7.26015324253724e+004,-1.54571403381506e+001,-9.02317522172563e-001

7.36150120499896e+004,-1.54571823528147e+001,-9.14866139476462e-001

7.46426393229441e+004,-1.54572254757243e+001,-9.27588012138035e-001

7.56846117380472e+004,-1.54572697340924e+001,-9.40485483528177e-001

7.67411295460207e+004,-1.54573151556902e+001,-9.53560926957218e-001

7.78123957929823e+004,-1.54573617688519e+001,-9.66816746003664e-001

7.88986163594682e+004,-1.54574096024802e+001,-9.80255374841633e-001

7.99999999999995e+004,-1.54574586860507e+001,-9.93879278576089e-001

8.11167583832018e+004,-1.54575090496163e+001,-1.00769095357689e+000

8.22491061324848e+004,-1.54575607238108e+001,-1.02169292781741e+000

8.33972608672892e+004,-1.54576137398524e+001,-1.03588776121506e+000

8.45614432449099e+004,-1.54576681295471e+001,-1.05027804597402e+000

8.57418770029029e+004,-1.54577239252901e+001,-1.06486640693353e+000

8.69387890020841e+004,-1.54577811600688e+001,-1.07965550191480e+000

8.81524092701283e+004,-1.54578398674632e+001,-1.09464802207590e+000

8.93829710457770e+004,-1.54579000816470e+001,-1.10984669226524e+000

9.06307108236633e+004,-1.54579618373877e+001,-1.12525427138214e+000

9.18958683997622e+004,-1.54580251700455e+001,-1.14087355273843e+000

9.31786869174758e+004,-1.54580901155723e+001,-1.15670736442402e+000

9.44794129143618e+004,-1.54581567105092e+001,-1.17275856967888e+000

9.57982963695136e+004,-1.54582249919836e+001,-1.18903006726469e+000

9.71355907516031e+004,-1.54582949977052e+001,-1.20552479184329e+000

9.84915530675926e+004,-1.54583667659615e+001,-1.22224571436038e+000

9.98664439121282e+004,-1.54584403356113e+001,-1.23919584243146e+000

1.01260527517622e+005,-1.54585157460791e+001,-1.25637822073346e+000

1.02674071805032e+005,-1.54585930373458e+001,-1.27379593140391e+000

1.04107348435354e+005,-1.54586722499410e+001,-1.29145209444084e+000

1.05560632861831e+005,-1.54587534249323e+001,-1.30934986811253e+000

1.07034204382888e+005,-1.54588366039141e+001,-1.32749244937342e+000

1.08528346195813e+005,-1.54589218289949e+001,-1.34588307428211e+000

1.10043345451179e+005,-1.54590091427839e+001,-1.36452501843179e+000

1.11579493308032e+005,-1.54590985883753e+001,-1.38342159738376e+000

1.13137084989847e+005,-1.54591902093320e+001,-1.40257616711143e+000

1.14716419841265e+005,-1.54592840496672e+001,-1.42199212445143e+000

1.16317801385624e+005,-1.54593801538254e+001,-1.44167290756196e+000

1.17941537383287e+005,-1.54594785666607e+001,-1.46162199639361e+000

1.19587939890794e+005,-1.54595793334143e+001,-1.48184291316786e+000

1.21257325320831e+005,-1.54596824996904e+001,-1.50233922286521e+000

1.22950014503040e+005,-1.54597881114297e+001,-1.52311453372617e+000

1.24666332745679e+005,-1.54598962148819e+001,-1.54417249776413e+000

1.26406609898139e+005,-1.54600068565763e+001,-1.56551681128729e+000

1.28171180414339e+005,-1.54601200832901e+001,-1.58715121543834e+000

1.29960383416997e+005,-1.54602359420154e+001,-1.60907949674411e+000

1.31774562762811e+005,-1.54603544799241e+001,-1.63130548768224e+000

1.33614067108538e+005,-1.54604757443312e+001,-1.65383306726126e+000

1.35479249978003e+005,-1.54605997826553e+001,-1.67666616161963e+000

1.37370469830040e+005,-1.54607266423783e+001,-1.69980874464001e+000

1.39288090127379e+005,-1.54608563710026e+001,-1.72326483858077e+000

1.41232479406504e+005,-1.54609890160061e+001,-1.74703851473002e+000

1.43204011348474e+005,-1.54611246247953e+001,-1.77113389407696e+000

1.45203064850745e+005,-1.54612632446572e+001,-1.79555514800410e+000

1.47230024099979e+005,-1.54614049227082e+001,-1.82030649900468e+000

1.49285278645888e+005,-1.54615497058415e+001,-1.84539222141972e+000

1.51369223476094e+005,-1.54616976406727e+001,-1.87081664220195e+000

1.53482259092041e+005,-1.54618487734836e+001,-1.89658414170328e+000

1.55624791585964e+005,-1.54620031501635e+001,-1.92269915449266e+000

1.57797232718936e+005,-1.54621608161496e+001,-1.94916617019601e+000

1.59999999999999e+005,-1.54623218163649e+001,-1.97598973437141e+000

1.62233516766403e+005,-1.54624861951549e+001,-2.00317444941038e+000

1.64498212264969e+005,-1.54626539962227e+001,-2.03072497547192e+000

1.66794521734578e+005,-1.54628252625624e+001,-2.05864603144952e+000

1.69122886489819e+005,-1.54630000363914e+001,-2.08694239597299e+000

1.71483754005805e+005,-1.54631783590807e+001,-2.11561890844433e+000

1.73877578004168e+005,-1.54633602710857e+001,-2.14468047010896e+000

1.76304818540256e+005,-1.54635458118735e+001,-2.17413204516915e+000

1.78765942091554e+005,-1.54637350198521e+001,-2.20397866193008e+000

1.81261421647326e+005,-1.54639279322967e+001,-2.23422541399208e+000

1.83791736799524e+005,-1.54641245852769e+001,-2.26487746147924e+000

1.86357373834951e+005,-1.54643250135830e+001,-2.29594003231348e+000

1.88958825828723e+005,-1.54645292506520e+001,-2.32741842353140e+000

1.91596592739027e+005,-1.54647373284945e+001,-2.35931800264397e+000

1.94271181503206e+005,-1.54649492776209e+001,-2.39164420904422e+000

1.96983106135185e+005,-1.54651651269694e+001,-2.42440255545889e+000

1.99732887824256e+005,-1.54653849038337e+001,-2.45759862944908e+000

2.02521055035243e+005,-1.54656086337925e+001,-2.49123809495755e+000

2.05348143610063e+005,-1.54658363406406e+001,-2.52532669390496e+000

2.08214696870707e+005,-1.54660680463207e+001,-2.55987024783615e+000

2.11121265723661e+005,-1.54663037708585e+001,-2.59487465961466e+000

2.14068408765776e+005,-1.54665435322992e+001,-2.63034591516736e+000

2.17056692391625e+005,-1.54667873466468e+001,-2.66629008528082e+000

2.20086690902357e+005,-1.54670352278068e+001,-2.70271332744633e+000

2.23158986616063e+005,-1.54672871875318e+001,-2.73962188775633e+000

2.26274169979693e+005,-1.54675432353708e+001,-2.77702210285012e+000

2.29432839682530e+005,-1.54678033786226e+001,-2.81492040191021e+000

2.32635602771247e+005,-1.54680676222936e+001,-2.85332330870831e+000

2.35883074766574e+005,-1.54683359690603e+001,-2.89223744369832e+000

2.39175879781588e+005,-1.54686084192364e+001,-2.93166952616139e+000

2.42514650641661e+005,-1.54688849707460e+001,-2.97162637639291e+000

2.45900029006080e+005,-1.54691656191020e+001,-3.01211491794054e+000

2.49332665491357e+005,-1.54694503573911e+001,-3.05314217988483e+000

2.52813219796278e+005,-1.54697391762643e+001,-3.09471529916244e+000

2.56342360828676e+005,-1.54700320639352e+001,-3.13684152293391e+000

2.59920766833993e+005,-1.54703290061846e+001,-3.17952821098964e+000

2.63549125525621e+005,-1.54706299863728e+001,-3.22278283819576e+000

2.67228134217075e+005,-1.54709349854591e+001,-3.26661299697507e+000

2.70958499956006e+005,-1.54712439820293e+001,-3.31102639982310e+000

2.74740939660078e+005,-1.54715569523318e+001,-3.35603088185564e+000

2.78576180254757e+005,-1.54718738703213e+001,-3.40163440338622e+000

2.82464958813007e+005,-1.54721947077111e+001,-3.44784505252954e+000

2.86408022696948e+005,-1.54725194340345e+001,-3.49467104783086e+000

2.90406129701488e+005,-1.54728480167144e+001,-3.54212074091448e+000

2.94460048199957e+005,-1.54731804211426e+001,-3.59020261915331e+000

2.98570557291775e+005,-1.54735166107668e+001,-3.63892530835193e+000

3.02738446952187e+005,-1.54738565471882e+001,-3.68829757544327e+000

3.06964518184081e+005,-1.54742001902667e+001,-3.73832833119578e+000

3.11249583171928e+005,-1.54745474982360e+001,-3.78902663292446e+000

3.15594465437872e+005,-1.54748984278271e+001,-3.84040168720828e+000

3.19999999999997e+005,-1.54752529344012e+001,-3.89246285260654e+000

3.24467033532806e+005,-1.54756109720908e+001,-3.94521964237216e+000

3.28996424529938e+005,-1.54759724939495e+001,-3.99868172715967e+000

3.33589043469155e+005,-1.54763374521103e+001,-4.05285893772550e+000

3.38245772979638e+005,-1.54767057979519e+001,-4.10776126761548e+000

3.42967508011610e+005,-1.54770774822725e+001,-4.16339887583874e+000

3.47755156008335e+005,-1.54774524554720e+001,-4.21978208952456e+000

3.52609637080511e+005,-1.54778306677401e+001,-4.27692140656015e+000

3.57531884183106e+005,-1.54782120692527e+001,-4.33482749820699e+000

3.62522843294651e+005,-1.54785966103734e+001,-4.39351121169326e+000

3.67583473599047e+005,-1.54789842418617e+001,-4.45298357277963e+000

3.72714747669902e+005,-1.54793749150868e+001,-4.51325578829936e+000

3.77917651657445e+005,-1.54797685822459e+001,-4.57433924866829e+000

3.83193185478053e+005,-1.54801651965877e+001,-4.63624553036530e+000

3.88542363006410e+005,-1.54805647126398e+001,-4.69898639837998e+000

3.93966212270369e+005,-1.54809670864394e+001,-4.76257380863105e+000

3.99465775648511e+005,-1.54813722757670e+001,-4.82701991034931e+000

4.05042110070485e+005,-1.54817802403835e+001,-4.89233704842976e+000

4.10696287220124e+005,-1.54821909422677e+001,-4.95853776575015e+000

4.16429393741414e+005,-1.54826043458566e+001,-5.02563480545723e+000

4.22242531447321e+005,-1.54830204182854e+001,-5.09364111322111e+000

4.28136817531551e+005,-1.54834391296290e+001,-5.16256983945902e+000

4.34113384783250e+005,-1.54838604531423e+001,-5.23243434152794e+000

4.40173381804713e+005,-1.54842843655001e+001,-5.30324818589047e+000

4.46317973232124e+005,-1.54847108470358e+001,-5.37502515025180e+000

4.52548339959385e+005,-1.54851398819785e+001,-5.44777922567387e+000

4.58865679365059e+005,-1.54855714586879e+001,-5.52152461866436e+000

4.65271205542494e+005,-1.54860055698860e+001,-5.59627575324699e+000

4.71766149533147e+005,-1.54864422128868e+001,-5.67204727301290e+000

4.78351759563174e+005,-1.54868813898216e+001,-5.74885404315733e+000

4.85029301283321e+005,-1.54873231078611e+001,-5.82671115250293e+000

4.91800058012158e+005,-1.54877673794337e+001,-5.90563391551484e+000

4.98665330982714e+005,-1.54882142224383e+001,-5.98563787431040e+000

5.05626439592555e+005,-1.54886636604537e+001,-6.06673880066402e+000

5.12684721657352e+005,-1.54891157229425e+001,-6.14895269801539e+000

5.19841533667984e+005,-1.54895704454500e+001,-6.23229580348024e+000

5.27098251051240e+005,-1.54900278697985e+001,-6.31678458987052e+000

5.34456268434150e+005,-1.54904880442754e+001,-6.40243576772477e+000

5.41916999912011e+005,-1.54909510238169e+001,-6.48926628735580e+000

