Freq.,VOut,OutRef

1.00000000000000e+004,-2.20250310577730e+001,-2.33559069838019e-001

1.01395947979003e+004,-2.20250336817669e+001,-2.36819077614973e-001

1.02811382665607e+004,-2.20250363794540e+001,-2.40124578328319e-001

1.04246576084112e+004,-2.20250391529015e+001,-2.43476206395750e-001

1.05701804056138e+004,-2.20250420042348e+001,-2.46874605066027e-001

1.07177346253629e+004,-2.20250449356385e+001,-2.50320426536968e-001

1.08673486252606e+004,-2.20250479493588e+001,-2.53814332081586e-001

1.10190511587661e+004,-2.20250510477039e+001,-2.57356992175798e-001

1.11728713807222e+004,-2.20250542330475e+001,-2.60949086619548e-001

1.13288388529580e+004,-2.20250575078294e+001,-2.64591304670453e-001

1.14869835499703e+004,-2.20250608745572e+001,-2.68284345174770e-001

1.16473358646846e+004,-2.20250643358092e+001,-2.72028916695734e-001

1.18099266142953e+004,-2.20250678942356e+001,-2.75825737650941e-001

1.19747870461893e+004,-2.20250715525605e+001,-2.79675536448241e-001

1.21419488439505e+004,-2.20250753135845e+001,-2.83579051621069e-001

1.23114441334492e+004,-2.20250791801863e+001,-2.87537031970575e-001

1.24833054890161e+004,-2.20250831553250e+001,-2.91550236706569e-001

1.26575659397028e+004,-2.20250872420423e+001,-2.95619435591187e-001

1.28342589756290e+004,-2.20250914434652e+001,-2.99745409081008e-001

1.30134185544193e+004,-2.20250957628077e+001,-3.03928948480327e-001

1.31950791077289e+004,-2.20251002033736e+001,-3.08170856085849e-001

1.33792755478611e+004,-2.20251047685591e+001,-3.12471945338110e-001

1.35660432744767e+004,-2.20251094618552e+001,-3.16833040977071e-001

1.37554181813974e+004,-2.20251142868502e+001,-3.21254979196088e-001

1.39474366635040e+004,-2.20251192472323e+001,-3.25738607800053e-001

1.41421356237309e+004,-2.20251243467932e+001,-3.30284786362070e-001

1.43395524801583e+004,-2.20251295894300e+001,-3.34894386388933e-001

1.45397251732031e+004,-2.20251349791483e+001,-3.39568291482346e-001

1.47426921729110e+004,-2.20251405200655e+001,-3.44307397507347e-001

1.49484924863494e+004,-2.20251462164139e+001,-3.49112612756655e-001

1.51571656651040e+004,-2.20251520725437e+001,-3.53984858122488e-001

1.53687518128801e+004,-2.20251580929261e+001,-3.58925067271698e-001

1.55832915932100e+004,-2.20251642821569e+001,-3.63934186817396e-001

1.58008262372675e+004,-2.20251706449600e+001,-3.69013176496981e-001

1.60213975517924e+004,-2.20251771861907e+001,-3.74163009352173e-001

1.62450479271247e+004,-2.20251839108393e+001,-3.79384671909648e-001

1.64718203453514e+004,-2.20251908240349e+001,-3.84679164367297e-001

1.67017583885674e+004,-2.20251979310496e+001,-3.90047500777357e-001

1.69349062472505e+004,-2.20252052373018e+001,-3.95490709239675e-001

1.71713087287550e+004,-2.20252127483604e+001,-4.01009832088853e-001

1.74110112659224e+004,-2.20252204699493e+001,-4.06605926091491e-001

1.76540599258131e+004,-2.20252284079511e+001,-4.12280062641678e-001

1.79005014185594e+004,-2.20252365684121e+001,-4.18033327957316e-001

1.81503831063432e+004,-2.20252449575460e+001,-4.23866823286506e-001

1.84037530124975e+004,-2.20252535817392e+001,-4.29781665107794e-001

1.86606598307361e+004,-2.20252624475552e+001,-4.35778985337960e-001

1.89211529345119e+004,-2.20252715617392e+001,-4.41859931542580e-001

1.91852823865052e+004,-2.20252809312239e+001,-4.48025667144795e-001

1.94530989482457e+004,-2.20252905631334e+001,-4.54277371645140e-001

1.97246540898671e+004,-2.20253004647895e+001,-4.60616240833974e-001

1.99999999999999e+004,-2.20253106437166e+001,-4.67043487013661e-001

2.02791895958005e+004,-2.20253211076471e+001,-4.73560339223380e-001

2.05622765331213e+004,-2.20253318645275e+001,-4.80168043460777e-001

2.08493152168224e+004,-2.20253429225237e+001,-4.86867862914706e-001

2.11403608112276e+004,-2.20253542900274e+001,-4.93661078194120e-001

2.14354692507258e+004,-2.20253659756621e+001,-5.00548987562195e-001

2.17346972505211e+004,-2.20253779882889e+001,-5.07532907175776e-001

2.20381023175322e+004,-2.20253903370139e+001,-5.14614171323410e-001

2.23457427614443e+004,-2.20254030311938e+001,-5.21794132669437e-001

2.26576777059159e+004,-2.20254160804436e+001,-5.29074162499109e-001

2.29739670999406e+004,-2.20254294946426e+001,-5.36455650969136e-001

2.32946717293690e+004,-2.20254432839425e+001,-5.43940007359226e-001

2.36198532285905e+004,-2.20254574587739e+001,-5.51528660325840e-001

2.39495740923785e+004,-2.20254720298542e+001,-5.59223058163502e-001

2.42838976879009e+004,-2.20254870081956e+001,-5.67024669062110e-001

2.46228882668982e+004,-2.20255024051122e+001,-5.74934981375567e-001

2.49666109780322e+004,-2.20255182322288e+001,-5.82955503886835e-001

2.53151318794055e+004,-2.20255345014888e+001,-5.91087766078514e-001

2.56685179512580e+004,-2.20255512251628e+001,-5.99333318408977e-001

2.60268371088386e+004,-2.20255684158577e+001,-6.07693732587294e-001

2.63901582154578e+004,-2.20255860865250e+001,-6.16170601855205e-001

2.67585510957221e+004,-2.20256042504701e+001,-6.24765541270769e-001

2.71320865489533e+004,-2.20256229213620e+001,-6.33480187994485e-001

2.75108363627948e+004,-2.20256421132432e+001,-6.42316201578860e-001

2.78948733270080e+004,-2.20256618405385e+001,-6.51275264264993e-001

2.82842712474618e+004,-2.20256821180660e+001,-6.60359081276698e-001

2.86791049603164e+004,-2.20257029610472e+001,-6.69569381121551e-001

2.90794503464061e+004,-2.20257243851175e+001,-6.78907915894904e-001

2.94853843458219e+004,-2.20257464063370e+001,-6.88376461587431e-001

2.98969849726987e+004,-2.20257690412022e+001,-6.97976818393079e-001

3.03143313302078e+004,-2.20257923066565e+001,-7.07710811025902e-001

3.07375036257601e+004,-2.20258162201024e+001,-7.17580289036033e-001

3.11665831864199e+004,-2.20258407994135e+001,-7.27587127129377e-001

3.16016524745350e+004,-2.20258660629463e+001,-7.37733225493232e-001

3.20427951035848e+004,-2.20258920295532e+001,-7.48020510122803e-001

3.24900958542493e+004,-2.20259187185948e+001,-7.58450933153348e-001

3.29436406907028e+004,-2.20259461499534e+001,-7.69026473193833e-001

3.34035167771346e+004,-2.20259743440461e+001,-7.79749135663449e-001

3.38698124945009e+004,-2.20260033218388e+001,-7.90620953136900e-001

3.43426174575100e+004,-2.20260331048599e+001,-8.01643985684327e-001

3.48220225318448e+004,-2.20260637152148e+001,-8.12820321224343e-001

3.53081198516260e+004,-2.20260951756007e+001,-8.24152075872222e-001

3.58010028371187e+004,-2.20261275093211e+001,-8.35641394297523e-001

3.63007662126863e+004,-2.20261607403015e+001,-8.47290450081882e-001

3.68075060249948e+004,-2.20261948931051e+001,-8.59101446080653e-001

3.73213196614721e+004,-2.20262299929485e+001,-8.71076614790025e-001

3.78423058690237e+004,-2.20262660657181e+001,-8.83218218714482e-001

3.83705647730104e+004,-2.20263031379869e+001,-8.95528550741356e-001

3.89061978964912e+004,-2.20263412370313e+001,-9.08009934514537e-001

3.94493081797342e+004,-2.20263803908489e+001,-9.20664724815168e-001

3.99999999999998e+004,-2.20264206281757e+001,-9.33495307944181e-001

4.05583791916010e+004,-2.20264619785045e+001,-9.46504102108101e-001

4.11245530662425e+004,-2.20265044721034e+001,-9.59693557808871e-001

4.16986304336447e+004,-2.20265481400344e+001,-9.73066158236291e-001

4.22807216224550e+004,-2.20265930141728e+001,-9.86624419664627e-001

4.28709385014515e+004,-2.20266391272266e+001,-1.00037089185132e+000

4.34693945010421e+004,-2.20266865127567e+001,-1.01430815843955e+000

4.40762046350642e+004,-2.20267352051971e+001,-1.02843883736356e+000

4.46914855228886e+004,-2.20267852398752e+001,-1.04276558126016e+000

4.53153554118317e+004,-2.20268366530335e+001,-1.05729107787743e+000

4.59479341998812e+004,-2.20268894818508e+001,-1.07201805049110e+000

4.65893434587380e+004,-2.20269437644638e+001,-1.08694925832402e+000

4.72397064571810e+004,-2.20269995399894e+001,-1.10208749696611e+000

4.78991481847569e+004,-2.20270568485476e+001,-1.11743559879814e+000

4.85677953758016e+004,-2.20271157312840e+001,-1.13299643342012e+000

4.92457765337964e+004,-2.20271762303933e+001,-1.14877290808011e+000

4.99332219560642e+004,-2.20272383891429e+001,-1.16476796810761e+000

5.06302637588109e+004,-2.20273022518969e+001,-1.18098459734938e+000

5.13370359025159e+004,-2.20273678641407e+001,-1.19742581860647e+000

5.20536742176771e+004,-2.20274352725054e+001,-1.21409469407573e+000

5.27803164309155e+004,-2.20275045247932e+001,-1.23099432579399e+000

5.35171021914442e+004,-2.20275756700024e+001,-1.24812785608185e+000

5.42641730979066e+004,-2.20276487583535e+001,-1.26549846799429e+000

5.50216727255895e+004,-2.20277238413151e+001,-1.28310938577027e+000

5.57897466540159e+004,-2.20278009716303e+001,-1.30096387528530e+000

5.65685424949235e+004,-2.20278802033431e+001,-1.31906524450718e+000

5.73582099206328e+004,-2.20279615918254e+001,-1.33741684395431e+000

5.81589006928121e+004,-2.20280451938046e+001,-1.35602206715318e+000

5.89707686916437e+004,-2.20281310673905e+001,-1.37488435110087e+000

5.97939699453972e+004,-2.20282192721030e+001,-1.39400717672938e+000

6.06286626604156e+004,-2.20283098689001e+001,-1.41339406936916e+000

6.14750072515201e+004,-2.20284029202061e+001,-1.43304859921693e+000

6.23331663728396e+004,-2.20284984899397e+001,-1.45297438180465e+000

6.32033049490698e+004,-2.20285966435419e+001,-1.47317507846944e+000

6.40855902071694e+004,-2.20286974480053e+001,-1.49365439682659e+000

6.49801917084985e+004,-2.20288009719019e+001,-1.51441609124099e+000

6.58872813814055e+004,-2.20289072854125e+001,-1.53546396330369e+000

6.68070335542691e+004,-2.20290164603546e+001,-1.55680186230805e+000

6.77396249890018e+004,-2.20291285702113e+001,-1.57843368572602e+000

6.86852349150199e+004,-2.20292436901604e+001,-1.60036337968843e+000

6.96440450636895e+004,-2.20293618971021e+001,-1.62259493946391e+000

7.06162397032520e+004,-2.20294832696881e+001,-1.64513240993988e+000

7.16020056742374e+004,-2.20296078883495e+001,-1.66797988610561e+000

7.26015324253724e+004,-2.20297358353249e+001,-1.69114151353484e+000

7.36150120499896e+004,-2.20298671946883e+001,-1.71462148886991e+000

7.46426393229441e+004,-2.20300020523765e+001,-1.73842406030788e+000

7.56846117380472e+004,-2.20301404962162e+001,-1.76255352808513e+000

7.67411295460207e+004,-2.20302826159508e+001,-1.78701424496673e+000

7.78123957929823e+004,-2.20304285032666e+001,-1.81181061673342e+000

7.88986163594682e+004,-2.20305782518186e+001,-1.83694710267076e+000

7.99999999999995e+004,-2.20307319572555e+001,-1.86242821606056e+000

8.11167583832018e+004,-2.20308897172440e+001,-1.88825852467238e+000

8.22491061324848e+004,-2.20310516314931e+001,-1.91444265125495e+000

8.33972608672892e+004,-2.20312178017764e+001,-1.94098527403243e+000

8.45614432449099e+004,-2.20313883319545e+001,-1.96789112719816e+000

8.57418770029029e+004,-2.20315633279959e+001,-1.99516500141267e+000

8.69387890020841e+004,-2.20317428979970e+001,-2.02281174430252e+000

8.81524092701283e+004,-2.20319271522012e+001,-2.05083626096106e+000

8.93829710457770e+004,-2.20321162030166e+001,-2.07924351445127e+000

9.06307108236633e+004,-2.20323101650320e+001,-2.10803852631096e+000

9.18958683997622e+004,-2.20325091550323e+001,-2.13722637706142e+000

9.31786869174758e+004,-2.20327132920118e+001,-2.16681220671756e+000

9.44794129143618e+004,-2.20329226971864e+001,-2.19680121530184e+000

9.57982963695136e+004,-2.20331374940031e+001,-2.22719866336382e+000

9.71355907516031e+004,-2.20333578081492e+001,-2.25800987250095e+000

9.84915530675926e+004,-2.20335837675582e+001,-2.28924022588484e+000

9.98664439121282e+004,-2.20338155024148e+001,-2.32089516879447e+000

1.01260527517622e+005,-2.20340531451566e+001,-2.35298020915277e+000

1.02674071805032e+005,-2.20342968304750e+001,-2.38550091806933e+000

1.04107348435354e+005,-2.20345466953122e+001,-2.41846293039337e+000

1.05560632861831e+005,-2.20348028788572e+001,-2.45187194526966e+000

1.07034204382888e+005,-2.20350655225379e+001,-2.48573372670671e+000

1.08528346195813e+005,-2.20353347700116e+001,-2.52005410415223e+000

1.10043345451179e+005,-2.20356107671522e+001,-2.55483897307947e+000

1.11579493308032e+005,-2.20358936620341e+001,-2.59009429558375e+000

1.13137084989847e+005,-2.20361836049139e+001,-2.62582610099377e+000

1.14716419841265e+005,-2.20364807482084e+001,-2.66204048649201e+000

1.16317801385624e+005,-2.20367852464693e+001,-2.69874361775439e+000

1.17941537383287e+005,-2.20370972563550e+001,-2.73594172960113e+000

1.19587939890794e+005,-2.20374169365983e+001,-2.77364112666861e+000

1.21257325320831e+005,-2.20377444479711e+001,-2.81184818409658e+000

1.22950014503040e+005,-2.20380799532452e+001,-2.85056934823760e+000

1.24666332745679e+005,-2.20384236171490e+001,-2.88981113738678e+000

1.26406609898139e+005,-2.20387756063214e+001,-2.92958014253469e+000

1.28171180414339e+005,-2.20391360892604e+001,-2.96988302814679e+000

1.29960383416997e+005,-2.20395052362686e+001,-3.01072653296732e+000

1.31774562762811e+005,-2.20398832193950e+001,-3.05211747085447e+000

1.33614067108538e+005,-2.20402702123713e+001,-3.09406273164401e+000

1.35479249978003e+005,-2.20406663905459e+001,-3.13656928204676e+000

1.37370469830040e+005,-2.20410719308125e+001,-3.17964416658223e+000

1.39288090127379e+005,-2.20414870115344e+001,-3.22329450854738e+000

1.41232479406504e+005,-2.20419118124663e+001,-3.26752751102710e+000

1.43204011348474e+005,-2.20423465146695e+001,-3.31235045794493e+000

1.45203064850745e+005,-2.20427913004256e+001,-3.35777071516091e+000

1.47230024099979e+005,-2.20432463531440e+001,-3.40379573161330e+000

1.49285278645888e+005,-2.20437118572672e+001,-3.45043304051335e+000

1.51369223476094e+005,-2.20441879981705e+001,-3.49769026059146e+000

1.53482259092041e+005,-2.20446749620600e+001,-3.54557509739773e+000

1.55624791585964e+005,-2.20451729358652e+001,-3.59409534466349e+000

1.57797232718936e+005,-2.20456821071294e+001,-3.64325888571988e+000

1.59999999999999e+005,-2.20462026638959e+001,-3.69307369498560e+000

1.62233516766403e+005,-2.20467347945928e+001,-3.74354783951711e+000

1.64498212264969e+005,-2.20472786879128e+001,-3.79468948063198e+000

1.66794521734578e+005,-2.20478345326931e+001,-3.84650687560369e+000

1.69122886489819e+005,-2.20484025177910e+001,-3.89900837943317e+000

1.71483754005805e+005,-2.20489828319591e+001,-3.95220244669949e+000

1.73877578004168e+005,-2.20495756637186e+001,-4.00609763349158e+000

1.76304818540256e+005,-2.20501812012318e+001,-4.06070259942663e+000

1.78765942091554e+005,-2.20507996321740e+001,-4.11602610975364e+000

1.81261421647326e+005,-2.20514311436055e+001,-4.17207703755074e+000

1.83791736799524e+005,-2.20520759218440e+001,-4.22886436601332e+000

1.86357373834951e+005,-2.20527341523378e+001,-4.28639719083874e+000

1.88958825828723e+005,-2.20534060195417e+001,-4.34468472270982e+000

1.91596592739027e+005,-2.20540917067938e+001,-4.40373628987844e+000

1.94271181503206e+005,-2.20547913961963e+001,-4.46356134085238e+000

1.96983106135185e+005,-2.20555052684997e+001,-4.52416944718630e+000

1.99732887824256e+005,-2.20562335029912e+001,-4.58557030638023e+000

2.02521055035243e+005,-2.20569762773886e+001,-4.64777374488537e+000

2.05348143610063e+005,-2.20577337677400e+001,-4.71078972121997e+000

2.08214696870707e+005,-2.20585061483307e+001,-4.77462832919509e+000

2.11121265723661e+005,-2.20592935915971e+001,-4.83929980125243e+000

2.14068408765776e+005,-2.20600962680500e+001,-4.90481451191254e+000

2.17056692391625e+005,-2.20609143462069e+001,-4.97118298133662e+000

2.20086690902357e+005,-2.20617479925350e+001,-5.03841587899839e+000

2.23158986616063e+005,-2.20625973714053e+001,-5.10652402746806e+000

2.26274169979693e+005,-2.20634626450600e+001,-5.17551840630557e+000

2.29432839682530e+005,-2.20643439735916e+001,-5.24541015606325e+000

2.32635602771247e+005,-2.20652415149381e+001,-5.31621058239551e+000

2.35883074766574e+005,-2.20661554248928e+001,-5.38793116027230e+000

2.39175879781588e+005,-2.20670858571301e+001,-5.46058353829647e+000

2.42514650641661e+005,-2.20680329632492e+001,-5.53417954311854e+000

2.45900029006080e+005,-2.20689968928360e+001,-5.60873118394871e+000

2.49332665491357e+005,-2.20699777935442e+001,-5.68425065715944e+000

2.52813219796278e+005,-2.20709758111967e+001,-5.76075035097564e+000

2.56342360828676e+005,-2.20719910899082e+001,-5.83824285024775e+000

2.59920766833993e+005,-2.20730237722292e+001,-5.91674094130203e+000

2.63549125525621e+005,-2.20740739993141e+001,-5.99625761686163e+000

2.67228134217075e+005,-2.20751419111120e+001,-6.07680608103337e+000

2.70958499956006e+005,-2.20762276465820e+001,-6.15839975435384e+000

2.74740939660078e+005,-2.20773313439345e+001,-6.24105227888604e+000

2.78576180254757e+005,-2.20784531408969e+001,-6.32477752336158e+000

2.82464958813007e+005,-2.20795931750071e+001,-6.40958958835945e+000

2.86408022696948e+005,-2.20807515839328e+001,-6.49550281151370e+000

2.90406129701488e+005,-2.20819285058191e+001,-6.58253177273980e+000

2.94460048199957e+005,-2.20831240796626e+001,-6.67069129947640e+000

2.98570557291775e+005,-2.20843384457147e+001,-6.75999647192705e+000

3.02738446952187e+005,-2.20855717459121e+001,-6.85046262829736e+000

3.06964518184081e+005,-2.20868241243364e+001,-6.94210537001788e+000

3.11249583171928e+005,-2.20880957277016e+001,-7.03494056694121e+000

3.15594465437872e+005,-2.20893867058697e+001,-7.12898436250725e+000

3.19999999999997e+005,-2.20906972123945e+001,-7.22425317886559e+000

3.24467033532806e+005,-2.20920274050935e+001,-7.32076372194432e+000

3.28996424529938e+005,-2.20933774466472e+001,-7.41853298646048e+000

3.33589043469155e+005,-2.20947475052249e+001,-7.51757826085881e+000

3.38245772979638e+005,-2.20961377551377e+001,-7.61791713217220e+000

3.42967508011610e+005,-2.20975483775170e+001,-7.71956749079473e+000

3.47755156008335e+005,-2.20989795610183e+001,-7.82254753515918e+000

3.52609637080511e+005,-2.21004315025492e+001,-7.92687577631114e+000

3.57531884183106e+005,-2.21019044080211e+001,-8.03257104237240e+000

3.62522843294651e+005,-2.21033984931234e+001,-8.13965248288537e+000

3.67583473599047e+005,-2.21049139841193e+001,-8.24813957303342e+000

3.72714747669902e+005,-2.21064511186616e+001,-8.35805211773007e+000

3.77917651657445e+005,-2.21080101466285e+001,-8.46941025557170e+000

3.83193185478053e+005,-2.21095913309770e+001,-8.58223446264885e+000

3.88542363006410e+005,-2.21111949486137e+001,-8.69654555621140e+000

3.93966212270369e+005,-2.21128212912803e+001,-8.81236469818357e+000

3.99465775648511e+005,-2.21144706664548e+001,-8.92971339852702e+000

4.05042110070485e+005,-2.21161433982641e+001,-9.04861351844734e+000

4.10696287220124e+005,-2.21178398284099e+001,-9.16908727344416e+000

4.16429393741414e+005,-2.21195603171038e+001,-9.29115723620186e+000

4.22242531447321e+005,-2.21213052440118e+001,-9.41484633932162e+000

4.28136817531551e+005,-2.21230750092070e+001,-9.54017787789460e+000

4.34113384783250e+005,-2.21248700341278e+001,-9.66717551191640e+000

4.40173381804713e+005,-2.21266907625424e+001,-9.79586326854516e+000

4.46317973232124e+005,-2.21285376615165e+001,-9.92626554420392e+000

4.52548339959385e+005,-2.21304112223840e+001,-1.00584071065315e+001

4.58865679365059e+005,-2.21323119617201e+001,-1.01923130961836e+001

4.65271205542494e+005,-2.21342404223140e+001,-1.03280090284873e+001

4.71766149533147e+005,-2.21361971741421e+001,-1.04655207949553e+001

4.78351759563174e+005,-2.21381828153398e+001,-1.06048746646620e+001

4.85029301283321e+005,-2.21401979731714e+001,-1.07460972854864e+001

4.91800058012158e+005,-2.21422433049969e+001,-1.08892156852293e+001

4.98665330982714e+005,-2.21443194992356e+001,-1.10342572726073e+001

5.05626439592555e+005,-2.21464272763258e+001,-1.11812498381309e+001

5.12684721657352e+005,-2.21485673896801e+001,-1.13302215548726e+001

5.19841533667984e+005,-2.21507406266354e+001,-1.14812009791296e+001

5.27098251051240e+005,-2.21529478093982e+001,-1.16342170509891e+001

5.34456268434150e+005,-2.21551897959845e+001,-1.17892990948006e+001

5.41916999912011e+005,-2.21574674811539e+001,-1.19464768195617e+001

