Freq.,VOut,OutRef

1.00000000000000e+004,-2.13427260719159e+001,-1.30596340375069e-001

1.01395947979003e+004,-2.13427282547800e+001,-1.32419052758200e-001

1.02811382665607e+004,-2.13427304989368e+001,-1.34267194637658e-001

1.04246576084112e+004,-2.13427328061051e+001,-1.36141120376808e-001

1.05701804056138e+004,-2.13427351780521e+001,-1.38041189256972e-001

1.07177346253629e+004,-2.13427376165938e+001,-1.39967765550575e-001

1.08673486252606e+004,-2.13427401235974e+001,-1.41921218585875e-001

1.10190511587661e+004,-2.13427427009825e+001,-1.43901922814691e-001

1.11728713807222e+004,-2.13427453507218e+001,-1.45910257887299e-001

1.13288388529580e+004,-2.13427480748437e+001,-1.47946608720422e-001

1.14869835499703e+004,-2.13427508754325e+001,-1.50011365572738e-001

1.16473358646846e+004,-2.13427537546318e+001,-1.52104924110734e-001

1.18099266142953e+004,-2.13427567146443e+001,-1.54227685492187e-001

1.19747870461893e+004,-2.13427597577345e+001,-1.56380056434991e-001

1.21419488439505e+004,-2.13427628862298e+001,-1.58562449295092e-001

1.23114441334492e+004,-2.13427661025232e+001,-1.60775282142818e-001

1.24833054890161e+004,-2.13427694090740e+001,-1.63018978841978e-001

1.26575659397028e+004,-2.13427728084106e+001,-1.65293969126559e-001

1.28342589756290e+004,-2.13427763031310e+001,-1.67600688687450e-001

1.30134185544193e+004,-2.13427798959070e+001,-1.69939579241708e-001

1.31950791077289e+004,-2.13427835894839e+001,-1.72311088627645e-001

1.33792755478611e+004,-2.13427873866838e+001,-1.74715670879067e-001

1.35660432744767e+004,-2.13427912904078e+001,-1.77153786312727e-001

1.37554181813974e+004,-2.13427953036375e+001,-1.79625901614676e-001

1.39474366635040e+004,-2.13427994294377e+001,-1.82132489924930e-001

1.41421356237309e+004,-2.13428036709587e+001,-1.84674030924645e-001

1.43395524801583e+004,-2.13428080314381e+001,-1.87251010929064e-001

1.45397251732031e+004,-2.13428125142044e+001,-1.89863922969916e-001

1.47426921729110e+004,-2.13428171226778e+001,-1.92513266894964e-001

1.49484924863494e+004,-2.13428218603745e+001,-1.95199549451867e-001

1.51571656651040e+004,-2.13428267309083e+001,-1.97923284387174e-001

1.53687518128801e+004,-2.13428317379932e+001,-2.00684992538701e-001

1.55832915932100e+004,-2.13428368854466e+001,-2.03485201932120e-001

1.58008262372675e+004,-2.13428421771922e+001,-2.06324447875811e-001

1.60213975517924e+004,-2.13428476172627e+001,-2.09203273059684e-001

1.62450479271247e+004,-2.13428532098024e+001,-2.12122227657006e-001

1.64718203453514e+004,-2.13428589590710e+001,-2.15081869420954e-001

1.67017583885674e+004,-2.13428648694466e+001,-2.18082763788083e-001

1.69349062472505e+004,-2.13428709454284e+001,-2.21125483981462e-001

1.71713087287550e+004,-2.13428771916404e+001,-2.24210611115597e-001

1.74110112659224e+004,-2.13428836128354e+001,-2.27338734298226e-001

1.76540599258131e+004,-2.13428902138969e+001,-2.30510450743955e-001

1.79005014185594e+004,-2.13428969998449e+001,-2.33726365872341e-001

1.81503831063432e+004,-2.13429039758371e+001,-2.36987093429912e-001

1.84037530124975e+004,-2.13429111471752e+001,-2.40293255587604e-001

1.86606598307361e+004,-2.13429185193067e+001,-2.43645483062533e-001

1.89211529345119e+004,-2.13429260978300e+001,-2.47044415227963e-001

1.91852823865052e+004,-2.13429338884986e+001,-2.50490700224597e-001

1.94530989482457e+004,-2.13429418972243e+001,-2.53984995083300e-001

1.97246540898671e+004,-2.13429501300827e+001,-2.57527965835759e-001

1.99999999999999e+004,-2.13429585933170e+001,-2.61120287637352e-001

2.02791895958005e+004,-2.13429672933424e+001,-2.64762644886605e-001

2.05622765331213e+004,-2.13429762367511e+001,-2.68455731344783e-001

2.08493152168224e+004,-2.13429854303170e+001,-2.72200250259565e-001

2.11403608112276e+004,-2.13429948810006e+001,-2.75996914489928e-001

2.14354692507258e+004,-2.13430045959536e+001,-2.79846446632547e-001

2.17346972505211e+004,-2.13430145825251e+001,-2.83749579144337e-001

2.20381023175322e+004,-2.13430248482655e+001,-2.87707054477387e-001

2.23457427614443e+004,-2.13430354009331e+001,-2.91719625202357e-001

2.26576777059159e+004,-2.13430462484993e+001,-2.95788054143174e-001

2.29739670999406e+004,-2.13430573991536e+001,-2.99913114510405e-001

2.32946717293690e+004,-2.13430688613107e+001,-3.04095590031993e-001

2.36198532285905e+004,-2.13430806436154e+001,-3.08336275092178e-001

2.39495740923785e+004,-2.13430927549494e+001,-3.12635974864761e-001

2.42838976879009e+004,-2.13431052044372e+001,-3.16995505455073e-001

2.46228882668982e+004,-2.13431180014531e+001,-3.21415694036334e-001

2.49666109780322e+004,-2.13431311556268e+001,-3.25897378994185e-001

2.53151318794055e+004,-2.13431446768514e+001,-3.30441410066391e-001

2.56685179512580e+004,-2.13431585752893e+001,-3.35048648487926e-001

2.60268371088386e+004,-2.13431728613802e+001,-3.39719967135898e-001

2.63901582154578e+004,-2.13431875458475e+001,-3.44456250677808e-001

2.67585510957221e+004,-2.13432026397067e+001,-3.49258395717738e-001

2.71320865489533e+004,-2.13432181542721e+001,-3.54127310948026e-001

2.75108363627948e+004,-2.13432341011654e+001,-3.59063917297679e-001

2.78948733270080e+004,-2.13432504923233e+001,-3.64069148088288e-001

2.82842712474618e+004,-2.13432673400058e+001,-3.69143949183939e-001

2.86791049603164e+004,-2.13432846568045e+001,-3.74289279150191e-001

2.90794503464061e+004,-2.13433024556517e+001,-3.79506109407352e-001

2.94853843458219e+004,-2.13433207498283e+001,-3.84795424391636e-001

2.98969849726987e+004,-2.13433395529738e+001,-3.90158221710344e-001

3.03143313302078e+004,-2.13433588790944e+001,-3.95595512307577e-001

3.07375036257601e+004,-2.13433787425740e+001,-4.01108320619158e-001

3.11665831864199e+004,-2.13433991581820e+001,-4.06697684744290e-001

3.16016524745350e+004,-2.13434201410845e+001,-4.12364656602694e-001

3.20427951035848e+004,-2.13434417068538e+001,-4.18110302105067e-001

3.24900958542493e+004,-2.13434638714791e+001,-4.23935701316243e-001

3.29436406907028e+004,-2.13434866513764e+001,-4.29841948626723e-001

3.34035167771346e+004,-2.13435100633999e+001,-4.35830152920740e-001

3.38698124945009e+004,-2.13435341248527e+001,-4.41901437745161e-001

3.43426174575100e+004,-2.13435588534981e+001,-4.48056941483091e-001

3.48220225318448e+004,-2.13435842675709e+001,-4.54297817526932e-001

3.53081198516260e+004,-2.13436103857896e+001,-4.60625234449289e-001

3.58010028371187e+004,-2.13436372273677e+001,-4.67040376181331e-001

3.63007662126863e+004,-2.13436648120266e+001,-4.73544442185398e-001

3.68075060249948e+004,-2.13436931600072e+001,-4.80138647635656e-001

3.73213196614721e+004,-2.13437222920836e+001,-4.86824223591124e-001

3.78423058690237e+004,-2.13437522295756e+001,-4.93602417176373e-001

3.83705647730104e+004,-2.13437829943616e+001,-5.00474491763337e-001

3.89061978964912e+004,-2.13438146088927e+001,-5.07441727146025e-001

3.94493081797342e+004,-2.13438470962059e+001,-5.14505419727283e-001

3.99999999999998e+004,-2.13438804799385e+001,-5.21666882694926e-001

4.05583791916010e+004,-2.13439147843420e+001,-5.28927446209319e-001

4.11245530662425e+004,-2.13439500342971e+001,-5.36288457580730e-001

4.16986304336447e+004,-2.13439862553277e+001,-5.43751281457653e-001

4.22807216224550e+004,-2.13440234736168e+001,-5.51317300005430e-001

4.28709385014515e+004,-2.13440617160213e+001,-5.58987913094950e-001

4.34693945010421e+004,-2.13441010100875e+001,-5.66764538484093e-001

4.40762046350642e+004,-2.13441413840670e+001,-5.74648612004334e-001

4.46914855228886e+004,-2.13441828669329e+001,-5.82641587743013e-001

4.53153554118317e+004,-2.13442254883959e+001,-5.90744938230349e-001

4.59479341998812e+004,-2.13442692789210e+001,-5.98960154624713e-001

4.65893434587380e+004,-2.13443142697439e+001,-6.07288746895312e-001

4.72397064571810e+004,-2.13443604928886e+001,-6.15732244008771e-001

4.78991481847569e+004,-2.13444079811846e+001,-6.24292194111423e-001

4.85677953758016e+004,-2.13444567682837e+001,-6.32970164716736e-001

4.92457765337964e+004,-2.13445068886782e+001,-6.41767742886010e-001

4.99332219560642e+004,-2.13445583777192e+001,-6.50686535413334e-001

5.06302637588109e+004,-2.13446112716337e+001,-6.59728169007099e-001

5.13370359025159e+004,-2.13446656075441e+001,-6.68894290471799e-001

5.20536742176771e+004,-2.13447214234856e+001,-6.78186566891085e-001

5.27803164309155e+004,-2.13447787584258e+001,-6.87606685803918e-001

5.35171021914442e+004,-2.13448376522826e+001,-6.97156355387881e-001

5.42641730979066e+004,-2.13448981459442e+001,-7.06837304634541e-001

5.50216727255895e+004,-2.13449602812871e+001,-7.16651283527275e-001

5.57897466540159e+004,-2.13450241011966e+001,-7.26600063214437e-001

5.65685424949235e+004,-2.13450896495846e+001,-7.36685436187012e-001

5.73582099206328e+004,-2.13451569714105e+001,-7.46909216446661e-001

5.81589006928121e+004,-2.13452261126997e+001,-7.57273239678924e-001

5.89707686916437e+004,-2.13452971205634e+001,-7.67779363421020e-001

5.97939699453972e+004,-2.13453700432181e+001,-7.78429467227882e-001

6.06286626604156e+004,-2.13454449300052e+001,-7.89225452837398e-001

6.14750072515201e+004,-2.13455218314103e+001,-8.00169244333020e-001

6.23331663728396e+004,-2.13456007990829e+001,-8.11262788301872e-001

6.32033049490698e+004,-2.13456818858555e+001,-8.22508053994540e-001

6.40855902071694e+004,-2.13457651457627e+001,-8.33907033478980e-001

6.49801917084985e+004,-2.13458506340607e+001,-8.45461741791921e-001

6.58872813814055e+004,-2.13459384072456e+001,-8.57174217089765e-001

6.68070335542691e+004,-2.13460285230725e+001,-8.69046520792986e-001

6.77396249890018e+004,-2.13461210405734e+001,-8.81080737731806e-001

6.86852349150199e+004,-2.13462160200757e+001,-8.93278976284804e-001

6.96440450636895e+004,-2.13463135232198e+001,-9.05643368514611e-001

7.06162397032520e+004,-2.13464136129758e+001,-9.18176070305040e-001

7.16020056742374e+004,-2.13465163536610e+001,-9.30879261487237e-001

7.26015324253724e+004,-2.13466218109562e+001,-9.43755145967880e-001

7.36150120499896e+004,-2.13467300519209e+001,-9.56805951852177e-001

7.46426393229441e+004,-2.13468411450089e+001,-9.70033931561206e-001

7.56846117380472e+004,-2.13469551600827e+001,-9.83441361948978e-001

7.67411295460207e+004,-2.13470721684267e+001,-9.97030544412724e-001

7.78123957929823e+004,-2.13471922427612e+001,-1.01080380499951e+000

7.88986163594682e+004,-2.13473154572529e+001,-1.02476349451286e+000

7.99999999999995e+004,-2.13474418875273e+001,-1.03891198860729e+000

8.11167583832018e+004,-2.13475716106779e+001,-1.05325168788819e+000

8.22491061324848e+004,-2.13477047052755e+001,-1.06778501800167e+000

8.33972608672892e+004,-2.13478412513756e+001,-1.08251442972152e+000

8.45614432449099e+004,-2.13479813305253e+001,-1.09744239903390e+000

8.57418770029029e+004,-2.13481250257678e+001,-1.11257142721823e+000

8.69387890020841e+004,-2.13482724216463e+001,-1.12790404092148e+000

8.81524092701283e+004,-2.13484236042062e+001,-1.14344279223217e+000

8.93829710457770e+004,-2.13485786609953e+001,-1.15919025874904e+000

9.06307108236633e+004,-2.13487376810622e+001,-1.17514904364814e+000

9.18958683997622e+004,-2.13489007549538e+001,-1.19132177574394e+000

9.31786869174758e+004,-2.13490679747092e+001,-1.20771110955246e+000

9.44794129143618e+004,-2.13492394338532e+001,-1.22431972534532e+000

9.57982963695136e+004,-2.13494152273865e+001,-1.24115032920815e+000

9.71355907516031e+004,-2.13495954517737e+001,-1.25820565309272e+000

9.84915530675926e+004,-2.13497802049296e+001,-1.27548845486916e+000

9.98664439121282e+004,-2.13499695862023e+001,-1.29300151837706e+000

1.01260527517622e+005,-2.13501636963532e+001,-1.31074765347718e+000

1.02674071805032e+005,-2.13503626375357e+001,-1.32872969609948e+000

1.04107348435354e+005,-2.13505665132693e+001,-1.34695050829682e+000

1.05560632861831e+005,-2.13507754284118e+001,-1.36541297829501e+000

1.07034204382888e+005,-2.13509894891276e+001,-1.38412002054898e+000

1.08528346195813e+005,-2.13512088028533e+001,-1.40307457579786e+000

1.10043345451179e+005,-2.13514334782592e+001,-1.42227961112734e+000

1.11579493308032e+005,-2.13516636252075e+001,-1.44173812003204e+000

1.13137084989847e+005,-2.13518993547075e+001,-1.46145312248755e+000

1.14716419841265e+005,-2.13521407788651e+001,-1.48142766502626e+000

1.16317801385624e+005,-2.13523880108308e+001,-1.50166482082041e+000

1.17941537383287e+005,-2.13526411647411e+001,-1.52216768977689e+000

1.19587939890794e+005,-2.13529003556580e+001,-1.54293939863611e+000

1.21257325320831e+005,-2.13531656995020e+001,-1.56398310108875e+000

1.22950014503040e+005,-2.13534373129825e+001,-1.58530197790065e+000

1.24666332745679e+005,-2.13537153135222e+001,-1.60689923705321e+000

1.26406609898139e+005,-2.13539998191780e+001,-1.62877811389901e+000

1.28171180414339e+005,-2.13542909485559e+001,-1.65094187133515e+000

1.29960383416997e+005,-2.13545888207224e+001,-1.67339379999693e+000

1.31774562762811e+005,-2.13548935551096e+001,-1.69613721846883e+000

1.33614067108538e+005,-2.13552052714162e+001,-1.71917547352270e+000

1.35479249978003e+005,-2.13555240895033e+001,-1.74251194037726e+000

1.37370469830040e+005,-2.13558501292845e+001,-1.76615002298624e+000

1.39288090127379e+005,-2.13561835106116e+001,-1.79009315435650e+000

1.41232479406504e+005,-2.13565243531545e+001,-1.81434479689419e+000

1.43204011348474e+005,-2.13568727762762e+001,-1.83890844278847e+000

1.45203064850745e+005,-2.13572288989023e+001,-1.86378761442946e+000

1.47230024099979e+005,-2.13575928393859e+001,-1.88898586486342e+000

1.49285278645888e+005,-2.13579647153669e+001,-1.91450677829343e+000

1.51369223476094e+005,-2.13583446436262e+001,-1.94035397061820e+000

1.53482259092041e+005,-2.13587327399350e+001,-1.96653109002287e+000

1.55624791585964e+005,-2.13591291188996e+001,-1.99304181761458e+000

1.57797232718936e+005,-2.13595338938011e+001,-2.01988986811377e+000

1.59999999999999e+005,-2.13599471764302e+001,-2.04707899059796e+000

1.62233516766403e+005,-2.13603690769183e+001,-2.07461296930405e+000

1.64498212264969e+005,-2.13607997035643e+001,-2.10249562449188e+000

1.66794521734578e+005,-2.13612391626566e+001,-2.13073081337103e+000

1.69122886489819e+005,-2.13616875582926e+001,-2.15932243109383e+000

1.71483754005805e+005,-2.13621449921940e+001,-2.18827441181815e+000

1.73877578004168e+005,-2.13626115635199e+001,-2.21759072984290e+000

1.76304818540256e+005,-2.13630873686757e+001,-2.24727540081790e+000

1.78765942091554e+005,-2.13635725011217e+001,-2.27733248303279e+000

1.81261421647326e+005,-2.13640670511785e+001,-2.30776607878531e+000

1.83791736799524e+005,-2.13645711058310e+001,-2.33858033583437e+000

1.86357373834951e+005,-2.13650847485327e+001,-2.36977944893804e+000

1.88958825828723e+005,-2.13656080590084e+001,-2.40136766148058e+000

1.91596592739027e+005,-2.13661411130577e+001,-2.43334926718939e+000

1.94271181503206e+005,-2.13666839823595e+001,-2.46572861194531e+000

1.96983106135185e+005,-2.13672367342774e+001,-2.49851009568844e+000

1.99732887824256e+005,-2.13677994316680e+001,-2.53169817441780e+000

2.02521055035243e+005,-2.13683721326914e+001,-2.56529736229226e+000

2.05348143610063e+005,-2.13689548906258e+001,-2.59931223382979e+000

2.08214696870707e+005,-2.13695477536860e+001,-2.63374742620617e+000

2.11121265723661e+005,-2.13701507648474e+001,-2.66860764165622e+000

2.14068408765776e+005,-2.13707639616756e+001,-2.70389764997636e+000

2.17056692391625e+005,-2.13713873761635e+001,-2.73962229113004e+000

2.20086690902357e+005,-2.13720210345748e+001,-2.77578647795329e+000

2.23158986616063e+005,-2.13726649572976e+001,-2.81239519896370e+000

2.26274169979693e+005,-2.13733191587058e+001,-2.84945352126905e+000

2.29432839682530e+005,-2.13739836470320e+001,-2.88696659357528e+000

2.32635602771247e+005,-2.13746584242514e+001,-2.92493964929176e+000

2.35883074766574e+005,-2.13753434859770e+001,-2.96337800973391e+000

2.39175879781588e+005,-2.13760388213687e+001,-3.00228708741822e+000

2.42514650641661e+005,-2.13767444130561e+001,-3.04167238944692e+000

2.45900029006080e+005,-2.13774602370759e+001,-3.08153952098168e+000

2.49332665491357e+005,-2.13781862628249e+001,-3.12189418879972e+000

2.52813219796278e+005,-2.13789224530298e+001,-3.16274220492891e+000

2.56342360828676e+005,-2.13796687637342e+001,-3.20408949035984e+000

2.59920766833993e+005,-2.13804251443033e+001,-3.24594207882584e+000

2.63549125525621e+005,-2.13811915374480e+001,-3.28830612064758e+000

2.67228134217075e+005,-2.13819678792687e+001,-3.33118788663790e+000

2.70958499956006e+005,-2.13827540993180e+001,-3.37459377205750e+000

2.74740939660078e+005,-2.13835501206861e+001,-3.41853030061802e+000

2.78576180254757e+005,-2.13843558601058e+001,-3.46300412852308e+000

2.82464958813007e+005,-2.13851712280806e+001,-3.50802204854249e+000

2.86408022696948e+005,-2.13859961290341e+001,-3.55359099410903e+000

2.90406129701488e+005,-2.13868304614827e+001,-3.59971804343403e+000

2.94460048199957e+005,-2.13876741182303e+001,-3.64641042362957e+000

2.98570557291775e+005,-2.13885269865869e+001,-3.69367551483200e+000

3.02738446952187e+005,-2.13893889486098e+001,-3.74152085431718e+000

3.06964518184081e+005,-2.13902598813674e+001,-3.78995414059985e+000

3.11249583171928e+005,-2.13911396572270e+001,-3.83898323750618e+000

3.15594465437872e+005,-2.13920281441649e+001,-3.88861617821490e+000

3.19999999999997e+005,-2.13929252060988e+001,-3.93886116925447e+000

3.24467033532806e+005,-2.13938307032428e+001,-3.98972659445017e+000

3.28996424529938e+005,-2.13947444924838e+001,-4.04122101881240e+000

3.33589043469155e+005,-2.13956664277797e+001,-4.09335319235667e+000

3.38245772979638e+005,-2.13965963605769e+001,-4.14613205385023e+000

3.42967508011610e+005,-2.13975341402491e+001,-4.19956673447245e+000

3.47755156008335e+005,-2.13984796145536e+001,-4.25366656138872e+000

3.52609637080511e+005,-2.13994326301071e+001,-4.30844106122390e+000

3.57531884183106e+005,-2.14003930328772e+001,-4.36389996343268e+000

3.62522843294651e+005,-2.14013606686910e+001,-4.42005320356082e+000

3.67583473599047e+005,-2.14023353837580e+001,-4.47691092638895e+000

3.72714747669902e+005,-2.14033170252069e+001,-4.53448348895555e+000

3.77917651657445e+005,-2.14043054416349e+001,-4.59278146345611e+000

3.83193185478053e+005,-2.14053004836677e+001,-4.65181564001088e+000

3.88542363006410e+005,-2.14063020045305e+001,-4.71159702930100e+000

3.93966212270369e+005,-2.14073098606256e+001,-4.77213686506835e+000

3.99465775648511e+005,-2.14083239121188e+001,-4.83344660647916e+000

4.05042110070485e+005,-2.14093440235303e+001,-4.89553794034812e+000

4.10696287220124e+005,-2.14103700643302e+001,-4.95842278322325e+000

4.16429393741414e+005,-2.14114019095365e+001,-5.02211328333198e+000

4.22242531447321e+005,-2.14124394403146e+001,-5.08662182238904e+000

4.28136817531551e+005,-2.14134825445766e+001,-5.15196101726707e+000

4.34113384783250e+005,-2.14145311175789e+001,-5.21814372153271e+000

4.40173381804713e+005,-2.14155850625172e+001,-5.28518302685155e+000

4.46317973232124e+005,-2.14166442911172e+001,-5.35309226426454e+000

4.52548339959385e+005,-2.14177087242197e+001,-5.42188500533961e+000

4.58865679365059e+005,-2.14187782923590e+001,-5.49157506320650e+000

4.65271205542494e+005,-2.14198529363336e+001,-5.56217649347409e+000

4.71766149533147e+005,-2.14209326077681e+001,-5.63370359504297e+000

4.78351759563174e+005,-2.14220172696644e+001,-5.70617091081474e+000

4.85029301283321e+005,-2.14231068969428e+001,-5.77959322830577e+000

4.91800058012158e+005,-2.14242014769710e+001,-5.85398558017594e+000

4.98665330982714e+005,-2.14253010100805e+001,-5.92936324467391e+000

5.05626439592555e+005,-2.14264055100701e+001,-6.00574174601211e+000

5.12684721657352e+005,-2.14275150046951e+001,-6.08313685467817e+000

5.19841533667984e+005,-2.14286295361428e+001,-6.16156458768911e+000

5.27098251051240e+005,-2.14297491614929e+001,-6.24104120879831e+000

5.34456268434150e+005,-2.14308739531633e+001,-6.32158322866561e+000

5.41916999912011e+005,-2.14320039993405e+001,-6.40320740499554e+000

