Freq.,VOut,OutRef

1.00000000000000e+004,-1.57789044714260e+001,-1.24861260581886e-001

1.01395947979003e+004,-1.57789063081039e+001,-1.26603959339505e-001

1.02811382665607e+004,-1.57789081963518e+001,-1.28370972559067e-001

1.04246576084112e+004,-1.57789101376159e+001,-1.30162639117357e-001

1.05701804056138e+004,-1.57789121333826e+001,-1.31979302601737e-001

1.07177346253629e+004,-1.57789141851798e+001,-1.33821311371997e-001

1.08673486252606e+004,-1.57789162945785e+001,-1.35689018622943e-001

1.10190511587661e+004,-1.57789184631934e+001,-1.37582782457388e-001

1.11728713807222e+004,-1.57789206926843e+001,-1.39502965947336e-001

1.13288388529580e+004,-1.57789229847572e+001,-1.41449937208338e-001

1.14869835499703e+004,-1.57789253411664e+001,-1.43424069461502e-001

1.16473358646846e+004,-1.57789277637143e+001,-1.45425741111666e-001

1.18099266142953e+004,-1.57789302542546e+001,-1.47455335809132e-001

1.19747870461893e+004,-1.57789328146920e+001,-1.49513242530910e-001

1.21419488439505e+004,-1.57789354469846e+001,-1.51599855648664e-001

1.23114441334492e+004,-1.57789381531454e+001,-1.53715575001316e-001

1.24833054890161e+004,-1.57789409352435e+001,-1.55860805972339e-001

1.26575659397028e+004,-1.57789437954053e+001,-1.58035959567623e-001

1.28342589756290e+004,-1.57789467358168e+001,-1.60241452488002e-001

1.30134185544193e+004,-1.57789497587253e+001,-1.62477707207899e-001

1.31950791077289e+004,-1.57789528664404e+001,-1.64745152055238e-001

1.33792755478611e+004,-1.57789560613362e+001,-1.67044221291574e-001

1.35660432744767e+004,-1.57789593458528e+001,-1.69375355193989e-001

1.37554181813974e+004,-1.57789627224983e+001,-1.71739000133756e-001

1.39474366635040e+004,-1.57789661938508e+001,-1.74135608661091e-001

1.41421356237309e+004,-1.57789697625605e+001,-1.76565639588827e-001

1.43395524801583e+004,-1.57789734313507e+001,-1.79029558079218e-001

1.45397251732031e+004,-1.57789772030209e+001,-1.81527835729001e-001

1.47426921729110e+004,-1.57789810804486e+001,-1.84060950654423e-001

1.49484924863494e+004,-1.57789850665911e+001,-1.86629387584034e-001

1.51571656651040e+004,-1.57789891644880e+001,-1.89233637945320e-001

1.53687518128801e+004,-1.57789933772635e+001,-1.91874199955426e-001

1.55832915932100e+004,-1.57789977081285e+001,-1.94551578715785e-001

1.58008262372675e+004,-1.57790021603833e+001,-1.97266286300048e-001

1.60213975517924e+004,-1.57790067374195e+001,-2.00018841855251e-001

1.62450479271247e+004,-1.57790114427234e+001,-2.02809771689217e-001

1.64718203453514e+004,-1.57790162798773e+001,-2.05639609374909e-001

1.67017583885674e+004,-1.57790212525637e+001,-2.08508895841429e-001

1.69349062472505e+004,-1.57790263645669e+001,-2.11418179477085e-001

1.71713087287550e+004,-1.57790316197757e+001,-2.14368016230010e-001

1.74110112659224e+004,-1.57790370221875e+001,-2.17358969705483e-001

1.76540599258131e+004,-1.57790425759097e+001,-2.20391611273661e-001

1.79005014185594e+004,-1.57790482851637e+001,-2.23466520169215e-001

1.81503831063432e+004,-1.57790541542878e+001,-2.26584283600943e-001

1.84037530124975e+004,-1.57790601877404e+001,-2.29745496852215e-001

1.86606598307361e+004,-1.57790663901027e+001,-2.32950763396958e-001

1.89211529345119e+004,-1.57790727660829e+001,-2.36200695000387e-001

1.91852823865052e+004,-1.57790793205195e+001,-2.39495911833923e-001

1.94530989482457e+004,-1.57790860583840e+001,-2.42837042587764e-001

1.97246540898671e+004,-1.57790929847857e+001,-2.46224724579317e-001

1.99999999999999e+004,-1.57791001049743e+001,-2.49659603873753e-001

2.02791895958005e+004,-1.57791074243444e+001,-2.53142335395210e-001

2.05622765331213e+004,-1.57791149484397e+001,-2.56673583042931e-001

2.08493152168224e+004,-1.57791226829557e+001,-2.60254019815544e-001

2.11403608112276e+004,-1.57791306337453e+001,-2.63884327924969e-001

2.14354692507258e+004,-1.57791388068222e+001,-2.67565198919845e-001

2.17346972505211e+004,-1.57791472083654e+001,-2.71297333807728e-001

2.20381023175322e+004,-1.57791558447234e+001,-2.75081443181535e-001

2.23457427614443e+004,-1.57791647224193e+001,-2.78918247339729e-001

2.26576777059159e+004,-1.57791738481550e+001,-2.82808476417810e-001

2.29739670999406e+004,-1.57791832288161e+001,-2.86752870514833e-001

2.32946717293690e+004,-1.57791928714768e+001,-2.90752179820962e-001

2.36198532285905e+004,-1.57792027834052e+001,-2.94807164751088e-001

2.39495740923785e+004,-1.57792129720676e+001,-2.98918596078497e-001

2.42838976879009e+004,-1.57792234451350e+001,-3.03087255062707e-001

2.46228882668982e+004,-1.57792342104875e+001,-3.07313933591593e-001

2.49666109780322e+004,-1.57792452762202e+001,-3.11599434314374e-001

2.53151318794055e+004,-1.57792566506494e+001,-3.15944570779008e-001

2.56685179512580e+004,-1.57792683423170e+001,-3.20350167575648e-001

2.60268371088386e+004,-1.57792803599983e+001,-3.24817060473021e-001

2.63901582154578e+004,-1.57792927127065e+001,-3.29346096564357e-001

2.67585510957221e+004,-1.57793054096999e+001,-3.33938134408883e-001

2.71320865489533e+004,-1.57793184604882e+001,-3.38594044178356e-001

2.75108363627948e+004,-1.57793318748384e+001,-3.43314707804392e-001

2.78948733270080e+004,-1.57793456627823e+001,-3.48101019124671e-001

2.82842712474618e+004,-1.57793598346233e+001,-3.52953884033273e-001

2.86791049603164e+004,-1.57793744009424e+001,-3.57874220634852e-001

2.90794503464061e+004,-1.57793893726070e+001,-3.62862959389470e-001

2.94853843458219e+004,-1.57794047607769e+001,-3.67921043275759e-001

2.98969849726987e+004,-1.57794205769127e+001,-3.73049427937935e-001

3.03143313302078e+004,-1.57794368327831e+001,-3.78249081848087e-001

3.07375036257601e+004,-1.57794535404727e+001,-3.83520986460588e-001

3.11665831864199e+004,-1.57794707123903e+001,-3.88866136373800e-001

3.16016524745350e+004,-1.57794883612771e+001,-3.94285539489501e-001

3.20427951035848e+004,-1.57795065002151e+001,-3.99780217174037e-001

3.24900958542493e+004,-1.57795251426355e+001,-4.05351204424459e-001

3.29436406907028e+004,-1.57795443023279e+001,-4.10999550030914e-001

3.34035167771346e+004,-1.57795639934491e+001,-4.16726316741523e-001

3.38698124945009e+004,-1.57795842305318e+001,-4.22532581434001e-001

3.43426174575100e+004,-1.57796050284950e+001,-4.28419435279509e-001

3.48220225318448e+004,-1.57796264026527e+001,-4.34387983913313e-001

3.53081198516260e+004,-1.57796483687240e+001,-4.40439347608279e-001

3.58010028371187e+004,-1.57796709428430e+001,-4.46574661444424e-001

3.63007662126863e+004,-1.57796941415692e+001,-4.52795075481691e-001

3.68075060249948e+004,-1.57797179818976e+001,-4.59101754936641e-001

3.73213196614721e+004,-1.57797424812692e+001,-4.65495880355873e-001

3.78423058690237e+004,-1.57797676575823e+001,-4.71978647793530e-001

3.83705647730104e+004,-1.57797935292031e+001,-4.78551268986819e-001

3.89061978964912e+004,-1.57798201149769e+001,-4.85214971538062e-001

3.94493081797342e+004,-1.57798474342396e+001,-4.91970999090306e-001

3.99999999999998e+004,-1.57798755068295e+001,-4.98820611509579e-001

4.05583791916010e+004,-1.57799043530991e+001,-5.05765085065876e-001

4.11245530662425e+004,-1.57799339939267e+001,-5.12805712614806e-001

4.16986304336447e+004,-1.57799644507292e+001,-5.19943803779800e-001

4.22807216224550e+004,-1.57799957454745e+001,-5.27180685137377e-001

4.28709385014515e+004,-1.57800279006939e+001,-5.34517700398130e-001

4.34693945010421e+004,-1.57800609394952e+001,-5.41956210594700e-001

4.40762046350642e+004,-1.57800948855756e+001,-5.49497594264894e-001

4.46914855228886e+004,-1.57801297632354e+001,-5.57143247637564e-001

4.53153554118317e+004,-1.57801655973908e+001,-5.64894584820170e-001

4.59479341998812e+004,-1.57802024135883e+001,-5.72753037984059e-001

4.65893434587380e+004,-1.57802402380182e+001,-5.80720057550943e-001

4.72397064571810e+004,-1.57802790975283e+001,-5.88797112382150e-001

4.78991481847569e+004,-1.57803190196392e+001,-5.96985689962511e-001

4.85677953758016e+004,-1.57803600325574e+001,-6.05287296590570e-001

4.92457765337964e+004,-1.57804021651910e+001,-6.13703457564497e-001

4.99332219560642e+004,-1.57804454471636e+001,-6.22235717370624e-001

5.06302637588109e+004,-1.57804899088298e+001,-6.30885639867869e-001

5.13370359025159e+004,-1.57805355812896e+001,-6.39654808478903e-001

5.20536742176771e+004,-1.57805824964045e+001,-6.48544826371918e-001

5.27803164309155e+004,-1.57806306868119e+001,-6.57557316650299e-001

5.35171021914442e+004,-1.57806801859409e+001,-6.66693922537507e-001

5.42641730979066e+004,-1.57807310280278e+001,-6.75956307561090e-001

5.50216727255895e+004,-1.57807832481316e+001,-6.85346155739913e-001

5.57897466540159e+004,-1.57808368821499e+001,-6.94865171763080e-001

5.65685424949235e+004,-1.57808919668342e+001,-7.04515081177968e-001

5.73582099206328e+004,-1.57809485398062e+001,-7.14297630568967e-001

5.81589006928121e+004,-1.57810066395730e+001,-7.24214587739938e-001

5.89707686916437e+004,-1.57810663055435e+001,-7.34267741892362e-001

5.97939699453972e+004,-1.57811275780437e+001,-7.44458903804709e-001

6.06286626604156e+004,-1.57811904983327e+001,-7.54789906010108e-001

6.14750072515201e+004,-1.57812551086181e+001,-7.65262602970959e-001

6.23331663728396e+004,-1.57813214520719e+001,-7.75878871252778e-001

6.32033049490698e+004,-1.57813895728458e+001,-7.86640609699045e-001

6.40855902071694e+004,-1.57814595160865e+001,-7.97549739597459e-001

6.49801917084985e+004,-1.57815313279506e+001,-8.08608204854334e-001

6.58872813814055e+004,-1.57816050556204e+001,-8.19817972155776e-001

6.68070335542691e+004,-1.57816807473174e+001,-8.31181031137303e-001

6.77396249890018e+004,-1.57817584523176e+001,-8.42699394544013e-001

6.86852349150199e+004,-1.57818382209653e+001,-8.54375098389868e-001

6.96440450636895e+004,-1.57819201046864e+001,-8.66210202120792e-001

7.06162397032520e+004,-1.57820041560028e+001,-8.78206788764090e-001

7.16020056742374e+004,-1.57820904285443e+001,-8.90366965086872e-001

7.26015324253724e+004,-1.57821789770614e+001,-9.02692861742793e-001

7.36150120499896e+004,-1.57822698574371e+001,-9.15186633424280e-001

7.46426393229441e+004,-1.57823631266983e+001,-9.27850459004556e-001

7.56846117380472e+004,-1.57824588430263e+001,-9.40686541681331e-001

7.67411295460207e+004,-1.57825570657667e+001,-9.53697109118248e-001

7.78123957929823e+004,-1.57826578554385e+001,-9.66884413580443e-001

7.88986163594682e+004,-1.57827612737428e+001,-9.80250732069775e-001

7.99999999999995e+004,-1.57828673835697e+001,-9.93798366455519e-001

8.11167583832018e+004,-1.57829762490053e+001,-1.00752964360420e+000

8.22491061324848e+004,-1.57830879353366e+001,-1.02144691550573e+000

8.33972608672892e+004,-1.57832025090563e+001,-1.03555255939587e+000

8.45614432449099e+004,-1.57833200378660e+001,-1.04984897787643e+000

8.57418770029029e+004,-1.57834405906776e+001,-1.06433859903505e+000

8.69387890020841e+004,-1.57835642376145e+001,-1.07902387655846e+000

8.81524092701283e+004,-1.57836910500101e+001,-1.09390728984796e+000

8.93829710457770e+004,-1.57838211004061e+001,-1.10899134412752e+000

9.06307108236633e+004,-1.57839544625481e+001,-1.12427857055409e+000

9.18958683997622e+004,-1.57840912113799e+001,-1.13977152632469e+000

9.31786869174758e+004,-1.57842314230362e+001,-1.15547279478030e+000

9.44794129143618e+004,-1.57843751748335e+001,-1.17138498550953e+000

9.57982963695136e+004,-1.57845225452580e+001,-1.18751073445238e+000

9.71355907516031e+004,-1.57846736139527e+001,-1.20385270400113e+000

9.84915530675926e+004,-1.57848284617021e+001,-1.22041358309995e+000

9.98664439121282e+004,-1.57849871704132e+001,-1.23719608734876e+000

1.01260527517622e+005,-1.57851498230959e+001,-1.25420295910322e+000

1.02674071805032e+005,-1.57853165038398e+001,-1.27143696757647e+000

1.04107348435354e+005,-1.57854872977889e+001,-1.28890090894291e+000

1.05560632861831e+005,-1.57856622911126e+001,-1.30659760644493e+000

1.07034204382888e+005,-1.57858415709755e+001,-1.32452991049873e+000

1.08528346195813e+005,-1.57860252255018e+001,-1.34270069880843e+000

1.10043345451179e+005,-1.57862133437395e+001,-1.36111287647740e+000

1.11579493308032e+005,-1.57864060156185e+001,-1.37976937613271e+000

1.13137084989847e+005,-1.57866033319075e+001,-1.39867315804685e+000

1.14716419841265e+005,-1.57868053841662e+001,-1.41782721027100e+000

1.16317801385624e+005,-1.57870122646946e+001,-1.43723454877514e+000

1.17941537383287e+005,-1.57872240664779e+001,-1.45689821759525e+000

1.19587939890794e+005,-1.57874408831285e+001,-1.47682128899092e+000

1.21257325320831e+005,-1.57876628088232e+001,-1.49700686361299e+000

1.22950014503040e+005,-1.57878899382371e+001,-1.51745807068444e+000

1.24666332745679e+005,-1.57881223664728e+001,-1.53817806819429e+000

1.26406609898139e+005,-1.57883601889857e+001,-1.55917004310470e+000

1.28171180414339e+005,-1.57886035015047e+001,-1.58043721157643e+000

1.29960383416997e+005,-1.57888523999495e+001,-1.60198281920974e+000

1.31774562762811e+005,-1.57891069803415e+001,-1.62381014130757e+000

1.33614067108538e+005,-1.57893673387123e+001,-1.64592248315525e+000

1.35479249978003e+005,-1.57896335710060e+001,-1.66832318032928e+000

1.37370469830040e+005,-1.57899057729779e+001,-1.69101559902303e+000

1.39288090127379e+005,-1.57901840400876e+001,-1.71400313640656e+000

1.41232479406504e+005,-1.57904684673884e+001,-1.73728922100903e+000

1.43204011348474e+005,-1.57907591494111e+001,-1.76087731313476e+000

1.45203064850745e+005,-1.57910561800436e+001,-1.78477090531244e+000

1.47230024099979e+005,-1.57913596524053e+001,-1.80897352277588e+000

1.49285278645888e+005,-1.57916696587177e+001,-1.83348872398612e+000

1.51369223476094e+005,-1.57919862901693e+001,-1.85832010119009e+000

1.53482259092041e+005,-1.57923096367767e+001,-1.88347128102139e+000

1.55624791585964e+005,-1.57926397872408e+001,-1.90894592514815e+000

1.57797232718936e+005,-1.57929768287993e+001,-1.93474773096242e+000

1.59999999999999e+005,-1.57933208470738e+001,-1.96088043232483e+000

1.62233516766403e+005,-1.57936719259141e+001,-1.98734780035611e+000

1.64498212264969e+005,-1.57940301472378e+001,-2.01415364428582e+000

1.66794521734578e+005,-1.57943955908663e+001,-2.04130181235697e+000

1.69122886489819e+005,-1.57947683343578e+001,-2.06879619278886e+000

1.71483754005805e+005,-1.57951484528363e+001,-2.09664071480594e+000

1.73877578004168e+005,-1.57955360188186e+001,-2.12483934972591e+000

1.76304818540256e+005,-1.57959311020379e+001,-2.15339611211885e+000

1.78765942091554e+005,-1.57963337692653e+001,-2.18231506103495e+000

1.81261421647326e+005,-1.57967440841299e+001,-2.21160030130328e+000

1.83791736799524e+005,-1.57971621069367e+001,-2.24125598490539e+000

1.86357373834951e+005,-1.57975878944837e+001,-2.27128631242611e+000

1.88958825828723e+005,-1.57980214998785e+001,-2.30169553458231e+000

1.91596592739027e+005,-1.57984629723546e+001,-2.33248795383232e+000

1.94271181503206e+005,-1.57989123570880e+001,-2.36366792606941e+000

1.96983106135185e+005,-1.57993696950153e+001,-2.39523986239728e+000

1.99732887824256e+005,-1.57998350226519e+001,-2.42720823099407e+000

2.02521055035243e+005,-1.58003083719143e+001,-2.45957755906198e+000

2.05348143610063e+005,-1.58007897699433e+001,-2.49235243486661e+000

2.08214696870707e+005,-1.58012792389317e+001,-2.52553750986533e+000

2.11121265723661e+005,-1.58017767959555e+001,-2.55913750092602e+000

2.14068408765776e+005,-1.58022824528104e+001,-2.59315719263731e+000

2.17056692391625e+005,-1.58027962158528e+001,-2.62760143970892e+000

2.20086690902357e+005,-1.58033180858482e+001,-2.66247516946377e+000

2.23158986616063e+005,-1.58038480578257e+001,-2.69778338442074e+000

2.26274169979693e+005,-1.58043861209404e+001,-2.73353116496638e+000

2.29432839682530e+005,-1.58049322583446e+001,-2.76972367211718e+000

2.32635602771247e+005,-1.58054864470677e+001,-2.80636615036892e+000

2.35883074766574e+005,-1.58060486579065e+001,-2.84346393063128e+000

2.39175879781588e+005,-1.58066188553265e+001,-2.88102243324666e+000

2.42514650641661e+005,-1.58071969973740e+001,-2.91904717109186e+000

2.45900029006080e+005,-1.58077830356012e+001,-2.95754375275640e+000

2.49332665491357e+005,-1.58083769150041e+001,-2.99651788579826e+000

2.52813219796278e+005,-1.58089785739745e+001,-3.03597538006992e+000

2.56342360828676e+005,-1.58095879442652e+001,-3.07592215111489e+000

2.59920766833993e+005,-1.58102049509726e+001,-3.11636422362529e+000

2.63549125525621e+005,-1.58108295125326e+001,-3.15730773496198e+000

2.67228134217075e+005,-1.58114615407348e+001,-3.19875893872558e+000

2.70958499956006e+005,-1.58121009407521e+001,-3.24072420838018e+000

2.74740939660078e+005,-1.58127476111894e+001,-3.28321004091703e+000

2.78576180254757e+005,-1.58134014441480e+001,-3.32622306055784e+000

2.82464958813007e+005,-1.58140623253107e+001,-3.36977002248886e+000

2.86408022696948e+005,-1.58147301340433e+001,-3.41385781662031e+000

2.90406129701488e+005,-1.58154047435164e+001,-3.45849347136242e+000

2.94460048199957e+005,-1.58160860208459e+001,-3.50368415741408e+000

2.98570557291775e+005,-1.58167738272525e+001,-3.54943719155577e+000

3.02738446952187e+005,-1.58174680182406e+001,-3.59576004043816e+000

3.06964518184081e+005,-1.58181684437964e+001,-3.64266032436244e+000

3.11249583171928e+005,-1.58188749486055e+001,-3.69014582104028e+000

3.15594465437872e+005,-1.58195873722891e+001,-3.73822446933193e+000

3.19999999999997e+005,-1.58203055496586e+001,-3.78690437294923e+000

3.24467033532806e+005,-1.58210293109897e+001,-3.83619380412046e+000

3.28996424529938e+005,-1.58217584823135e+001,-3.88610120720758e+000

3.33589043469155e+005,-1.58224928857248e+001,-3.93663520227073e+000

3.38245772979638e+005,-1.58232323397085e+001,-3.98780458857042e+000

3.42967508011610e+005,-1.58239766594813e+001,-4.03961834800347e+000

3.47755156008335e+005,-1.58247256573484e+001,-4.09208564846586e+000

3.52609637080511e+005,-1.58254791430765e+001,-4.14521584713399e+000

3.57531884183106e+005,-1.58262369242787e+001,-4.19901849366261e+000

3.62522843294651e+005,-1.58269988068132e+001,-4.25350333329238e+000

3.67583473599047e+005,-1.58277645951943e+001,-4.30868030985991e+000

3.72714747669902e+005,-1.58285340930123e+001,-4.36455956871119e+000

3.77917651657445e+005,-1.58293071033652e+001,-4.42115145950968e+000

3.83193185478053e+005,-1.58300834292973e+001,-4.47846653893904e+000

3.88542363006410e+005,-1.58308628742457e+001,-4.53651557329494e+000

3.93966212270369e+005,-1.58316452424926e+001,-4.59530954096739e+000

3.99465775648511e+005,-1.58324303396225e+001,-4.65485963480824e+000

4.05042110070485e+005,-1.58332179729828e+001,-4.71517726438640e+000

4.10696287220124e+005,-1.58340079521464e+001,-4.77627405812703e+000

4.16429393741414e+005,-1.58348000893755e+001,-4.83816186533832e+000

4.22242531447321e+005,-1.58355942000850e+001,-4.90085275812411e+000

4.28136817531551e+005,-1.58363901033037e+001,-4.96435903318561e+000

4.34113384783250e+005,-1.58371876221336e+001,-5.02869321351308e+000

4.40173381804713e+005,-1.58379865842036e+001,-5.09386804997207e+000

4.46317973232124e+005,-1.58387868221195e+001,-5.15989652278496e+000

4.52548339959385e+005,-1.58395881739064e+001,-5.22679184291333e+000

4.58865679365059e+005,-1.58403904834435e+001,-5.29456745334578e+000

4.65271205542494e+005,-1.58411936008910e+001,-5.36323703029557e+000

4.71766149533147e+005,-1.58419973831066e+001,-5.43281448431259e+000

4.78351759563174e+005,-1.58428016940516e+001,-5.50331396131743e+000

4.85029301283321e+005,-1.58436064051861e+001,-5.57474984356175e+000

4.91800058012158e+005,-1.58444113958511e+001,-5.64713675052255e+000

4.98665330982714e+005,-1.58452165536377e+001,-5.72048953973877e+000

5.05626439592555e+005,-1.58460217747441e+001,-5.79482330759262e+000

5.12684721657352e+005,-1.58468269643160e+001,-5.87015339004994e+000

5.19841533667984e+005,-1.58476320367750e+001,-5.94649536336027e+000

5.27098251051240e+005,-1.58484369161296e+001,-6.02386504473000e+000

5.34456268434150e+005,-1.58492415362726e+001,-6.10227849297202e+000

5.41916999912011e+005,-1.58500458412621e+001,-6.18175200914423e+000

