Freq.,VOut,OutRef

1.00000000000000e+004,-2.19668637738896e+001,-4.84305313858324e-001

1.01395947979003e+004,-2.19668683462217e+001,-4.91065575610922e-001

1.02811382665607e+004,-2.19668730470236e+001,-4.97920190616098e-001

1.04246576084112e+004,-2.19668778799028e+001,-5.04870475297347e-001

1.05701804056138e+004,-2.19668828485678e+001,-5.11917764424583e-001

1.07177346253629e+004,-2.19668879568314e+001,-5.19063411369665e-001

1.08673486252606e+004,-2.19668932086131e+001,-5.26308788365229e-001

1.10190511587661e+004,-2.19668986079423e+001,-5.33655286764926e-001

1.11728713807222e+004,-2.19669041589615e+001,-5.41104317310699e-001

1.13288388529580e+004,-2.19669098659291e+001,-5.48657310401606e-001

1.14869835499703e+004,-2.19669157332233e+001,-5.56315716365628e-001

1.16473358646846e+004,-2.19669217653444e+001,-5.64081005738160e-001

1.18099266142953e+004,-2.19669279669195e+001,-5.71954669539136e-001

1.19747870461893e+004,-2.19669343427049e+001,-5.79938219561468e-001

1.21419488439505e+004,-2.19669408975906e+001,-5.88033188655726e-001

1.23114441334492e+004,-2.19669476366031e+001,-5.96241131024321e-001

1.24833054890161e+004,-2.19669545649102e+001,-6.04563622516748e-001

1.26575659397028e+004,-2.19669616878242e+001,-6.13002260929699e-001

1.28342589756290e+004,-2.19669690108065e+001,-6.21558666310659e-001

1.30134185544193e+004,-2.19669765394711e+001,-6.30234481268178e-001

1.31950791077289e+004,-2.19669842795896e+001,-6.39031371282798e-001

1.33792755478611e+004,-2.19669922370949e+001,-6.47951025024336e-001

1.35660432744767e+004,-2.19670004180863e+001,-6.56995154673113e-001

1.37554181813974e+004,-2.19670088288338e+001,-6.66165496245817e-001

1.39474366635040e+004,-2.19670174757829e+001,-6.75463809925205e-001

1.41421356237309e+004,-2.19670263655594e+001,-6.84891880394315e-001

1.43395524801583e+004,-2.19670355049747e+001,-6.94451517176243e-001

1.45397251732031e+004,-2.19670449010310e+001,-7.04144554976617e-001

1.47426921729110e+004,-2.19670545609259e+001,-7.13972854033859e-001

1.49484924863494e+004,-2.19670644920588e+001,-7.23938300470105e-001

1.51571656651040e+004,-2.19670747020360e+001,-7.34042806650076e-001

1.53687518128801e+004,-2.19670851986765e+001,-7.44288311543600e-001

1.55832915932100e+004,-2.19670959900181e+001,-7.54676781093380e-001

1.58008262372675e+004,-2.19671070843229e+001,-7.65210208587502e-001

1.60213975517924e+004,-2.19671184900847e+001,-7.75890615036080e-001

1.62450479271247e+004,-2.19671302160342e+001,-7.86720049555416e-001

1.64718203453514e+004,-2.19671422711463e+001,-7.97700589755477e-001

1.67017583885674e+004,-2.19671546646465e+001,-8.08834342131873e-001

1.69349062472505e+004,-2.19671674060184e+001,-8.20123442465393e-001

1.71713087287550e+004,-2.19671805050103e+001,-8.31570056225055e-001

1.74110112659224e+004,-2.19671939716427e+001,-8.43176378978655e-001

1.76540599258131e+004,-2.19672078162160e+001,-8.54944636804742e-001

1.79005014185594e+004,-2.19672220493182e+001,-8.66877086714941e-001

1.81503831063432e+004,-2.19672366818330e+001,-8.78976017079207e-001

1.84037530124975e+004,-2.19672517249474e+001,-8.91243748057766e-001

1.86606598307361e+004,-2.19672671901609e+001,-9.03682632037577e-001

1.89211529345119e+004,-2.19672830892938e+001,-9.16295054075328e-001

1.91852823865052e+004,-2.19672994344959e+001,-9.29083432347265e-001

1.94530989482457e+004,-2.19673162382558e+001,-9.42050218604448e-001

1.97246540898671e+004,-2.19673335134104e+001,-9.55197898632233e-001

1.99999999999999e+004,-2.19673512731541e+001,-9.68528992719182e-001

2.02791895958005e+004,-2.19673695310493e+001,-9.82046056128429e-001

2.05622765331213e+004,-2.19673883010360e+001,-9.95751679579754e-001

2.08493152168224e+004,-2.19674075974424e+001,-1.00964848973364e+000

2.11403608112276e+004,-2.19674274349956e+001,-1.02373914968444e+000

2.14354692507258e+004,-2.19674478288330e+001,-1.03802635945842e+000

2.17346972505211e+004,-2.19674687945127e+001,-1.05251285652047e+000

2.20381023175322e+004,-2.19674903480260e+001,-1.06720141628454e+000

2.23457427614443e+004,-2.19675125058086e+001,-1.08209485263456e+000

2.26576777059159e+004,-2.19675352847537e+001,-1.09719601844701e+000

2.29739670999406e+004,-2.19675587022234e+001,-1.11250780612671e+000

2.32946717293690e+004,-2.19675827760626e+001,-1.12803314814303e+000

2.36198532285905e+004,-2.19676075246117e+001,-1.14377501757787e+000

2.39495740923785e+004,-2.19676329667204e+001,-1.15973642867987e+000

2.42838976879009e+004,-2.19676591217617e+001,-1.17592043742269e+000

2.46228882668982e+004,-2.19676860096459e+001,-1.19233014207492e+000

2.49666109780322e+004,-2.19677136508358e+001,-1.20896868377454e+000

2.53151318794055e+004,-2.19677420663613e+001,-1.22583924711172e+000

2.56685179512580e+004,-2.19677712778354e+001,-1.24294506071805e+000

2.60268371088386e+004,-2.19678013074698e+001,-1.26028939786526e+000

2.63901582154578e+004,-2.19678321780912e+001,-1.27787557707050e+000

2.67585510957221e+004,-2.19678639131583e+001,-1.29570696270828e+000

2.71320865489533e+004,-2.19678965367788e+001,-1.31378696563237e+000

2.75108363627948e+004,-2.19679300737272e+001,-1.33211904380399e+000

2.78948733270080e+004,-2.19679645494629e+001,-1.35070670292870e+000

2.82842712474618e+004,-2.19679999901488e+001,-1.36955349710037e+000

2.86791049603164e+004,-2.19680364226701e+001,-1.38866302945520e+000

2.90794503464061e+004,-2.19680738746546e+001,-1.40803895283166e+000

2.94853843458219e+004,-2.19681123744920e+001,-1.42768497044048e+000

2.98969849726987e+004,-2.19681519513550e+001,-1.44760483654110e+000

3.03143313302078e+004,-2.19681926352202e+001,-1.46780235712951e+000

3.07375036257601e+004,-2.19682344568903e+001,-1.48828139063124e+000

3.11665831864199e+004,-2.19682774480155e+001,-1.50904584860494e+000

3.16016524745350e+004,-2.19683216411171e+001,-1.53009969645459e+000

3.20427951035848e+004,-2.19683670696106e+001,-1.55144695414962e+000

3.24900958542493e+004,-2.19684137678298e+001,-1.57309169695400e+000

3.29436406907028e+004,-2.19684617710514e+001,-1.59503805616496e+000

3.34035167771346e+004,-2.19685111155202e+001,-1.61729021985972e+000

3.38698124945009e+004,-2.19685618384750e+001,-1.63985243365314e+000

3.43426174575100e+004,-2.19686139781756e+001,-1.66272900146003e+000

3.48220225318448e+004,-2.19686675739292e+001,-1.68592428627276e+000

3.53081198516260e+004,-2.19687226661190e+001,-1.70944271094340e+000

3.58010028371187e+004,-2.19687792962326e+001,-1.73328875897688e+000

3.63007662126863e+004,-2.19688375068914e+001,-1.75746697533408e+000

3.68075060249948e+004,-2.19688973418803e+001,-1.78198196724366e+000

3.73213196614721e+004,-2.19689588461792e+001,-1.80683840502239e+000

3.78423058690237e+004,-2.19690220659938e+001,-1.83204102290799e+000

3.83705647730104e+004,-2.19690870487886e+001,-1.85759461989831e+000

3.89061978964912e+004,-2.19691538433196e+001,-1.88350406060319e+000

3.94493081797342e+004,-2.19692224996685e+001,-1.90977427610348e+000

3.99999999999998e+004,-2.19692930692772e+001,-1.93641026482145e+000

4.05583791916010e+004,-2.19693656049839e+001,-1.96341709340187e+000

4.11245530662425e+004,-2.19694401610592e+001,-1.99079989759986e+000

4.16986304336447e+004,-2.19695167932433e+001,-2.01856388318302e+000

4.22807216224550e+004,-2.19695955587849e+001,-2.04671432684017e+000

4.28709385014515e+004,-2.19696765164797e+001,-2.07525657710255e+000

4.34693945010421e+004,-2.19697597267108e+001,-2.10419605527295e+000

4.40762046350642e+004,-2.19698452514897e+001,-2.13353825636789e+000

4.46914855228886e+004,-2.19699331544984e+001,-2.16328875006688e+000

4.53153554118317e+004,-2.19700235011319e+001,-2.19345318167545e+000

4.59479341998812e+004,-2.19701163585427e+001,-2.22403727309512e+000

4.65893434587380e+004,-2.19702117956858e+001,-2.25504682380692e+000

4.72397064571810e+004,-2.19703098833641e+001,-2.28648771186240e+000

4.78991481847569e+004,-2.19704106942760e+001,-2.31836589488823e+000

4.85677953758016e+004,-2.19705143030634e+001,-2.35068741109860e+000

4.92457765337964e+004,-2.19706207863607e+001,-2.38345838031949e+000

4.99332219560642e+004,-2.19707302228454e+001,-2.41668500502393e+000

5.06302637588109e+004,-2.19708426932891e+001,-2.45037357137707e+000

5.13370359025159e+004,-2.19709582806104e+001,-2.48453045029152e+000

5.20536742176771e+004,-2.19710770699284e+001,-2.51916209849528e+000

5.27803164309155e+004,-2.19711991486176e+001,-2.55427505960818e+000

5.35171021914442e+004,-2.19713246063637e+001,-2.58987596523018e+000

5.42641730979066e+004,-2.19714535352211e+001,-2.62597153604031e+000

5.50216727255895e+004,-2.19715860296711e+001,-2.66256858290693e+000

5.57897466540159e+004,-2.19717221866816e+001,-2.69967400800698e+000

5.65685424949235e+004,-2.19718621057677e+001,-2.73729480595830e+000

5.73582099206328e+004,-2.19720058890546e+001,-2.77543806496054e+000

5.81589006928121e+004,-2.19721536413398e+001,-2.81411096794901e+000

5.89707686916437e+004,-2.19723054701584e+001,-2.85332079375881e+000

5.97939699453972e+004,-2.19724614858492e+001,-2.89307491829759e+000

6.06286626604156e+004,-2.19726218016213e+001,-2.93338081573222e+000

6.14750072515201e+004,-2.19727865336231e+001,-2.97424605968502e+000

6.23331663728396e+004,-2.19729558010118e+001,-3.01567832444099e+000

6.32033049490698e+004,-2.19731297260247e+001,-3.05768538616471e+000

6.40855902071694e+004,-2.19733084340517e+001,-3.10027512413132e+000

6.49801917084985e+004,-2.19734920537090e+001,-3.14345552196360e+000

6.58872813814055e+004,-2.19736807169140e+001,-3.18723466888547e+000

6.68070335542691e+004,-2.19738745589623e+001,-3.23162076098153e+000

6.77396249890018e+004,-2.19740737186051e+001,-3.27662210247054e+000

6.86852349150199e+004,-2.19742783381287e+001,-3.32224710698868e+000

6.96440450636895e+004,-2.19744885634347e+001,-3.36850429888366e+000

7.06162397032520e+004,-2.19747045441219e+001,-3.41540231452127e+000

7.16020056742374e+004,-2.19749264335700e+001,-3.46294990360016e+000

7.26015324253724e+004,-2.19751543890234e+001,-3.51115593048055e+000

7.36150120499896e+004,-2.19753885716780e+001,-3.56002937552192e+000

7.46426393229441e+004,-2.19756291467677e+001,-3.60957933643333e+000

7.56846117380472e+004,-2.19758762836533e+001,-3.65981502963347e+000

7.67411295460207e+004,-2.19761301559124e+001,-3.71074579162321e+000

7.78123957929823e+004,-2.19763909414308e+001,-3.76238108036836e+000

7.88986163594682e+004,-2.19766588224944e+001,-3.81473047669457e+000

7.99999999999995e+004,-2.19769339858840e+001,-3.86780368569306e+000

8.11167583832018e+004,-2.19772166229692e+001,-3.92161053813863e+000

8.22491061324848e+004,-2.19775069298058e+001,-3.97616099191788e+000

8.33972608672892e+004,-2.19778051072325e+001,-4.03146513347123e+000

8.45614432449099e+004,-2.19781113609705e+001,-4.08753317924498e+000

8.57418770029029e+004,-2.19784259017230e+001,-4.14437547715588e+000

8.69387890020841e+004,-2.19787489452761e+001,-4.20200250806943e+000

8.81524092701283e+004,-2.19790807126019e+001,-4.26042488728775e+000

8.93829710457770e+004,-2.19794214299614e+001,-4.31965336605292e+000

9.06307108236633e+004,-2.19797713290091e+001,-4.37969883306095e+000

9.18958683997622e+004,-2.19801306468987e+001,-4.44057231599090e+000

9.31786869174758e+004,-2.19804996263898e+001,-4.50228498304525e+000

9.44794129143618e+004,-2.19808785159554e+001,-4.56484814450569e+000

9.57982963695136e+004,-2.19812675698909e+001,-4.62827325430253e+000

9.71355907516031e+004,-2.19816670484233e+001,-4.69257191159795e+000

9.84915530675926e+004,-2.19820772178219e+001,-4.75775586238455e+000

9.98664439121282e+004,-2.19824983505099e+001,-4.82383700109992e+000

1.01260527517622e+005,-2.19829307251764e+001,-4.89082737225503e+000

1.02674071805032e+005,-2.19833746268895e+001,-4.95873917208163e+000

1.04107348435354e+005,-2.19838303472104e+001,-5.02758475019379e+000

1.05560632861831e+005,-2.19842981843078e+001,-5.09737661126916e+000

1.07034204382888e+005,-2.19847784430733e+001,-5.16812741674666e+000

1.08528346195813e+005,-2.19852714352377e+001,-5.23984998654388e+000

1.10043345451179e+005,-2.19857774794874e+001,-5.31255730079450e+000

1.11579493308032e+005,-2.19862969015819e+001,-5.38626250160477e+000

1.13137084989847e+005,-2.19868300344720e+001,-5.46097889483244e+000

1.14716419841265e+005,-2.19873772184179e+001,-5.53671995188725e+000

1.16317801385624e+005,-2.19879388011092e+001,-5.61349931155465e+000

1.17941537383287e+005,-2.19885151377839e+001,-5.69133078184340e+000

1.19587939890794e+005,-2.19891065913493e+001,-5.77022834185946e+000

1.21257325320831e+005,-2.19897135325028e+001,-5.85020614370474e+000

1.22950014503040e+005,-2.19903363398533e+001,-5.93127851440440e+000

1.24666332745679e+005,-2.19909754000437e+001,-6.01345995786311e+000

1.26406609898139e+005,-2.19916311078732e+001,-6.09676515685070e+000

1.28171180414339e+005,-2.19923038664214e+001,-6.18120897502043e+000

1.29960383416997e+005,-2.19929940871719e+001,-6.26680645895922e+000

1.31774562762811e+005,-2.19937021901374e+001,-6.35357284027362e+000

1.33614067108538e+005,-2.19944286039858e+001,-6.44152353771099e+000

1.35479249978003e+005,-2.19951737661663e+001,-6.53067415931904e+000

1.37370469830040e+005,-2.19959381230377e+001,-6.62104050464481e+000

1.39288090127379e+005,-2.19967221299966e+001,-6.71263856697459e+000

1.41232479406504e+005,-2.19975262516079e+001,-6.80548453561804e+000

1.43204011348474e+005,-2.19983509617362e+001,-6.89959479823554e+000

1.45203064850745e+005,-2.19991967436785e+001,-6.99498594321452e+000

1.47230024099979e+005,-2.20000640902993e+001,-7.09167476209297e+000

1.49285278645888e+005,-2.20009535041671e+001,-7.18967825203481e+000

1.51369223476094e+005,-2.20018654976931e+001,-7.28901361835815e+000

1.53482259092041e+005,-2.20028005932729e+001,-7.38969827711815e+000

1.55624791585964e+005,-2.20037593234301e+001,-7.49174985774718e+000

1.57797232718936e+005,-2.20047422309633e+001,-7.59518620575407e+000

1.59999999999999e+005,-2.20057498690965e+001,-7.70002538548547e+000

1.62233516766403e+005,-2.20067828016335e+001,-7.80628568294887e+000

1.64498212264969e+005,-2.20078416031152e+001,-7.91398560870315e+000

1.66794521734578e+005,-2.20089268589827e+001,-8.02314390081461e+000

1.69122886489819e+005,-2.20100391657450e+001,-8.13377952788405e+000

1.71483754005805e+005,-2.20111791311517e+001,-8.24591169214434e+000

1.73877578004168e+005,-2.20123473743722e+001,-8.35955983263175e+000

1.76304818540256e+005,-2.20135445261811e+001,-8.47474362843192e+000

1.78765942091554e+005,-2.20147712291508e+001,-8.59148300200304e+000

1.81261421647326e+005,-2.20160281378521e+001,-8.70979812257711e+000

1.83791736799524e+005,-2.20173159190627e+001,-8.82970940964028e+000

1.86357373834951e+005,-2.20186352519852e+001,-8.95123753649559e+000

1.88958825828723e+005,-2.20199868284749e+001,-9.07440343390608e+000

1.91596592739027e+005,-2.20213713532778e+001,-9.19922829382227e+000

1.94271181503206e+005,-2.20227895442808e+001,-9.32573357319186e+000

1.96983106135185e+005,-2.20242421327731e+001,-9.45394099785474e+000

1.99732887824256e+005,-2.20257298637218e+001,-9.58387256652114e+000

2.02521055035243e+005,-2.20272534960605e+001,-9.71555055483450e+000

2.05348143610063e+005,-2.20288138029939e+001,-9.84899751951724e+000

2.08214696870707e+005,-2.20304115723171e+001,-9.98423630260028e+000

2.11121265723661e+005,-2.20320476067532e+001,-1.01212900357337e+001

2.14068408765776e+005,-2.20337227243074e+001,-1.02601821445773e+001

2.17056692391625e+005,-2.20354377586415e+001,-1.04009363532713e+001

2.20086690902357e+005,-2.20371935594670e+001,-1.05435766889803e+001

2.23158986616063e+005,-2.20389909929606e+001,-1.06881274865137e+001

2.26274169979693e+005,-2.20408309422005e+001,-1.08346133930139e+001

2.29432839682530e+005,-2.20427143076277e+001,-1.09830593727129e+001

2.32635602771247e+005,-2.20446420075300e+001,-1.11334907117497e+001

2.35883074766574e+005,-2.20466149785523e+001,-1.12859330230470e+001

2.39175879781588e+005,-2.20486341762333e+001,-1.14404122512398e+001

2.42514650641661e+005,-2.20507005755700e+001,-1.15969546776508e+001

2.45900029006080e+005,-2.20528151716108e+001,-1.17555869253075e+001

2.49332665491357e+005,-2.20549789800778e+001,-1.19163359639923e+001

2.52813219796278e+005,-2.20571930380211e+001,-1.20792291153199e+001

2.56342360828676e+005,-2.20594584045034e+001,-1.22442940578337e+001

2.59920766833993e+005,-2.20617761613184e+001,-1.24115588321127e+001

2.63549125525621e+005,-2.20641474137424e+001,-1.25810518458794e+001

2.67228134217075e+005,-2.20665732913202e+001,-1.27528018791005e+001

2.70958499956006e+005,-2.20690549486865e+001,-1.29268380890700e+001

2.74740939660078e+005,-2.20715935664231e+001,-1.31031900154628e+001

2.78576180254757e+005,-2.20741903519531e+001,-1.32818875853500e+001

2.82464958813007e+005,-2.20768465404716e+001,-1.34629611181636e+001

2.86408022696948e+005,-2.20795633959154e+001,-1.36464413305973e+001

2.90406129701488e+005,-2.20823422119694e+001,-1.38323593414339e+001

2.94460048199957e+005,-2.20851843131127e+001,-1.40207466762837e+001

2.98570557291775e+005,-2.20880910557028e+001,-1.42116352722227e+001

3.02738446952187e+005,-2.20910638290993e+001,-1.44050574823166e+001

3.06964518184081e+005,-2.20941040568257e+001,-1.46010460800176e+001

3.11249583171928e+005,-2.20972131977710e+001,-1.47996342634182e+001

3.15594465437872e+005,-2.21003927474293e+001,-1.50008556593495e+001

3.19999999999997e+005,-2.21036442391781e+001,-1.52047443273108e+001

3.24467033532806e+005,-2.21069692455948e+001,-1.54113347632122e+001

3.28996424529938e+005,-2.21103693798100e+001,-1.56206619029205e+001

3.33589043469155e+005,-2.21138462968988e+001,-1.58327611255901e+001

3.38245772979638e+005,-2.21174016953063e+001,-1.60476682567667e+001

3.42967508011610e+005,-2.21210373183107e+001,-1.62654195712488e+001

3.47755156008335e+005,-2.21247549555181e+001,-1.64860517956919e+001

3.52609637080511e+005,-2.21285564443925e+001,-1.67096021109429e+001

3.57531884183106e+005,-2.21324436718159e+001,-1.69361081540900e+001

3.62522843294651e+005,-2.21364185756803e+001,-1.71656080202139e+001

3.67583473599047e+005,-2.21404831465075e+001,-1.73981402638282e+001

3.72714747669902e+005,-2.21446394290972e+001,-1.76337438999953e+001

3.77917651657445e+005,-2.21488895242010e+001,-1.78724584051056e+001

3.83193185478053e+005,-2.21532355902193e+001,-1.81143237173072e+001

3.88542363006410e+005,-2.21576798449217e+001,-1.83593802365753e+001

3.93966212270369e+005,-2.21622245671871e+001,-1.86076688244092e+001

3.99465775648511e+005,-2.21668720987618e+001,-1.88592308031469e+001

4.05042110070485e+005,-2.21716248460340e+001,-1.91141079548860e+001

4.10696287220124e+005,-2.21764852818220e+001,-1.93723425200029e+001

4.16429393741414e+005,-2.21814559471746e+001,-1.96339771952586e+001

4.22242531447321e+005,-2.21865394531797e+001,-1.98990551314857e+001

4.28136817531551e+005,-2.21917384827814e+001,-2.01676199308450e+001

4.34113384783250e+005,-2.21970557926005e+001,-2.04397156436477e+001

4.40173381804713e+005,-2.22024942147574e+001,-2.07153867647324e+001

4.46317973232124e+005,-2.22080566586950e+001,-2.09946782293954e+001

4.52548339959385e+005,-2.22137461129979e+001,-2.12776354088626e+001

4.58865679365059e+005,-2.22195656472066e+001,-2.15643041053038e+001

4.65271205542494e+005,-2.22255184136237e+001,-2.18547305463783e+001

4.71766149533147e+005,-2.22316076491079e+001,-2.21489613793135e+001

4.78351759563174e+005,-2.22378366768566e+001,-2.24470436645085e+001

4.85029301283321e+005,-2.22442089081704e+001,-2.27490248686601e+001

4.91800058012158e+005,-2.22507278441998e+001,-2.30549528574108e+001

4.98665330982714e+005,-2.22573970776695e+001,-2.33648758875126e+001

5.05626439592555e+005,-2.22642202945788e+001,-2.36788425985071e+001

5.12684721657352e+005,-2.22712012758741e+001,-2.39969020039195e+001

5.19841533667984e+005,-2.22783438990920e+001,-2.43191034819647e+001

5.27098251051240e+005,-2.22856521399688e+001,-2.46454967657659e+001

5.34456268434150e+005,-2.22931300740144e+001,-2.49761319330831e+001

5.41916999912011e+005,-2.23007818780471e+001,-2.53110593955537e+001

