Freq.,VOut,OutRef

1.00000000000000e+004,-1.67034267372134e+001,-1.54258131017828e-001

1.01395947979003e+004,-1.67034278866626e+001,-1.56411323533322e-001

1.02811382665607e+004,-1.67034290683899e+001,-1.58594566250432e-001

1.04246576084112e+004,-1.67034302833005e+001,-1.60808278348564e-001

1.05701804056138e+004,-1.67034315323248e+001,-1.63052884844816e-001

1.07177346253629e+004,-1.67034328164199e+001,-1.65328816673902e-001

1.08673486252606e+004,-1.67034341365689e+001,-1.67636510773883e-001

1.10190511587661e+004,-1.67034354937830e+001,-1.69976410166791e-001

1.11728713807222e+004,-1.67034368891014e+001,-1.72348964043646e-001

1.13288388529580e+004,-1.67034383235922e+001,-1.74754627850433e-001

1.14869835499703e+004,-1.67034397983536e+001,-1.77193863373655e-001

1.16473358646846e+004,-1.67034413145146e+001,-1.79667138829125e-001

1.18099266142953e+004,-1.67034428732355e+001,-1.82174928949674e-001

1.19747870461893e+004,-1.67034444757089e+001,-1.84717715078777e-001

1.21419488439505e+004,-1.67034461231614e+001,-1.87295985254982e-001

1.23114441334492e+004,-1.67034478168529e+001,-1.89910234314767e-001

1.24833054890161e+004,-1.67034495580792e+001,-1.92560963976074e-001

1.26575659397028e+004,-1.67034513481722e+001,-1.95248682939976e-001

1.28342589756290e+004,-1.67034531885003e+001,-1.97973906988257e-001

1.30134185544193e+004,-1.67034550804712e+001,-2.00737159073434e-001

1.31950791077289e+004,-1.67034570255312e+001,-2.03538969426194e-001

1.33792755478611e+004,-1.67034590251668e+001,-2.06379875652521e-001

1.35660432744767e+004,-1.67034610809064e+001,-2.09260422834686e-001

1.37554181813974e+004,-1.67034631943207e+001,-2.12181163637191e-001

1.39474366635040e+004,-1.67034653670246e+001,-2.15142658406830e-001

1.41421356237309e+004,-1.67034676006775e+001,-2.18145475284034e-001

1.43395524801583e+004,-1.67034698969854e+001,-2.21190190306834e-001

1.45397251732031e+004,-1.67034722577018e+001,-2.24277387520834e-001

1.47426921729110e+004,-1.67034746846287e+001,-2.27407659090116e-001

1.49484924863494e+004,-1.67034771796187e+001,-2.30581605407747e-001

1.51571656651040e+004,-1.67034797445759e+001,-2.33799835209859e-001

1.53687518128801e+004,-1.67034823814571e+001,-2.37062965690930e-001

1.55832915932100e+004,-1.67034850922737e+001,-2.40371622620614e-001

1.58008262372675e+004,-1.67034878790934e+001,-2.43726440457732e-001

1.60213975517924e+004,-1.67034907440408e+001,-2.47128062476898e-001

1.62450479271247e+004,-1.67034936892998e+001,-2.50577140882844e-001

1.64718203453514e+004,-1.67034967171153e+001,-2.54074336936393e-001

1.67017583885674e+004,-1.67034998297941e+001,-2.57620321079265e-001

1.69349062472505e+004,-1.67035030297072e+001,-2.61215773059518e-001

1.71713087287550e+004,-1.67035063192915e+001,-2.64861382057128e-001

1.74110112659224e+004,-1.67035097010516e+001,-2.68557846816130e-001

1.76540599258131e+004,-1.67035131775613e+001,-2.72305875774450e-001

1.79005014185594e+004,-1.67035167514659e+001,-2.76106187198800e-001

1.81503831063432e+004,-1.67035204254841e+001,-2.79959509314221e-001

1.84037530124975e+004,-1.67035242024100e+001,-2.83866580445642e-001

1.86606598307361e+004,-1.67035280851147e+001,-2.87828149154153e-001

1.89211529345119e+004,-1.67035320765493e+001,-2.91844974375068e-001

1.91852823865052e+004,-1.67035361797461e+001,-2.95917825563691e-001

1.94530989482457e+004,-1.67035403978215e+001,-3.00047482834367e-001

1.97246540898671e+004,-1.67035447339782e+001,-3.04234737108857e-001

1.99999999999999e+004,-1.67035491915070e+001,-3.08480390264098e-001

2.02791895958005e+004,-1.67035537737900e+001,-3.12785255278161e-001

2.05622765331213e+004,-1.67035584843022e+001,-3.17150156387919e-001

2.08493152168224e+004,-1.67035633266152e+001,-3.21575929232461e-001

2.11403608112276e+004,-1.67035683043982e+001,-3.26063421018266e-001

2.14354692507258e+004,-1.67035734214224e+001,-3.30613490669626e-001

2.17346972505211e+004,-1.67035786815622e+001,-3.35227008990737e-001

2.20381023175322e+004,-1.67035840887989e+001,-3.39904858826789e-001

2.23457427614443e+004,-1.67035896472235e+001,-3.44647935226257e-001

2.26576777059159e+004,-1.67035953610392e+001,-3.49457145606537e-001

2.29739670999406e+004,-1.67036012345652e+001,-3.54333409920469e-001

2.32946717293690e+004,-1.67036072722387e+001,-3.59277660829374e-001

2.36198532285905e+004,-1.67036134786189e+001,-3.64290843870945e-001

2.39495740923785e+004,-1.67036198583903e+001,-3.69373917634357e-001

2.42838976879009e+004,-1.67036264163653e+001,-3.74527853937700e-001

2.46228882668982e+004,-1.67036331574885e+001,-3.79753638003292e-001

2.49666109780322e+004,-1.67036400868396e+001,-3.85052268642160e-001

2.53151318794055e+004,-1.67036472096373e+001,-3.90424758432625e-001

2.56685179512580e+004,-1.67036545312426e+001,-3.95872133909007e-001

2.60268371088386e+004,-1.67036620571634e+001,-4.01395435745728e-001

2.63901582154578e+004,-1.67036697930574e+001,-4.06995718949180e-001

2.67585510957221e+004,-1.67036777447366e+001,-4.12674053048564e-001

2.71320865489533e+004,-1.67036859181712e+001,-4.18431522291710e-001

2.75108363627948e+004,-1.67036943194939e+001,-4.24269225839844e-001

2.78948733270080e+004,-1.67037029550042e+001,-4.30188277966522e-001

2.82842712474618e+004,-1.67037118311722e+001,-4.36189808261850e-001

2.86791049603164e+004,-1.67037209546441e+001,-4.42274961832514e-001

2.90794503464061e+004,-1.67037303322457e+001,-4.48444899512349e-001

2.94853843458219e+004,-1.67037399709877e+001,-4.54700798067552e-001

2.98969849726987e+004,-1.67037498780705e+001,-4.61043850410046e-001

3.03143313302078e+004,-1.67037600608890e+001,-4.67475265809491e-001

3.07375036257601e+004,-1.67037705270373e+001,-4.73996270112802e-001

3.11665831864199e+004,-1.67037812843144e+001,-4.80608105959526e-001

3.16016524745350e+004,-1.67037923407291e+001,-4.87312033005279e-001

3.20427951035848e+004,-1.67038037045054e+001,-4.94109328145590e-001

3.24900958542493e+004,-1.67038153840883e+001,-5.01001285741111e-001

3.29436406907028e+004,-1.67038273881488e+001,-5.07989217849722e-001

3.34035167771346e+004,-1.67038397255904e+001,-5.15074454454644e-001

3.38698124945009e+004,-1.67038524055545e+001,-5.22258343701275e-001

3.43426174575100e+004,-1.67038654374265e+001,-5.29542252134826e-001

3.48220225318448e+004,-1.67038788308421e+001,-5.36927564938076e-001

3.53081198516260e+004,-1.67038925956932e+001,-5.44415686175319e-001

3.58010028371187e+004,-1.67039067421347e+001,-5.52008039036717e-001

3.63007662126863e+004,-1.67039212805909e+001,-5.59706066087387e-001

3.68075060249948e+004,-1.67039362217623e+001,-5.67511229515316e-001

3.73213196614721e+004,-1.67039515766320e+001,-5.75425011388916e-001

3.78423058690237e+004,-1.67039673564730e+001,-5.83448913908419e-001

3.83705647730104e+004,-1.67039835728556e+001,-5.91584459668398e-001

3.89061978964912e+004,-1.67040002376540e+001,-5.99833191916210e-001

3.94493081797342e+004,-1.67040173630538e+001,-6.08196674820271e-001

3.99999999999998e+004,-1.67040349615602e+001,-6.16676493732365e-001

4.05583791916010e+004,-1.67040530460052e+001,-6.25274255460470e-001

4.11245530662425e+004,-1.67040716295547e+001,-6.33991588542765e-001

4.16986304336447e+004,-1.67040907257180e+001,-6.42830143519036e-001

4.22807216224550e+004,-1.67041103483549e+001,-6.51791593210710e-001

4.28709385014515e+004,-1.67041305116839e+001,-6.60877633005397e-001

4.34693945010421e+004,-1.67041512302912e+001,-6.70089981133788e-001

4.40762046350642e+004,-1.67041725191387e+001,-6.79430378962789e-001

4.46914855228886e+004,-1.67041943935733e+001,-6.88900591281399e-001

4.53153554118317e+004,-1.67042168693351e+001,-6.98502406593354e-001

4.59479341998812e+004,-1.67042399625668e+001,-7.08237637413289e-001

4.65893434587380e+004,-1.67042636898226e+001,-7.18108120564573e-001

4.72397064571810e+004,-1.67042880680779e+001,-7.28115717478807e-001

4.78991481847569e+004,-1.67043131147381e+001,-7.38262314499637e-001

4.85677953758016e+004,-1.67043388476486e+001,-7.48549823190443e-001

4.92457765337964e+004,-1.67043652851043e+001,-7.58980180641086e-001

4.99332219560642e+004,-1.67043924458597e+001,-7.69555349781693e-001

5.06302637588109e+004,-1.67044203491383e+001,-7.80277319696616e-001

5.13370359025159e+004,-1.67044490146431e+001,-7.91148105941034e-001

5.20536742176771e+004,-1.67044784625667e+001,-8.02169750862283e-001

5.27803164309155e+004,-1.67045087136016e+001,-8.13344323922603e-001

5.35171021914442e+004,-1.67045397889504e+001,-8.24673922023732e-001

5.42641730979066e+004,-1.67045717103368e+001,-8.36160669836339e-001

5.50216727255895e+004,-1.67046045000156e+001,-8.47806720131081e-001

5.57897466540159e+004,-1.67046381807840e+001,-8.59614254111426e-001

5.65685424949235e+004,-1.67046727759919e+001,-8.71585481751415e-001

5.73582099206328e+004,-1.67047083095528e+001,-8.83722642134679e-001

5.81589006928121e+004,-1.67047448059554e+001,-8.96028003794628e-001

5.89707686916437e+004,-1.67047822902737e+001,-9.08503865061356e-001

5.97939699453972e+004,-1.67048207881786e+001,-9.21152554407622e-001

6.06286626604156e+004,-1.67048603259484e+001,-9.33976430799062e-001

6.14750072515201e+004,-1.67049009304807e+001,-9.46977884046065e-001

6.23331663728396e+004,-1.67049426293030e+001,-9.60159335159775e-001

6.32033049490698e+004,-1.67049854505835e+001,-9.73523236709255e-001

6.40855902071694e+004,-1.67050294231430e+001,-9.87072073180985e-001

6.49801917084985e+004,-1.67050745764652e+001,-1.00080836134474e+000

6.58872813814055e+004,-1.67051209407082e+001,-1.01473465061479e+000

6.68070335542691e+004,-1.67051685467149e+001,-1.02885352342179e+000

6.77396249890018e+004,-1.67052174260244e+001,-1.04316759558236e+000

6.86852349150199e+004,-1.67052676108826e+001,-1.05767951667065e+000

6.96440450636895e+004,-1.67053191342525e+001,-1.07239197039659e+000

7.06162397032520e+004,-1.67053720298249e+001,-1.08730767498300e+000

7.16020056742374e+004,-1.67054263320288e+001,-1.10242938354795e+000

7.26015324253724e+004,-1.67054820760413e+001,-1.11775988448659e+000

7.36150120499896e+004,-1.67055392977976e+001,-1.13330200185951e+000

7.46426393229441e+004,-1.67055980340006e+001,-1.14905859578036e+000

7.56846117380472e+004,-1.67056583221302e+001,-1.16503256280830e+000

7.67411295460207e+004,-1.67057202004526e+001,-1.18122683634166e+000

7.78123957929823e+004,-1.67057837080285e+001,-1.19764438701743e+000

7.88986163594682e+004,-1.67058488847219e+001,-1.21428822310839e+000

7.99999999999995e+004,-1.67059157712078e+001,-1.23116139092778e+000

8.11167583832018e+004,-1.67059844089800e+001,-1.24826697523483e+000

8.22491061324848e+004,-1.67060548403576e+001,-1.26560809964354e+000

8.33972608672892e+004,-1.67061271084920e+001,-1.28318792703490e+000

8.45614432449099e+004,-1.67062012573723e+001,-1.30100965997241e+000

8.57418770029029e+004,-1.67062773318315e+001,-1.31907654111906e+000

8.69387890020841e+004,-1.67063553775502e+001,-1.33739185366134e+000

8.81524092701283e+004,-1.67064354410614e+001,-1.35595892173260e+000

8.93829710457770e+004,-1.67065175697532e+001,-1.37478111084436e+000

9.06307108236633e+004,-1.67066018118716e+001,-1.39386182831783e+000

9.18958683997622e+004,-1.67066882165223e+001,-1.41320452372053e+000

9.31786869174758e+004,-1.67067768336710e+001,-1.43281268930917e+000

9.44794129143618e+004,-1.67068677141439e+001,-1.45268986047344e+000

9.57982963695136e+004,-1.67069609096261e+001,-1.47283961618766e+000

9.71355907516031e+004,-1.67070564726592e+001,-1.49326557946661e+000

9.84915530675926e+004,-1.67071544566386e+001,-1.51397141782347e+000

9.98664439121282e+004,-1.67072549158088e+001,-1.53496084373769e+000

1.01260527517622e+005,-1.67073579052577e+001,-1.55623761512629e+000

1.02674071805032e+005,-1.67074634809094e+001,-1.57780553582206e+000

1.04107348435354e+005,-1.67075716995167e+001,-1.59966845605668e+000

1.05560632861831e+005,-1.67076826186505e+001,-1.62183027295336e+000

1.07034204382888e+005,-1.67077962966892e+001,-1.64429493102465e+000

1.08528346195813e+005,-1.67079127928060e+001,-1.66706642267935e+000

1.10043345451179e+005,-1.67080321669546e+001,-1.69014878873745e+000

1.11579493308032e+005,-1.67081544798532e+001,-1.71354611895292e+000

1.13137084989847e+005,-1.67082797929672e+001,-1.73726255254740e+000

1.14716419841265e+005,-1.67084081684896e+001,-1.76130227875312e+000

1.16317801385624e+005,-1.67085396693199e+001,-1.78566953736654e+000

1.17941537383287e+005,-1.67086743590409e+001,-1.81036861931249e+000

1.19587939890794e+005,-1.67088123018940e+001,-1.83540386722218e+000

1.21257325320831e+005,-1.67089535627520e+001,-1.86077967602242e+000

1.22950014503040e+005,-1.67090982070898e+001,-1.88650049353852e+000

1.24666332745679e+005,-1.67092463009538e+001,-1.91257082111240e+000

1.26406609898139e+005,-1.67093979109280e+001,-1.93899521423472e+000

1.28171180414339e+005,-1.67095531040987e+001,-1.96577828319549e+000

1.29960383416997e+005,-1.67097119480170e+001,-1.99292469374774e+000

1.31774562762811e+005,-1.67098745106582e+001,-2.02043916779474e+000

1.33614067108538e+005,-1.67100408603802e+001,-2.04832648409105e+000

1.35479249978003e+005,-1.67102110658779e+001,-2.07659147896820e+000

1.37370469830040e+005,-1.67103851961371e+001,-2.10523904707868e+000

1.39288090127379e+005,-1.67105633203845e+001,-2.13427414216483e+000

1.41232479406504e+005,-1.67107455080361e+001,-2.16370177785007e+000

1.43204011348474e+005,-1.67109318286431e+001,-2.19352702845648e+000

1.45203064850745e+005,-1.67111223518354e+001,-2.22375502984708e+000

1.47230024099979e+005,-1.67113171472624e+001,-2.25439098029821e+000

1.49285278645888e+005,-1.67115162845325e+001,-2.28544014139899e+000

1.51369223476094e+005,-1.67117198331489e+001,-2.31690783898292e+000

1.53482259092041e+005,-1.67119278624443e+001,-2.34879946409036e+000

1.55624791585964e+005,-1.67121404415130e+001,-2.38112047396557e+000

1.57797232718936e+005,-1.67123576391407e+001,-2.41387639308829e+000

1.59999999999999e+005,-1.67125795237327e+001,-2.44707281424119e+000

1.62233516766403e+005,-1.67128061632398e+001,-2.48071539961730e+000

1.64498212264969e+005,-1.67130376250826e+001,-2.51480988196566e+000

1.66794521734578e+005,-1.67132739760743e+001,-2.54936206577806e+000

1.69122886489819e+005,-1.67135152823411e+001,-2.58437782852030e+000

1.71483754005805e+005,-1.67137616092426e+001,-2.61986312190594e+000

1.73877578004168e+005,-1.67140130212895e+001,-2.65582397321722e+000

1.76304818540256e+005,-1.67142695820614e+001,-2.69226648667305e+000

1.78765942091554e+005,-1.67145313541232e+001,-2.72919684484668e+000

1.81261421647326e+005,-1.67147983989413e+001,-2.76662131013289e+000

1.83791736799524e+005,-1.67150707767984e+001,-2.80454622626845e+000

1.86357373834951e+005,-1.67153485467102e+001,-2.84297801990422e+000

1.88958825828723e+005,-1.67156317663398e+001,-2.88192320223451e+000

1.91596592739027e+005,-1.67159204919148e+001,-2.92138837067992e+000

1.94271181503206e+005,-1.67162147781434e+001,-2.96138021062975e+000

1.96983106135185e+005,-1.67165146781330e+001,-3.00190549724100e+000

1.99732887824256e+005,-1.67168202433092e+001,-3.04297109729760e+000

2.02521055035243e+005,-1.67171315233369e+001,-3.08458397113073e+000

2.05348143610063e+005,-1.67174485660444e+001,-3.12675117459843e+000

2.08214696870707e+005,-1.67177714173483e+001,-3.16947986112961e+000

2.11121265723661e+005,-1.67181001211832e+001,-3.21277728382753e+000

2.14068408765776e+005,-1.67184347194336e+001,-3.25665079763946e+000

2.17056692391625e+005,-1.67187752518699e+001,-3.30110786158710e+000

2.20086690902357e+005,-1.67191217560889e+001,-3.34615604106080e+000

2.23158986616063e+005,-1.67194742674589e+001,-3.39180301017715e+000

2.26274169979693e+005,-1.67198328190692e+001,-3.43805655420057e+000

2.29432839682530e+005,-1.67201974416867e+001,-3.48492457202463e+000

2.32635602771247e+005,-1.67205681637170e+001,-3.53241507871867e+000

2.35883074766574e+005,-1.67209450111727e+001,-3.58053620813353e+000

2.39175879781588e+005,-1.67213280076494e+001,-3.62929621556651e+000

2.42514650641661e+005,-1.67217171743074e+001,-3.67870348048856e+000

2.45900029006080e+005,-1.67221125298633e+001,-3.72876650932469e+000

2.49332665491357e+005,-1.67225140905880e+001,-3.77949393829378e+000

2.52813219796278e+005,-1.67229218703152e+001,-3.83089453629950e+000

2.56342360828676e+005,-1.67233358804582e+001,-3.88297720787501e+000

2.59920766833993e+005,-1.67237561300362e+001,-3.93575099617661e+000

2.63549125525621e+005,-1.67241826257107e+001,-3.98922508602389e+000

2.67228134217075e+005,-1.67246153718333e+001,-4.04340880698504e+000

2.70958499956006e+005,-1.67250543705023e+001,-4.09831163650317e+000

2.74740939660078e+005,-1.67254996216323e+001,-4.15394320306160e+000

2.78576180254757e+005,-1.67259511230335e+001,-4.21031328938401e+000

2.82464958813007e+005,-1.67264088705037e+001,-4.26743183566642e+000

2.86408022696948e+005,-1.67268728579317e+001,-4.32530894283765e+000

2.90406129701488e+005,-1.67273430774127e+001,-4.38395487584368e+000

2.94460048199957e+005,-1.67278195193759e+001,-4.44338006695447e+000

2.98570557291775e+005,-1.67283021727243e+001,-4.50359511908582e+000

3.02738446952187e+005,-1.67287910249872e+001,-4.56461080913488e+000

3.06964518184081e+005,-1.67292860624843e+001,-4.62643809132534e+000

3.11249583171928e+005,-1.67297872705033e+001,-4.68908810055626e+000

3.15594465437872e+005,-1.67302946334888e+001,-4.75257215575222e+000

3.19999999999997e+005,-1.67308081352436e+001,-4.81690176321048e+000

3.24467033532806e+005,-1.67313277591427e+001,-4.88208861993994e+000

3.28996424529938e+005,-1.67318534883585e+001,-4.94814461698936e+000

3.33589043469155e+005,-1.67323853060974e+001,-5.01508184276055e+000

3.38245772979638e+005,-1.67329231958489e+001,-5.08291258630136e+000

3.42967508011610e+005,-1.67334671416441e+001,-5.15164934057762e+000

3.47755156008335e+005,-1.67340171283261e+001,-5.22130480571724e+000

3.52609637080511e+005,-1.67345731418300e+001,-5.29189189222607e+000

3.57531884183106e+005,-1.67351351694730e+001,-5.36342372416966e+000

3.62522843294651e+005,-1.67357032002532e+001,-5.43591364232092e+000

3.67583473599047e+005,-1.67362772251579e+001,-5.50937520726876e+000

3.72714747669902e+005,-1.67368572374791e+001,-5.58382220248564e+000

3.77917651657445e+005,-1.67374432331379e+001,-5.65926863735337e+000

3.83193185478053e+005,-1.67380352110148e+001,-5.73572875014333e+000

3.88542363006410e+005,-1.67386331732865e+001,-5.81321701095125e+000

3.93966212270369e+005,-1.67392371257693e+001,-5.89174812458504e+000

3.99465775648511e+005,-1.67398470782664e+001,-5.97133703340242e+000

4.05042110070485e+005,-1.67404630449202e+001,-6.05199892010317e+000

4.10696287220124e+005,-1.67410850445685e+001,-6.13374921046976e+000

4.16429393741414e+005,-1.67417131011031e+001,-6.21660357606024e+000

4.22242531447321e+005,-1.67423472438316e+001,-6.30057793685366e+000

4.28136817531551e+005,-1.67429875078399e+001,-6.38568846384784e+000

4.34113384783250e+005,-1.67436339343569e+001,-6.47195158160983e+000

4.40173381804713e+005,-1.67442865711187e+001,-6.55938397078406e+000

4.46317973232124e+005,-1.67449454727330e+001,-6.64800257055631e+000

4.52548339959385e+005,-1.67456107010431e+001,-6.73782458107725e+000

4.58865679365059e+005,-1.67462823254894e+001,-6.82886746584848e+000

4.65271205542494e+005,-1.67469604234704e+001,-6.92114895407351e+000

4.71766149533147e+005,-1.67476450807007e+001,-7.01468704297485e+000

4.78351759563174e+005,-1.67483363915658e+001,-7.10950000008420e+000

4.85029301283321e+005,-1.67490344594745e+001,-7.20560636550494e+000

4.91800058012158e+005,-1.67497393972070e+001,-7.30302495415438e+000

4.98665330982714e+005,-1.67504513272595e+001,-7.40177485798658e+000

5.05626439592555e+005,-1.67511703821841e+001,-7.50187544820182e+000

5.12684721657352e+005,-1.67518967049246e+001,-7.60334637744575e+000

5.19841533667984e+005,-1.67526304491479e+001,-7.70620758200203e+000

5.27098251051240e+005,-1.67533717795695e+001,-7.81047928398446e+000

5.34456268434150e+005,-1.67541208722755e+001,-7.91618199353082e+000

5.41916999912011e+005,-1.67548779150385e+001,-8.02333651100468e+000

