Freq.,VOut,OutRef

1.00000000000000e+004,-2.16900850676017e+001,-1.80957473369903e-001

1.01395947979003e+004,-2.16900854533442e+001,-1.83483542554683e-001

1.02811382665607e+004,-2.16900858499315e+001,-1.86044874222709e-001

1.04246576084112e+004,-2.16900862576682e+001,-1.88641960616030e-001

1.05701804056138e+004,-2.16900866768681e+001,-1.91275300844432e-001

1.07177346253629e+004,-2.16900871078531e+001,-1.93945400989187e-001

1.08673486252606e+004,-2.16900875509547e+001,-1.96652774191332e-001

1.10190511587661e+004,-2.16900880065136e+001,-1.99397940757904e-001

1.11728713807222e+004,-2.16900884748800e+001,-2.02181428257169e-001

1.13288388529580e+004,-2.16900889564138e+001,-2.05003771623900e-001

1.14869835499703e+004,-2.16900894514855e+001,-2.07865513257053e-001

1.16473358646846e+004,-2.16900899604752e+001,-2.10767203129853e-001

1.18099266142953e+004,-2.16900904837748e+001,-2.13709398888960e-001

1.19747870461893e+004,-2.16900910217861e+001,-2.16692665969141e-001

1.21419488439505e+004,-2.16900915749230e+001,-2.19717577695230e-001

1.23114441334492e+004,-2.16900921436106e+001,-2.22784715396140e-001

1.24833054890161e+004,-2.16900927282860e+001,-2.25894668515314e-001

1.26575659397028e+004,-2.16900933293988e+001,-2.29048034724449e-001

1.28342589756290e+004,-2.16900939474112e+001,-2.32245420035654e-001

1.30134185544193e+004,-2.16900945827982e+001,-2.35487438924112e-001

1.31950791077289e+004,-2.16900952360482e+001,-2.38774714439415e-001

1.33792755478611e+004,-2.16900959076634e+001,-2.42107878330127e-001

1.35660432744767e+004,-2.16900965981603e+001,-2.45487571160615e-001

1.37554181813974e+004,-2.16900973080695e+001,-2.48914442439257e-001

1.39474366635040e+004,-2.16900980379369e+001,-2.52389150739068e-001

1.41421356237309e+004,-2.16900987883235e+001,-2.55912363827305e-001

1.43395524801583e+004,-2.16900995598063e+001,-2.59484758790096e-001

1.45397251732031e+004,-2.16901003529782e+001,-2.63107022167088e-001

1.47426921729110e+004,-2.16901011684491e+001,-2.66779850080456e-001

1.49484924863494e+004,-2.16901020068459e+001,-2.70503948367337e-001

1.51571656651040e+004,-2.16901028688129e+001,-2.74280032720306e-001

1.53687518128801e+004,-2.16901037550131e+001,-2.78108828819560e-001

1.55832915932100e+004,-2.16901046661275e+001,-2.81991072475888e-001

1.58008262372675e+004,-2.16901056028566e+001,-2.85927509770933e-001

1.60213975517924e+004,-2.16901065659206e+001,-2.89918897198784e-001

1.62450479271247e+004,-2.16901075560598e+001,-2.93966001814743e-001

1.64718203453514e+004,-2.16901085740353e+001,-2.98069601380959e-001

1.67017583885674e+004,-2.16901096206299e+001,-3.02230484514156e-001

1.69349062472505e+004,-2.16901106966478e+001,-3.06449450841245e-001

1.71713087287550e+004,-2.16901118029165e+001,-3.10727311148104e-001

1.74110112659224e+004,-2.16901129402864e+001,-3.15064887539234e-001

1.76540599258131e+004,-2.16901141096318e+001,-3.19463013593477e-001

1.79005014185594e+004,-2.16901153118516e+001,-3.23922534525563e-001

1.81503831063432e+004,-2.16901165478703e+001,-3.28444307346166e-001

1.84037530124975e+004,-2.16901178186376e+001,-3.33029201031353e-001

1.86606598307361e+004,-2.16901191251307e+001,-3.37678096683400e-001

1.89211529345119e+004,-2.16901204683540e+001,-3.42391887704275e-001

1.91852823865052e+004,-2.16901218493399e+001,-3.47171479965353e-001

1.94530989482457e+004,-2.16901232691503e+001,-3.52017791983011e-001

1.97246540898671e+004,-2.16901247288764e+001,-3.56931755093442e-001

1.99999999999999e+004,-2.16901262296406e+001,-3.61914313631664e-001

2.02791895958005e+004,-2.16901277725964e+001,-3.66966425115492e-001

2.05622765331213e+004,-2.16901293589301e+001,-3.72089060425063e-001

2.08493152168224e+004,-2.16901309898611e+001,-3.77283203993754e-001

2.11403608112276e+004,-2.16901326666432e+001,-3.82549853994380e-001

2.14354692507258e+004,-2.16901343905653e+001,-3.87890022531500e-001

2.17346972505211e+004,-2.16901361629528e+001,-3.93304735836794e-001

2.20381023175322e+004,-2.16901379851683e+001,-3.98795034464271e-001

2.23457427614443e+004,-2.16901398586124e+001,-4.04361973493495e-001

2.26576777059159e+004,-2.16901417847253e+001,-4.10006622728333e-001

2.29739670999406e+004,-2.16901437649877e+001,-4.15730066905215e-001

2.32946717293690e+004,-2.16901458009221e+001,-4.21533405899293e-001

2.36198532285905e+004,-2.16901478940934e+001,-4.27417754937604e-001

2.39495740923785e+004,-2.16901500461106e+001,-4.33384244813273e-001

2.42838976879009e+004,-2.16901522586283e+001,-4.39434022100613e-001

2.46228882668982e+004,-2.16901545333470e+001,-4.45568249377395e-001

2.49666109780322e+004,-2.16901568720158e+001,-4.51788105445894e-001

2.53151318794055e+004,-2.16901592764320e+001,-4.58094785563498e-001

2.56685179512580e+004,-2.16901617484444e+001,-4.64489501666326e-001

2.60268371088386e+004,-2.16901642899529e+001,-4.70973482607487e-001

2.63901582154578e+004,-2.16901669029116e+001,-4.77547974389048e-001

2.67585510957221e+004,-2.16901695893289e+001,-4.84214240403991e-001

2.71320865489533e+004,-2.16901723512700e+001,-4.90973561677265e-001

2.75108363627948e+004,-2.16901751908579e+001,-4.97827237112278e-001

2.78948733270080e+004,-2.16901781102758e+001,-5.04776583739157e-001

2.82842712474618e+004,-2.16901811117676e+001,-5.11822936970713e-001

2.86791049603164e+004,-2.16901841976407e+001,-5.18967650855334e-001

2.90794503464061e+004,-2.16901873702673e+001,-5.26212098338726e-001

2.94853843458219e+004,-2.16901906320863e+001,-5.33557671527368e-001

2.98969849726987e+004,-2.16901939856049e+001,-5.41005781955766e-001

3.03143313302078e+004,-2.16901974334012e+001,-5.48557860857022e-001

3.07375036257601e+004,-2.16902009781254e+001,-5.56215359438049e-001

3.11665831864199e+004,-2.16902046225025e+001,-5.63979749157108e-001

3.16016524745350e+004,-2.16902083693338e+001,-5.71852522008320e-001

3.20427951035848e+004,-2.16902122214996e+001,-5.79835190806778e-001

3.24900958542493e+004,-2.16902161819611e+001,-5.87929289477327e-001

3.29436406907028e+004,-2.16902202537626e+001,-5.96136373352696e-001

3.34035167771346e+004,-2.16902244400341e+001,-6.04458019469333e-001

3.38698124945009e+004,-2.16902287439938e+001,-6.12895826869688e-001

3.43426174575100e+004,-2.16902331689498e+001,-6.21451416911701e-001

3.48220225318448e+004,-2.16902377183037e+001,-6.30126433577052e-001

3.53081198516260e+004,-2.16902423955524e+001,-6.38922543789142e-001

3.58010028371187e+004,-2.16902472042915e+001,-6.47841437730593e-001

3.63007662126863e+004,-2.16902521482171e+001,-6.56884829169833e-001

3.68075060249948e+004,-2.16902572311298e+001,-6.66054455788177e-001

3.73213196614721e+004,-2.16902624569364e+001,-6.75352079514269e-001

3.78423058690237e+004,-2.16902678296541e+001,-6.84779486861832e-001

3.83705647730104e+004,-2.16902733534128e+001,-6.94338489271621e-001

3.89061978964912e+004,-2.16902790324583e+001,-7.04030923461452e-001

3.94493081797342e+004,-2.16902848711559e+001,-7.13858651774709e-001

3.99999999999998e+004,-2.16902908739938e+001,-7.23823562540837e-001

4.05583791916010e+004,-2.16902970455859e+001,-7.33927570436196e-001

4.11245530662425e+004,-2.16903033906762e+001,-7.44172616851285e-001

4.16986304336447e+004,-2.16903099141418e+001,-7.54560670263840e-001

4.22807216224550e+004,-2.16903166209970e+001,-7.65093726614752e-001

4.28709385014515e+004,-2.16903235163972e+001,-7.75773809692176e-001

4.34693945010421e+004,-2.16903306056421e+001,-7.86602971520655e-001

4.40762046350642e+004,-2.16903378941812e+001,-7.97583292750802e-001

4.46914855228886e+004,-2.16903453876166e+001,-8.08716883062569e-001

4.53153554118317e+004,-2.16903530917081e+001,-8.20005881566795e-001

4.59479341998812e+004,-2.16903610123770e+001,-8.31452457217269e-001

4.65893434587380e+004,-2.16903691557117e+001,-8.43058809224142e-001

4.72397064571810e+004,-2.16903775279711e+001,-8.54827167478143e-001

4.78991481847569e+004,-2.16903861355904e+001,-8.66759792975623e-001

4.85677953758016e+004,-2.16903949851854e+001,-8.78858978254182e-001

4.92457765337964e+004,-2.16904040835581e+001,-8.91127047829058e-001

4.99332219560642e+004,-2.16904134377015e+001,-9.03566358642159e-001

5.06302637588109e+004,-2.16904230548052e+001,-9.16179300510055e-001

5.13370359025159e+004,-2.16904329422609e+001,-9.28968296584489e-001

5.20536742176771e+004,-2.16904431076679e+001,-9.41935803815658e-001

5.27803164309155e+004,-2.16904535588392e+001,-9.55084313422576e-001

5.35171021914442e+004,-2.16904643038073e+001,-9.68416351370501e-001

5.42641730979066e+004,-2.16904753508306e+001,-9.81934478854852e-001

5.50216727255895e+004,-2.16904867083995e+001,-9.95641292791111e-001

5.57897466540159e+004,-2.16904983852429e+001,-1.00953942631327e+000

5.65685424949235e+004,-2.16905103903352e+001,-1.02363154927624e+000

5.73582099206328e+004,-2.16905227329028e+001,-1.03792036876857e+000

5.81589006928121e+004,-2.16905354224315e+001,-1.05240862963072e+000

5.89707686916437e+004,-2.16905484686739e+001,-1.06709911497741e+000

5.97939699453972e+004,-2.16905618816562e+001,-1.08199464673525e+000

6.06286626604156e+004,-2.16905756716866e+001,-1.09709808617843e+000

6.14750072515201e+004,-2.16905898493631e+001,-1.11241233447779e+000

6.23331663728396e+004,-2.16906044255814e+001,-1.12794033325609e+000

6.32033049490698e+004,-2.16906194115431e+001,-1.14368506515096e+000

6.40855902071694e+004,-2.16906348187650e+001,-1.15964955438397e+000

6.49801917084985e+004,-2.16906506590874e+001,-1.17583686733996e+000

6.58872813814055e+004,-2.16906669446832e+001,-1.19225011315319e+000

6.68070335542691e+004,-2.16906836880672e+001,-1.20889244430221e+000

6.77396249890018e+004,-2.16907009021064e+001,-1.22576705721109e+000

6.86852349150199e+004,-2.16907186000286e+001,-1.24287719286164e+000

6.96440450636895e+004,-2.16907367954340e+001,-1.26022613741210e+000

7.06162397032520e+004,-2.16907555023043e+001,-1.27781722282557e+000

7.16020056742374e+004,-2.16907747350145e+001,-1.29565382750551e+000

7.26015324253724e+004,-2.16907945083432e+001,-1.31373937694227e+000

7.36150120499896e+004,-2.16908148374843e+001,-1.33207734436522e+000

7.46426393229441e+004,-2.16908357380588e+001,-1.35067125140857e+000

7.56846117380472e+004,-2.16908572261261e+001,-1.36952466878162e+000

7.67411295460207e+004,-2.16908793181972e+001,-1.38864121695065e+000

7.78123957929823e+004,-2.16909020312467e+001,-1.40802456683028e+000

7.88986163594682e+004,-2.16909253827263e+001,-1.42767844048374e+000

7.99999999999995e+004,-2.16909493905778e+001,-1.44760661183164e+000

8.11167583832018e+004,-2.16909740732470e+001,-1.46781290737347e+000

8.22491061324848e+004,-2.16909994496979e+001,-1.48830120691606e+000

8.33972608672892e+004,-2.16910255394273e+001,-1.50907544431303e+000

8.45614432449099e+004,-2.16910523624795e+001,-1.53013960821522e+000

8.57418770029029e+004,-2.16910799394621e+001,-1.55149774282914e+000

8.69387890020841e+004,-2.16911082915613e+001,-1.57315394868993e+000

8.81524092701283e+004,-2.16911374405583e+001,-1.59511238343903e+000

8.93829710457770e+004,-2.16911674088464e+001,-1.61737726261851e+000

9.06307108236633e+004,-2.16911982194477e+001,-1.63995286047131e+000

9.18958683997622e+004,-2.16912298960307e+001,-1.66284351075598e+000

9.31786869174758e+004,-2.16912624629290e+001,-1.68605360757005e+000

9.44794129143618e+004,-2.16912959451592e+001,-1.70958760618674e+000

9.57982963695136e+004,-2.16913303684407e+001,-1.73345002390095e+000

9.71355907516031e+004,-2.16913657592152e+001,-1.75764544088807e+000

9.84915530675926e+004,-2.16914021446667e+001,-1.78217850107446e+000

9.98664439121282e+004,-2.16914395527427e+001,-1.80705391301949e+000

1.01260527517622e+005,-2.16914780121755e+001,-1.83227645080905e+000

1.02674071805032e+005,-2.16915175525041e+001,-1.85785095496225e+000

1.04107348435354e+005,-2.16915582040967e+001,-1.88378233334954e+000

1.05560632861831e+005,-2.16915999981746e+001,-1.91007556212379e+000

1.07034204382888e+005,-2.16916429668353e+001,-1.93673568666341e+000

1.08528346195813e+005,-2.16916871430774e+001,-1.96376782252924e+000

1.10043345451179e+005,-2.16917325608262e+001,-1.99117715643293e+000

1.11579493308032e+005,-2.16917792549590e+001,-2.01896894721956e+000

1.13137084989847e+005,-2.16918272613324e+001,-2.04714852686353e+000

1.14716419841265e+005,-2.16918766168096e+001,-2.07572130147597e+000

1.16317801385624e+005,-2.16919273592881e+001,-2.10469275232950e+000

1.17941537383287e+005,-2.16919795277294e+001,-2.13406843689232e+000

1.19587939890794e+005,-2.16920331621885e+001,-2.16385398987933e+000

1.21257325320831e+005,-2.16920883038444e+001,-2.19405512431671e+000

1.22950014503040e+005,-2.16921449950318e+001,-2.22467763261925e+000

1.24666332745679e+005,-2.16922032792735e+001,-2.25572738768413e+000

1.26406609898139e+005,-2.16922632013135e+001,-2.28721034399821e+000

1.28171180414339e+005,-2.16923248071512e+001,-2.31913253876023e+000

1.29960383416997e+005,-2.16923881440769e+001,-2.35150009301821e+000

1.31774562762811e+005,-2.16924532607072e+001,-2.38431921282216e+000

1.33614067108538e+005,-2.16925202070232e+001,-2.41759619039046e+000

1.35479249978003e+005,-2.16925890344077e+001,-2.45133740529501e+000

1.37370469830040e+005,-2.16926597956850e+001,-2.48554932565844e+000

1.39288090127379e+005,-2.16927325451610e+001,-2.52023850937001e+000

1.41232479406504e+005,-2.16928073386650e+001,-2.55541160531561e+000

1.43204011348474e+005,-2.16928842335917e+001,-2.59107535462603e+000

1.45203064850745e+005,-2.16929632889457e+001,-2.62723659193844e+000

1.47230024099979e+005,-2.16930445653859e+001,-2.66390224667906e+000

1.49285278645888e+005,-2.16931281252723e+001,-2.70107934435775e+000

1.51369223476094e+005,-2.16932140327133e+001,-2.73877500788304e+000

1.53482259092041e+005,-2.16933023536145e+001,-2.77699645889371e+000

1.55624791585964e+005,-2.16933931557292e+001,-2.81575101910547e+000

1.57797232718936e+005,-2.16934865087097e+001,-2.85504611167930e+000

1.59999999999999e+005,-2.16935824841607e+001,-2.89488926260336e+000

1.62233516766403e+005,-2.16936811556938e+001,-2.93528810209555e+000

1.64498212264969e+005,-2.16937825989834e+001,-2.97625036602337e+000

1.66794521734578e+005,-2.16938868918245e+001,-3.01778389734175e+000

1.69122886489819e+005,-2.16939941141915e+001,-3.05989664755063e+000

1.71483754005805e+005,-2.16941043482997e+001,-3.10259667816953e+000

1.73877578004168e+005,-2.16942176786676e+001,-3.14589216223202e+000

1.76304818540256e+005,-2.16943341921808e+001,-3.18979138580007e+000

1.78765942091554e+005,-2.16944539781586e+001,-3.23430274949569e+000

1.81261421647326e+005,-2.16945771284215e+001,-3.27943477005464e+000

1.83791736799524e+005,-2.16947037373613e+001,-3.32519608189638e+000

1.86357373834951e+005,-2.16948339020125e+001,-3.37159543871874e+000

1.88958825828723e+005,-2.16949677221262e+001,-3.41864171510683e+000

1.91596592739027e+005,-2.16951053002456e+001,-3.46634390816752e+000

1.94271181503206e+005,-2.16952467417841e+001,-3.51471113918125e+000

1.96983106135185e+005,-2.16953921551049e+001,-3.56375265527510e+000

1.99732887824256e+005,-2.16955416516035e+001,-3.61347783111763e+000

2.02521055035243e+005,-2.16956953457920e+001,-3.66389617063293e+000

2.05348143610063e+005,-2.16958533553856e+001,-3.71501730873824e+000

2.08214696870707e+005,-2.16960158013923e+001,-3.76685101310054e+000

2.11121265723661e+005,-2.16961828082041e+001,-3.81940718591644e+000

2.14068408765776e+005,-2.16963545036909e+001,-3.87269586571325e+000

2.17056692391625e+005,-2.16965310192981e+001,-3.92672722917091e+000

2.20086690902357e+005,-2.16967124901448e+001,-3.98151159296822e+000

2.23158986616063e+005,-2.16968990551269e+001,-4.03705941564886e+000

2.26274169979693e+005,-2.16970908570214e+001,-4.09338129951199e+000

2.29432839682530e+005,-2.16972880425943e+001,-4.15048799252354e+000

2.32635602771247e+005,-2.16974907627115e+001,-4.20839039025168e+000

2.35883074766574e+005,-2.16976991724526e+001,-4.26709953782371e+000

2.39175879781588e+005,-2.16979134312272e+001,-4.32662663190803e+000

2.42514650641661e+005,-2.16981337028959e+001,-4.38698302271671e+000

2.45900029006080e+005,-2.16983601558928e+001,-4.44818021603398e+000

2.49332665491357e+005,-2.16985929633527e+001,-4.51022987526518e+000

2.52813219796278e+005,-2.16988323032411e+001,-4.57314382351270e+000

2.56342360828676e+005,-2.16990783584882e+001,-4.63693404567200e+000

2.59920766833993e+005,-2.16993313171256e+001,-4.70161269055480e+000

2.63549125525621e+005,-2.16995913724284e+001,-4.76719207303321e+000

2.67228134217075e+005,-2.16998587230593e+001,-4.83368467620983e+000

2.70958499956006e+005,-2.17001335732177e+001,-4.90110315361076e+000

2.74740939660078e+005,-2.17004161327928e+001,-4.96946033140370e+000

2.78576180254757e+005,-2.17007066175205e+001,-5.03876921063911e+000

2.82464958813007e+005,-2.17010052491449e+001,-5.10904296951666e+000

2.86408022696948e+005,-2.17013122555835e+001,-5.18029496567547e+000

2.90406129701488e+005,-2.17016278710980e+001,-5.25253873850860e+000

2.94460048199957e+005,-2.17019523364686e+001,-5.32578801150156e+000

2.98570557291775e+005,-2.17022858991734e+001,-5.40005669459735e+000

3.02738446952187e+005,-2.17026288135730e+001,-5.47535888658234e+000

3.06964518184081e+005,-2.17029813410994e+001,-5.55170887749926e+000

3.11249583171928e+005,-2.17033437504506e+001,-5.62912115108372e+000

3.15594465437872e+005,-2.17037163177898e+001,-5.70761038722430e+000

3.19999999999997e+005,-2.17040993269506e+001,-5.78719146444847e+000

3.24467033532806e+005,-2.17044930696470e+001,-5.86787946243052e+000

3.28996424529938e+005,-2.17048978456895e+001,-5.94968966452538e+000

3.33589043469155e+005,-2.17053139632068e+001,-6.03263756032545e+000

3.38245772979638e+005,-2.17057417388735e+001,-6.11673884824143e+000

3.42967508011610e+005,-2.17061814981433e+001,-6.20200943810665e+000

3.47755156008335e+005,-2.17066335754896e+001,-6.28846545380492e+000

3.52609637080511e+005,-2.17070983146508e+001,-6.37612323592213e+000

3.57531884183106e+005,-2.17075760688839e+001,-6.46499934442004e+000

3.62522843294651e+005,-2.17080672012229e+001,-6.55511056133319e+000

3.67583473599047e+005,-2.17085720847459e+001,-6.64647389348871e+000

3.72714747669902e+005,-2.17090911028477e+001,-6.73910657524778e+000

3.77917651657445e+005,-2.17096246495203e+001,-6.83302607126946e+000

3.83193185478053e+005,-2.17101731296406e+001,-6.92825007929549e+000

3.88542363006410e+005,-2.17107369592657e+001,-7.02479653295655e+000

3.93966212270369e+005,-2.17113165659355e+001,-7.12268360459963e+000

3.99465775648511e+005,-2.17119123889837e+001,-7.22192970813441e+000

4.05042110070485e+005,-2.17125248798566e+001,-7.32255350190110e+000

4.10696287220124e+005,-2.17131545024402e+001,-7.42457389155595e+000

4.16429393741414e+005,-2.17138017333954e+001,-7.52801003297609e+000

4.22242531447321e+005,-2.17144670625027e+001,-7.63288133518293e+000

4.28136817531551e+005,-2.17151509930146e+001,-7.73920746328160e+000

4.34113384783250e+005,-2.17158540420179e+001,-7.84700834141864e+000

4.40173381804713e+005,-2.17165767408051e+001,-7.95630415575472e+000

4.46317973232124e+005,-2.17173196352548e+001,-8.06711535745218e+000

4.52548339959385e+005,-2.17180832862224e+001,-8.17946266567835e+000

4.58865679365059e+005,-2.17188682699398e+001,-8.29336707062080e+000

4.65271205542494e+005,-2.17196751784264e+001,-8.40884983651584e+000

4.71766149533147e+005,-2.17205046199095e+001,-8.52593250468865e+000

4.78351759563174e+005,-2.17213572192551e+001,-8.64463689660325e+000

4.85029301283321e+005,-2.17222336184104e+001,-8.76498511692269e+000

4.91800058012158e+005,-2.17231344768564e+001,-8.88699955657633e+000

4.98665330982714e+005,-2.17240604720722e+001,-9.01070289583497e+000

5.05626439592555e+005,-2.17250123000104e+001,-9.13611810739140e+000

5.12684721657352e+005,-2.17259906755846e+001,-9.26326845944455e+000

5.19841533667984e+005,-2.17269963331683e+001,-9.39217751878708e+000

5.27098251051240e+005,-2.17280300271068e+001,-9.52286915389430e+000

5.34456268434150e+005,-2.17290925322400e+001,-9.65536753801214e+000

5.41916999912011e+005,-2.17301846444397e+001,-9.78969715224365e+000

