Freq.,VOut,OutRef

1.00000000000000e+004,-1.50607819810582e+001,-8.14381940172897e-002

1.01395947979003e+004,-1.50607820079775e+001,-8.25750287710198e-002

1.02811382665607e+004,-1.50607820356536e+001,-8.37277331432902e-002

1.04246576084112e+004,-1.50607820641079e+001,-8.48965286649661e-002

1.05701804056138e+004,-1.50607820933620e+001,-8.60816399625676e-002

1.07177346253629e+004,-1.50607821234387e+001,-8.72832947926317e-002

1.08673486252606e+004,-1.50607821543610e+001,-8.85017240952118e-002

1.10190511587661e+004,-1.50607821861525e+001,-8.97371620343198e-002

1.11728713807222e+004,-1.50607822188378e+001,-9.09898460401914e-002

1.13288388529580e+004,-1.50607822524421e+001,-9.22600168588037e-002

1.14869835499703e+004,-1.50607822869911e+001,-9.35479185972342e-002

1.16473358646846e+004,-1.50607823225114e+001,-9.48537987696053e-002

1.18099266142953e+004,-1.50607823590302e+001,-9.61779083458461e-002

1.19747870461893e+004,-1.50607823965759e+001,-9.75205017974143e-002

1.21419488439505e+004,-1.50607824351771e+001,-9.88818371504766e-002

1.23114441334492e+004,-1.50607824748634e+001,-1.00262176032358e-001

1.24833054890161e+004,-1.50607825156655e+001,-1.01661783721195e-001

1.26575659397028e+004,-1.50607825576147e+001,-1.03080929199617e-001

1.28342589756290e+004,-1.50607826007433e+001,-1.04519885204631e-001

1.30134185544193e+004,-1.50607826450843e+001,-1.05978928281882e-001

1.31950791077289e+004,-1.50607826906720e+001,-1.07458338834117e-001

1.33792755478611e+004,-1.50607827375413e+001,-1.08958401182217e-001

1.35660432744767e+004,-1.50607827857283e+001,-1.10479403613014e-001

1.37554181813974e+004,-1.50607828352700e+001,-1.12021638439190e-001

1.39474366635040e+004,-1.50607828862046e+001,-1.13585402053935e-001

1.41421356237309e+004,-1.50607829385710e+001,-1.15170994987859e-001

1.43395524801583e+004,-1.50607829924097e+001,-1.16778721965892e-001

1.45397251732031e+004,-1.50607830477621e+001,-1.18408891967468e-001

1.47426921729110e+004,-1.50607831046705e+001,-1.20061818285839e-001

1.49484924863494e+004,-1.50607831631788e+001,-1.21737818586989e-001

1.51571656651040e+004,-1.50607832233322e+001,-1.23437214970047e-001

1.53687518128801e+004,-1.50607832851766e+001,-1.25160334032794e-001

1.55832915932100e+004,-1.50607833487596e+001,-1.26907506931877e-001

1.58008262372675e+004,-1.50607834141304e+001,-1.28679069443218e-001

1.60213975517924e+004,-1.50607834813388e+001,-1.30475362035375e-001

1.62450479271247e+004,-1.50607835504368e+001,-1.32296729925713e-001

1.64718203453514e+004,-1.50607836214775e+001,-1.34143523151367e-001

1.67017583885674e+004,-1.50607836945152e+001,-1.36016096637851e-001

1.69349062472505e+004,-1.50607837696063e+001,-1.37914810262955e-001

1.71713087287550e+004,-1.50607838468086e+001,-1.39840028927750e-001

1.74110112659224e+004,-1.50607839261814e+001,-1.41792122629276e-001

1.76540599258131e+004,-1.50607840077855e+001,-1.43771466528694e-001

1.79005014185594e+004,-1.50607840916839e+001,-1.45778441023448e-001

1.81503831063432e+004,-1.50607841779409e+001,-1.47813431821827e-001

1.84037530124975e+004,-1.50607842666230e+001,-1.49876830015575e-001

1.86606598307361e+004,-1.50607843577983e+001,-1.51969032157244e-001

1.89211529345119e+004,-1.50607844515369e+001,-1.54090440333522e-001

1.91852823865052e+004,-1.50607845479108e+001,-1.56241462244470e-001

1.94530989482457e+004,-1.50607846469941e+001,-1.58422511283412e-001

1.97246540898671e+004,-1.50607847488632e+001,-1.60634006609809e-001

1.99999999999999e+004,-1.50607848535960e+001,-1.62876373239308e-001

2.02791895958005e+004,-1.50607849612733e+001,-1.65150042118002e-001

2.05622765331213e+004,-1.50607850719779e+001,-1.67455450206505e-001

2.08493152168224e+004,-1.50607851857948e+001,-1.69793040567916e-001

2.11403608112276e+004,-1.50607853028115e+001,-1.72163262449267e-001

2.14354692507258e+004,-1.50607854231180e+001,-1.74566571367784e-001

2.17346972505211e+004,-1.50607855468066e+001,-1.77003429201279e-001

2.20381023175322e+004,-1.50607856739727e+001,-1.79474304272027e-001

2.23457427614443e+004,-1.50607858047139e+001,-1.81979671442919e-001

2.26576777059159e+004,-1.50607859391309e+001,-1.84520012203542e-001

2.29739670999406e+004,-1.50607860773267e+001,-1.87095814767407e-001

2.32946717293690e+004,-1.50607862194078e+001,-1.89707574159613e-001

2.36198532285905e+004,-1.50607863654831e+001,-1.92355792319248e-001

2.39495740923785e+004,-1.50607865156654e+001,-1.95040978187806e-001

2.42838976879009e+004,-1.50607866700698e+001,-1.97763647815309e-001

2.46228882668982e+004,-1.50607868288151e+001,-2.00524324453422e-001

2.49666109780322e+004,-1.50607869920232e+001,-2.03323538659076e-001

2.53151318794055e+004,-1.50607871598199e+001,-2.06161828393174e-001

2.56685179512580e+004,-1.50607873323339e+001,-2.09039739130022e-001

2.60268371088386e+004,-1.50607875096980e+001,-2.11957823954428e-001

2.63901582154578e+004,-1.50607876920483e+001,-2.14916643675402e-001

2.67585510957221e+004,-1.50607878795253e+001,-2.17916766926785e-001

2.71320865489533e+004,-1.50607880722730e+001,-2.20958770283776e-001

2.75108363627948e+004,-1.50607882704395e+001,-2.24043238367693e-001

2.78948733270080e+004,-1.50607884741771e+001,-2.27170763962344e-001

2.82842712474618e+004,-1.50607886836426e+001,-2.30341948125090e-001

2.86791049603164e+004,-1.50607888989971e+001,-2.33557400303906e-001

2.90794503464061e+004,-1.50607891204059e+001,-2.36817738454823e-001

2.94853843458219e+004,-1.50607893480393e+001,-2.40123589160450e-001

2.98969849726987e+004,-1.50607895820724e+001,-2.43475587748583e-001

3.03143313302078e+004,-1.50607898226850e+001,-2.46874378416703e-001

3.07375036257601e+004,-1.50607900700622e+001,-2.50320614354296e-001

3.11665831864199e+004,-1.50607903243941e+001,-2.53814957869968e-001

3.16016524745350e+004,-1.50607905858762e+001,-2.57358080516613e-001

3.20427951035848e+004,-1.50607908547095e+001,-2.60950663221863e-001

3.24900958542493e+004,-1.50607911311007e+001,-2.64593396418404e-001

3.29436406907028e+004,-1.50607914152623e+001,-2.68286980177672e-001

3.34035167771346e+004,-1.50607917074128e+001,-2.72032124341695e-001

3.38698124945009e+004,-1.50607920077767e+001,-2.75829548663856e-001

3.43426174575100e+004,-1.50607923165850e+001,-2.79679982942422e-001

3.48220225318448e+004,-1.50607926340750e+001,-2.83584167164466e-001

3.53081198516260e+004,-1.50607929604908e+001,-2.87542851646788e-001

3.58010028371187e+004,-1.50607932960834e+001,-2.91556797178631e-001

3.63007662126863e+004,-1.50607936411108e+001,-2.95626775170822e-001

3.68075060249948e+004,-1.50607939958381e+001,-2.99753567801325e-001

3.73213196614721e+004,-1.50607943605382e+001,-3.03937968167686e-001

3.78423058690237e+004,-1.50607947354913e+001,-3.08180780437366e-001

3.83705647730104e+004,-1.50607951209858e+001,-3.12482820003909e-001

3.89061978964912e+004,-1.50607955173179e+001,-3.16844913643174e-001

3.94493081797342e+004,-1.50607959247925e+001,-3.21267899671503e-001

3.99999999999998e+004,-1.50607963437225e+001,-3.25752628108927e-001

4.05583791916010e+004,-1.50607967744303e+001,-3.30299960838064e-001

4.11245530662425e+004,-1.50607972172469e+001,-3.34910771775862e-001

4.16986304336447e+004,-1.50607976725127e+001,-3.39585947036603e-001

4.22807216224550e+004,-1.50607981405777e+001,-3.44326385104586e-001

4.28709385014515e+004,-1.50607986218017e+001,-3.49132997005126e-001

4.34693945010421e+004,-1.50607991165546e+001,-3.54006706482034e-001

4.40762046350642e+004,-1.50607996252170e+001,-3.58948450172530e-001

4.46914855228886e+004,-1.50608001481796e+001,-3.63959177789223e-001

4.53153554118317e+004,-1.50608006858447e+001,-3.69039852300500e-001

4.59479341998812e+004,-1.50608012386255e+001,-3.74191450118914e-001

4.65893434587380e+004,-1.50608018069469e+001,-3.79414961285423e-001

4.72397064571810e+004,-1.50608023912460e+001,-3.84711389660580e-001

4.78991481847569e+004,-1.50608029919719e+001,-3.90081753118742e-001

4.85677953758016e+004,-1.50608036095863e+001,-3.95527083742097e-001

4.92457765337964e+004,-1.50608042445641e+001,-4.01048428020706e-001

4.99332219560642e+004,-1.50608048973935e+001,-4.06646847050999e-001

5.06302637588109e+004,-1.50608055685762e+001,-4.12323416742233e-001

5.13370359025159e+004,-1.50608062586283e+001,-4.18079228021468e-001

5.20536742176771e+004,-1.50608069680803e+001,-4.23915387044188e-001

5.27803164309155e+004,-1.50608076974775e+001,-4.29833015407420e-001

5.35171021914442e+004,-1.50608084473807e+001,-4.35833250363075e-001

5.42641730979066e+004,-1.50608092183664e+001,-4.41917245038144e-001

5.50216727255895e+004,-1.50608100110272e+001,-4.48086168656851e-001

5.57897466540159e+004,-1.50608108259726e+001,-4.54341206762493e-001

5.65685424949235e+004,-1.50608116638290e+001,-4.60683561449204e-001

5.73582099206328e+004,-1.50608125252404e+001,-4.67114451589946e-001

5.81589006928121e+004,-1.50608134108693e+001,-4.73635113070728e-001

5.89707686916437e+004,-1.50608143213963e+001,-4.80246799030739e-001

5.97939699453972e+004,-1.50608152575215e+001,-4.86950780099838e-001

6.06286626604156e+004,-1.50608162199644e+001,-4.93748344644989e-001

6.14750072515201e+004,-1.50608172094650e+001,-5.00640799017115e-001

6.23331663728396e+004,-1.50608182267840e+001,-5.07629467800912e-001

6.32033049490698e+004,-1.50608192727033e+001,-5.14715694072356e-001

6.40855902071694e+004,-1.50608203480271e+001,-5.21900839653018e-001

6.49801917084985e+004,-1.50608214535820e+001,-5.29186285374561e-001

6.58872813814055e+004,-1.50608225902178e+001,-5.36573431342875e-001

6.68070335542691e+004,-1.50608237588085e+001,-5.44063697206731e-001

6.77396249890018e+004,-1.50608249602523e+001,-5.51658522431585e-001

6.86852349150199e+004,-1.50608261954728e+001,-5.59359366575563e-001

6.96440450636895e+004,-1.50608274654196e+001,-5.67167709570136e-001

7.06162397032520e+004,-1.50608287710690e+001,-5.75085052003341e-001

7.16020056742374e+004,-1.50608301134246e+001,-5.83112915410215e-001

7.26015324253724e+004,-1.50608314935184e+001,-5.91252842562584e-001

7.36150120499896e+004,-1.50608329124112e+001,-5.99506397768028e-001

7.46426393229441e+004,-1.50608343711940e+001,-6.07875167167843e-001

7.56846117380472e+004,-1.50608358709881e+001,-6.16360759043998e-001

7.67411295460207e+004,-1.50608374129464e+001,-6.24964804127367e-001

7.78123957929823e+004,-1.50608389982543e+001,-6.33688955909803e-001

7.88986163594682e+004,-1.50608406281305e+001,-6.42534890963281e-001

7.99999999999995e+004,-1.50608423038279e+001,-6.51504309262596e-001

8.11167583832018e+004,-1.50608440266347e+001,-6.60598934508915e-001

8.22491061324848e+004,-1.50608457978752e+001,-6.69820514464101e-001

8.33972608672892e+004,-1.50608476189111e+001,-6.79170821284871e-001

8.45614432449099e+004,-1.50608494911423e+001,-6.88651651863734e-001

8.57418770029029e+004,-1.50608514160078e+001,-6.98264828174328e-001

8.69387890020841e+004,-1.50608533949876e+001,-7.08012197620023e-001

8.81524092701283e+004,-1.50608554296028e+001,-7.17895633390899e-001

8.93829710457770e+004,-1.50608575214176e+001,-7.27917034821946e-001

9.06307108236633e+004,-1.50608596720398e+001,-7.38078327759367e-001

9.18958683997622e+004,-1.50608618831228e+001,-7.48381464927961e-001

9.31786869174758e+004,-1.50608641563663e+001,-7.58828426309488e-001

9.44794129143618e+004,-1.50608664935177e+001,-7.69421219520803e-001

9.57982963695136e+004,-1.50608688963736e+001,-7.80161880199643e-001

9.71355907516031e+004,-1.50608713667812e+001,-7.91052472397095e-001

9.84915530675926e+004,-1.50608739066395e+001,-8.02095088971198e-001

9.98664439121282e+004,-1.50608765179008e+001,-8.13291851992756e-001

1.01260527517622e+005,-1.50608792025726e+001,-8.24644913149036e-001

1.02674071805032e+005,-1.50608819627185e+001,-8.36156454160166e-001

1.04107348435354e+005,-1.50608848004602e+001,-8.47828687195885e-001

1.05560632861831e+005,-1.50608877179791e+001,-8.59663855301701e-001

1.07034204382888e+005,-1.50608907175180e+001,-8.71664232829492e-001

1.08528346195813e+005,-1.50608938013825e+001,-8.83832125873224e-001

1.10043345451179e+005,-1.50608969719433e+001,-8.96169872713667e-001

1.11579493308032e+005,-1.50609002316375e+001,-9.08679844265948e-001

1.13137084989847e+005,-1.50609035829708e+001,-9.21364444535670e-001

1.14716419841265e+005,-1.50609070285193e+001,-9.34226111079692e-001

1.16317801385624e+005,-1.50609105709317e+001,-9.47267315474862e-001

1.17941537383287e+005,-1.50609142129308e+001,-9.60490563792763e-001

1.19587939890794e+005,-1.50609179573163e+001,-9.73898397080440e-001

1.21257325320831e+005,-1.50609218069664e+001,-9.87493391848906e-001

1.22950014503040e+005,-1.50609257648401e+001,-1.00127816056679e+000

1.24666332745679e+005,-1.50609298339799e+001,-1.01525535216306e+000

1.26406609898139e+005,-1.50609340175135e+001,-1.02942765253476e+000

1.28171180414339e+005,-1.50609383186567e+001,-1.04379778506357e+000

1.29960383416997e+005,-1.50609427407156e+001,-1.05836851113803e+000

1.31774562762811e+005,-1.50609472870893e+001,-1.07314263068322e+000

1.33614067108538e+005,-1.50609519612725e+001,-1.08812298269943e+000

1.35479249978003e+005,-1.50609567668580e+001,-1.10331244580647e+000

1.37370469830040e+005,-1.50609617075395e+001,-1.11871393879644e+000

1.39288090127379e+005,-1.50609667871147e+001,-1.13433042119414e+000

1.41232479406504e+005,-1.50609720094881e+001,-1.15016489382405e+000

1.43204011348474e+005,-1.50609773786737e+001,-1.16622039938830e+000

1.45203064850745e+005,-1.50609828987986e+001,-1.18250002304873e+000

1.47230024099979e+005,-1.50609885741057e+001,-1.19900689302073e+000

1.49285278645888e+005,-1.50609944089572e+001,-1.21574418117206e+000

1.51369223476094e+005,-1.50610004078379e+001,-1.23271510363286e+000

1.53482259092041e+005,-1.50610065753587e+001,-1.24992292141158e+000

1.55624791585964e+005,-1.50610129162600e+001,-1.26737094102266e+000

1.57797232718936e+005,-1.50610194354157e+001,-1.28506251511849e+000

1.59999999999999e+005,-1.50610261378363e+001,-1.30300104313503e+000

1.62233516766403e+005,-1.50610330286733e+001,-1.32118997194274e+000

1.64498212264969e+005,-1.50610401132232e+001,-1.33963279650791e+000

1.66794521734578e+005,-1.50610473969310e+001,-1.35833306056497e+000

1.69122886489819e+005,-1.50610548853948e+001,-1.37729435729373e+000

1.71483754005805e+005,-1.50610625843703e+001,-1.39652033001027e+000

1.73877578004168e+005,-1.50610704997747e+001,-1.41601467286561e+000

1.76304818540256e+005,-1.50610786376916e+001,-1.43578113155399e+000

1.78765942091554e+005,-1.50610870043754e+001,-1.45582350403198e+000

1.81261421647326e+005,-1.50610956062567e+001,-1.47614564124621e+000

1.83791736799524e+005,-1.50611044499462e+001,-1.49675144787247e+000

1.86357373834951e+005,-1.50611135422411e+001,-1.51764488306375e+000

1.88958825828723e+005,-1.50611228901289e+001,-1.53882996121091e+000

1.91596592739027e+005,-1.50611325007940e+001,-1.56031075271046e+000

1.94271181503206e+005,-1.50611423816224e+001,-1.58209138474723e+000

1.96983106135185e+005,-1.50611525402078e+001,-1.60417604208382e+000

1.99732887824256e+005,-1.50611629843572e+001,-1.62656896786420e+000

2.02521055035243e+005,-1.50611737220971e+001,-1.64927446442587e+000

2.05348143610063e+005,-1.50611847616794e+001,-1.67229689412605e+000

2.08214696870707e+005,-1.50611961115881e+001,-1.69564068017627e+000

2.11121265723661e+005,-1.50612077805454e+001,-1.71931030749135e+000

2.14068408765776e+005,-1.50612197775186e+001,-1.74331032354916e+000

2.17056692391625e+005,-1.50612321117270e+001,-1.76764533926000e+000

2.20086690902357e+005,-1.50612447926492e+001,-1.79232002985240e+000

2.23158986616063e+005,-1.50612578300297e+001,-1.81733913576784e+000

2.26274169979693e+005,-1.50612712338870e+001,-1.84270746356925e+000

2.29432839682530e+005,-1.50612850145211e+001,-1.86842988686171e+000

2.32635602771247e+005,-1.50612991825215e+001,-1.89451134722554e+000

2.35883074766574e+005,-1.50613137487751e+001,-1.92095685516353e+000

2.39175879781588e+005,-1.50613287244746e+001,-1.94777149105989e+000

2.42514650641661e+005,-1.50613441211274e+001,-1.97496040615359e+000

2.45900029006080e+005,-1.50613599505639e+001,-2.00252882352457e+000

2.49332665491357e+005,-1.50613762249471e+001,-2.03048203909315e+000

2.52813219796278e+005,-1.50613929567817e+001,-2.05882542263506e+000

2.56342360828676e+005,-1.50614101589236e+001,-2.08756441880779e+000

2.59920766833993e+005,-1.50614278445898e+001,-2.11670454819408e+000

2.63549125525621e+005,-1.50614460273687e+001,-2.14625140835757e+000

2.67228134217075e+005,-1.50614647212305e+001,-2.17621067491408e+000

2.70958499956006e+005,-1.50614839405377e+001,-2.20658810261698e+000

2.74740939660078e+005,-1.50615037000561e+001,-2.23738952645951e+000

2.78576180254757e+005,-1.50615240149667e+001,-2.26862086278926e+000

2.82464958813007e+005,-1.50615449008765e+001,-2.30028811044015e+000

2.86408022696948e+005,-1.50615663738310e+001,-2.33239735188049e+000

2.90406129701488e+005,-1.50615884503265e+001,-2.36495475437439e+000

2.94460048199957e+005,-1.50616111473225e+001,-2.39796657116175e+000

2.98570557291775e+005,-1.50616344822547e+001,-2.43143914265368e+000

3.02738446952187e+005,-1.50616584730488e+001,-2.46537889764290e+000

3.06964518184081e+005,-1.50616831381338e+001,-2.49979235453360e+000

3.11249583171928e+005,-1.50617084964561e+001,-2.53468612258649e+000

3.15594465437872e+005,-1.50617345674943e+001,-2.57006690318061e+000

3.19999999999997e+005,-1.50617613712739e+001,-2.60594149109332e+000

3.24467033532806e+005,-1.50617889283829e+001,-2.64231677579847e+000

3.28996424529938e+005,-1.50618172599873e+001,-2.67919974278123e+000

3.33589043469155e+005,-1.50618463878474e+001,-2.71659747487144e+000

3.38245772979638e+005,-1.50618763343344e+001,-2.75451715359530e+000

3.42967508011610e+005,-1.50619071224480e+001,-2.79296606054562e+000

3.47755156008335e+005,-1.50619387758330e+001,-2.83195157877151e+000

3.52609637080511e+005,-1.50619713187987e+001,-2.87148119418562e+000

3.57531884183106e+005,-1.50620047763364e+001,-2.91156249699231e+000

3.62522843294651e+005,-1.50620391741390e+001,-2.95220318313416e+000

3.67583473599047e+005,-1.50620745386209e+001,-2.99341105575916e+000

3.72714747669902e+005,-1.50621108969378e+001,-3.03519402670752e+000

3.77917651657445e+005,-1.50621482770076e+001,-3.07756011801933e+000

3.83193185478053e+005,-1.50621867075318e+001,-3.12051746346169e+000

3.88542363006410e+005,-1.50622262180175e+001,-3.16407431007817e+000

3.93966212270369e+005,-1.50622668387998e+001,-3.20823901975882e+000

3.99465775648511e+005,-1.50623086010654e+001,-3.25302007083063e+000

4.05042110070485e+005,-1.50623515368758e+001,-3.29842605967195e+000

4.10696287220124e+005,-1.50623956791925e+001,-3.34446570234674e+000

4.16429393741414e+005,-1.50624410619017e+001,-3.39114783626203e+000

4.22242531447321e+005,-1.50624877198404e+001,-3.43848142184840e+000

4.28136817531551e+005,-1.50625356888230e+001,-3.48647554426207e+000

4.34113384783250e+005,-1.50625850056687e+001,-3.53513941511123e+000

4.40173381804713e+005,-1.50626357082296e+001,-3.58448237420580e+000

4.46317973232124e+005,-1.50626878354194e+001,-3.63451389132998e+000

4.52548339959385e+005,-1.50627414272437e+001,-3.68524356803984e+000

4.58865679365059e+005,-1.50627965248298e+001,-3.73668113948497e+000

4.65271205542494e+005,-1.50628531704586e+001,-3.78883647625450e+000

4.71766149533147e+005,-1.50629114075969e+001,-3.84171958624862e+000

4.78351759563174e+005,-1.50629712809299e+001,-3.89534061657501e+000

4.85029301283321e+005,-1.50630328363963e+001,-3.94970985547094e+000

4.91800058012158e+005,-1.50630961212227e+001,-4.00483773425143e+000

4.98665330982714e+005,-1.50631611839595e+001,-4.06073482928376e+000

5.05626439592555e+005,-1.50632280745182e+001,-4.11741186398856e+000

5.12684721657352e+005,-1.50632968442097e+001,-4.17487971086691e+000

5.19841533667984e+005,-1.50633675457827e+001,-4.23314939355682e+000

5.27098251051240e+005,-1.50634402334645e+001,-4.29223208891433e+000

5.34456268434150e+005,-1.50635149630020e+001,-4.35213912912557e+000

5.41916999912011e+005,-1.50635917917044e+001,-4.41288200384524e+000

