Freq.,VOut,OutRef

1.00000000000000e+004,-4.14150943852421e+001,-3.60828801394900e-001

1.01395947979003e+004,-4.14150963172159e+001,-3.65865752764427e-001

1.02811382665607e+004,-4.14150983035040e+001,-3.70973016038844e-001

1.04246576084112e+004,-4.14151003456335e+001,-3.76151572679929e-001

1.05701804056138e+004,-4.14151024451743e+001,-3.81402417846757e-001

1.07177346253629e+004,-4.14151046037402e+001,-3.86726560590283e-001

1.08673486252606e+004,-4.14151068229908e+001,-3.92125024042439e-001

1.10190511587661e+004,-4.14151091046319e+001,-3.97598845615617e-001

1.11728713807222e+004,-4.14151114504176e+001,-4.03149077201938e-001

1.13288388529580e+004,-4.14151138621512e+001,-4.08776785373004e-001

1.14869835499703e+004,-4.14151163416867e+001,-4.14483051586447e-001

1.16473358646846e+004,-4.14151188909301e+001,-4.20268972395159e-001

1.18099266142953e+004,-4.14151215118412e+001,-4.26135659652920e-001

1.19747870461893e+004,-4.14151242064347e+001,-4.32084240733764e-001

1.21419488439505e+004,-4.14151269767820e+001,-4.38115858744384e-001

1.23114441334492e+004,-4.14151298250129e+001,-4.44231672744417e-001

1.24833054890161e+004,-4.14151327533167e+001,-4.50432857971152e-001

1.26575659397028e+004,-4.14151357639446e+001,-4.56720606061921e-001

1.28342589756290e+004,-4.14151388592110e+001,-4.63096125284327e-001

1.30134185544193e+004,-4.14151420414950e+001,-4.69560640770577e-001

1.31950791077289e+004,-4.14151453132432e+001,-4.76115394747500e-001

1.33792755478611e+004,-4.14151486769705e+001,-4.82761646779831e-001

1.35660432744767e+004,-4.14151521352628e+001,-4.89500674009651e-001

1.37554181813974e+004,-4.14151556907784e+001,-4.96333771402399e-001

1.39474366635040e+004,-4.14151593462505e+001,-5.03262251994191e-001

1.41421356237309e+004,-4.14151631044893e+001,-5.10287447145431e-001

1.43395524801583e+004,-4.14151669683836e+001,-5.17410706795842e-001

1.45397251732031e+004,-4.14151709409037e+001,-5.24633399723015e-001

1.47426921729110e+004,-4.14151750251033e+001,-5.31956913806138e-001

1.49484924863494e+004,-4.14151792241219e+001,-5.39382656290940e-001

1.51571656651040e+004,-4.14151835411873e+001,-5.46912054060964e-001

1.53687518128801e+004,-4.14151879796182e+001,-5.54546553911074e-001

1.55832915932100e+004,-4.14151925428262e+001,-5.62287622825294e-001

1.58008262372675e+004,-4.14151972343192e+001,-5.70136748257205e-001

1.60213975517924e+004,-4.14152020577035e+001,-5.78095438416497e-001

1.62450479271247e+004,-4.14152070166868e+001,-5.86165222559380e-001

1.64718203453514e+004,-4.14152121150810e+001,-5.94347651278679e-001

1.67017583885674e+004,-4.14152173568052e+001,-6.02644296804425e-001

1.69349062472505e+004,-4.14152227458888e+001,-6.11056753304402e-001

1.71713087287550e+004,-4.14152282864740e+001,-6.19586637190038e-001

1.74110112659224e+004,-4.14152339828200e+001,-6.28235587425608e-001

1.76540599258131e+004,-4.14152398393054e+001,-6.37005265844827e-001

1.79005014185594e+004,-4.14152458604320e+001,-6.45897357466253e-001

1.81503831063432e+004,-4.14152520508279e+001,-6.54913570820812e-001

1.84037530124975e+004,-4.14152584152517e+001,-6.64055638275567e-001

1.86606598307361e+004,-4.14152649585955e+001,-6.73325316367034e-001

1.89211529345119e+004,-4.14152716858889e+001,-6.82724386139854e-001

1.91852823865052e+004,-4.14152786023029e+001,-6.92254653485886e-001

1.94530989482457e+004,-4.14152857131539e+001,-7.01917949492642e-001

1.97246540898671e+004,-4.14152930239078e+001,-7.11716130791405e-001

1.99999999999999e+004,-4.14153005401838e+001,-7.21651079917232e-001

2.02791895958005e+004,-4.14153082677595e+001,-7.31724705665548e-001

2.05622765331213e+004,-4.14153162125747e+001,-7.41938943461326e-001

2.08493152168224e+004,-4.14153243807360e+001,-7.52295755729006e-001

2.11403608112276e+004,-4.14153327785218e+001,-7.62797132267565e-001

2.14354692507258e+004,-4.14153414123871e+001,-7.73445090633155e-001

2.17346972505211e+004,-4.14153502889678e+001,-7.84241676526241e-001

2.20381023175322e+004,-4.14153594150871e+001,-7.95188964181011e-001

2.23457427614443e+004,-4.14153687977593e+001,-8.06289056765379e-001

2.26576777059159e+004,-4.14153784441961e+001,-8.17544086783492e-001

2.29739670999406e+004,-4.14153883618121e+001,-8.28956216482641e-001

2.32946717293690e+004,-4.14153985582299e+001,-8.40527638270101e-001

2.36198532285905e+004,-4.14154090412867e+001,-8.52260575129228e-001

2.39495740923785e+004,-4.14154198190396e+001,-8.64157281050538e-001

2.42838976879009e+004,-4.14154308997724e+001,-8.76220041457648e-001

2.46228882668982e+004,-4.14154422920018e+001,-8.88451173648465e-001

2.49666109780322e+004,-4.14154540044836e+001,-9.00853027238397e-001

2.53151318794055e+004,-4.14154660462198e+001,-9.13427984609319e-001

2.56685179512580e+004,-4.14154784264654e+001,-9.26178461365279e-001

2.60268371088386e+004,-4.14154911547355e+001,-9.39106906796580e-001

2.63901582154578e+004,-4.14155042408126e+001,-9.52215804347001e-001

2.67585510957221e+004,-4.14155176947542e+001,-9.65507672088878e-001

2.71320865489533e+004,-4.14155315269001e+001,-9.78985063206587e-001

2.75108363627948e+004,-4.14155457478813e+001,-9.92650566482535e-001

2.78948733270080e+004,-4.14155603686269e+001,-1.00650680679438e+000

2.82842712474618e+004,-4.14155754003737e+001,-1.02055644561568e+000

2.86791049603164e+004,-4.14155908546738e+001,-1.03480218152635e+000

2.90794503464061e+004,-4.14156067434041e+001,-1.04924675072699e+000

2.94853843458219e+004,-4.14156230787755e+001,-1.06389292756254e+000

2.98969849726987e+004,-4.14156398733417e+001,-1.07874352505327e+000

3.03143313302078e+004,-4.14156571400093e+001,-1.09380139543105e+000

3.07375036257601e+004,-4.14156748920475e+001,-1.10906943068590e+000

3.11665831864199e+004,-4.14156931430986e+001,-1.12455056311682e+000

3.16016524745350e+004,-4.14157119071879e+001,-1.14024776589367e+000

3.20427951035848e+004,-4.14157311987350e+001,-1.15616405362379e+000

3.24900958542493e+004,-4.14157510325646e+001,-1.17230248292827e+000

3.29436406907028e+004,-4.14157714239180e+001,-1.18866615302456e+000

3.34035167771346e+004,-4.14157923884648e+001,-1.20525820631919e+000

3.38698124945009e+004,-4.14158139423146e+001,-1.22208182900712e+000

3.43426174575100e+004,-4.14158361020298e+001,-1.23914025167959e+000

3.48220225318448e+004,-4.14158588846383e+001,-1.25643674994022e+000

3.53081198516260e+004,-4.14158823076461e+001,-1.27397464503016e+000

3.58010028371187e+004,-4.14159063890512e+001,-1.29175730446130e+000

3.63007662126863e+004,-4.14159311473573e+001,-1.30978814265766e+000

3.68075060249948e+004,-4.14159566015879e+001,-1.32807062160768e+000

3.73213196614721e+004,-4.14159827713007e+001,-1.34660825152204e+000

3.78423058690237e+004,-4.14160096766032e+001,-1.36540459150402e+000

3.83705647730104e+004,-4.14160373381676e+001,-1.38446325022648e+000

3.89061978964912e+004,-4.14160657772467e+001,-1.40378788661940e+000

3.94493081797342e+004,-4.14160950156905e+001,-1.42338221056589e+000

3.99999999999998e+004,-4.14161250759627e+001,-1.44324998360874e+000

4.05583791916010e+004,-4.14161559811580e+001,-1.46339501966652e+000

4.11245530662425e+004,-4.14161877550198e+001,-1.48382118575824e+000

4.16986304336447e+004,-4.14162204219584e+001,-1.50453240273873e+000

4.22807216224550e+004,-4.14162540070697e+001,-1.52553264604437e+000

4.28709385014515e+004,-4.14162885361547e+001,-1.54682594644860e+000

4.34693945010421e+004,-4.14163240357387e+001,-1.56841639082709e+000

4.40762046350642e+004,-4.14163605330921e+001,-1.59030812293513e+000

4.46914855228886e+004,-4.14163980562514e+001,-1.61250534419266e+000

4.53153554118317e+004,-4.14164366340401e+001,-1.63501231448319e+000

4.59479341998812e+004,-4.14164762960916e+001,-1.65783335296093e+000

4.65893434587380e+004,-4.14165170728708e+001,-1.68097283887095e+000

4.72397064571810e+004,-4.14165589956988e+001,-1.70443521237787e+000

4.78991481847569e+004,-4.14166020967757e+001,-1.72822497540911e+000

4.85677953758016e+004,-4.14166464092060e+001,-1.75234669250643e+000

4.92457765337964e+004,-4.14166919670238e+001,-1.77680499169050e+000

4.99332219560642e+004,-4.14167388052186e+001,-1.80160456533735e+000

5.06302637588109e+004,-4.14167869597621e+001,-1.82675017106580e+000

5.13370359025159e+004,-4.14168364676364e+001,-1.85224663263702e+000

5.20536742176771e+004,-4.14168873668614e+001,-1.87809884086671e+000

5.27803164309155e+004,-4.14169396965246e+001,-1.90431175454864e+000

5.35171021914442e+004,-4.14169934968106e+001,-1.93089040139156e+000

5.42641730979066e+004,-4.14170488090322e+001,-1.95783987896833e+000

5.50216727255895e+004,-4.14171056756616e+001,-1.98516535567663e+000

5.57897466540159e+004,-4.14171641403633e+001,-2.01287207171470e+000

5.65685424949235e+004,-4.14172242480271e+001,-2.04096534006826e+000

5.73582099206328e+004,-4.14172860448030e+001,-2.06945054751079e+000

5.81589006928121e+004,-4.14173495781358e+001,-2.09833315561891e+000

5.89707686916437e+004,-4.14174148968021e+001,-2.12761870179790e+000

5.97939699453972e+004,-4.14174820509470e+001,-2.15731280032451e+000

6.06286626604156e+004,-4.14175510921227e+001,-2.18742114340133e+000

6.14750072515201e+004,-4.14176220733278e+001,-2.21794950222532e+000

6.23331663728396e+004,-4.14176950490482e+001,-2.24890372807091e+000

6.32033049490698e+004,-4.14177700752980e+001,-2.28028975338778e+000

6.40855902071694e+004,-4.14178472096631e+001,-2.31211359291207e+000

6.49801917084985e+004,-4.14179265113444e+001,-2.34438134479293e+000

6.58872813814055e+004,-4.14180080412038e+001,-2.37709919173351e+000

6.68070335542691e+004,-4.14180918618099e+001,-2.41027340214688e+000

6.77396249890018e+004,-4.14181780374864e+001,-2.44391033132831e+000

6.86852349150199e+004,-4.14182666343608e+001,-2.47801642263943e+000

6.96440450636895e+004,-4.14183577204152e+001,-2.51259820871249e+000

7.06162397032520e+004,-4.14184513655377e+001,-2.54766231266694e+000

7.16020056742374e+004,-4.14185476415761e+001,-2.58321544934176e+000

7.26015324253724e+004,-4.14186466223926e+001,-2.61926442654642e+000

7.36150120499896e+004,-4.14187483839201e+001,-2.65581614632533e+000

7.46426393229441e+004,-4.14188530042200e+001,-2.69287760623925e+000

7.56846117380472e+004,-4.14189605635417e+001,-2.73045590066428e+000

7.67411295460207e+004,-4.14190711443840e+001,-2.76855822210563e+000

7.78123957929823e+004,-4.14191848315575e+001,-2.80719186252994e+000

7.88986163594682e+004,-4.14193017122496e+001,-2.84636421471358e+000

7.99999999999995e+004,-4.14194218760907e+001,-2.88608277360806e+000

8.11167583832018e+004,-4.14195454152223e+001,-2.92635513772320e+000

8.22491061324848e+004,-4.14196724243672e+001,-2.96718901052788e+000

8.33972608672892e+004,-4.14198030009017e+001,-3.00859220186779e+000

8.45614432449099e+004,-4.14199372449294e+001,-3.05057262940129e+000

8.57418770029029e+004,-4.14200752593577e+001,-3.09313832005323e+000

8.69387890020841e+004,-4.14202171499753e+001,-3.13629741148739e+000

8.81524092701283e+004,-4.14203630255333e+001,-3.18005815359654e+000

8.93829710457770e+004,-4.14205129978273e+001,-3.22442891001112e+000

9.06307108236633e+004,-4.14206671817828e+001,-3.26941815962658e+000

9.18958683997622e+004,-4.14208256955415e+001,-3.31503449815028e+000

9.31786869174758e+004,-4.14209886605520e+001,-3.36128663966547e+000

9.44794129143618e+004,-4.14211562016613e+001,-3.40818341821613e+000

9.57982963695136e+004,-4.14213284472094e+001,-3.45573378941051e+000

9.71355907516031e+004,-4.14215055291268e+001,-3.50394683204367e+000

9.84915530675926e+004,-4.14216875830343e+001,-3.55283174973978e+000

9.98664439121282e+004,-4.14218747483459e+001,-3.60239787261451e+000

1.01260527517622e+005,-4.14220671683739e+001,-3.65265465895647e+000

1.02674071805032e+005,-4.14222649904375e+001,-3.70361169692923e+000

1.04107348435354e+005,-4.14224683659745e+001,-3.75527870629313e+000

1.05560632861831e+005,-4.14226774506554e+001,-3.80766554014705e+000

1.07034204382888e+005,-4.14228924045009e+001,-3.86078218669137e+000

1.08528346195813e+005,-4.14231133920031e+001,-3.91463877101021e+000

1.10043345451179e+005,-4.14233405822495e+001,-3.96924555687505e+000

1.11579493308032e+005,-4.14235741490502e+001,-4.02461294856899e+000

1.13137084989847e+005,-4.14238142710695e+001,-4.08075149273123e+000

1.14716419841265e+005,-4.14240611319601e+001,-4.13767188022238e+000

1.16317801385624e+005,-4.14243149205016e+001,-4.19538494801196e+000

1.17941537383287e+005,-4.14245758307424e+001,-4.25390168108542e+000

1.19587939890794e+005,-4.14248440621458e+001,-4.31323321437251e+000

1.21257325320831e+005,-4.14251198197397e+001,-4.37339083469800e+000

1.22950014503040e+005,-4.14254033142711e+001,-4.43438598275180e+000

1.24666332745679e+005,-4.14256947623636e+001,-4.49623025508207e+000

1.26406609898139e+005,-4.14259943866806e+001,-4.55893540610828e+000

1.28171180414339e+005,-4.14263024160917e+001,-4.62251335015640e+000

1.29960383416997e+005,-4.14266190858446e+001,-4.68697616351501e+000

1.31774562762811e+005,-4.14269446377406e+001,-4.75233608651306e+000

1.33614067108538e+005,-4.14272793203161e+001,-4.81860552561856e+000

1.35479249978003e+005,-4.14276233890280e+001,-4.88579705555917e+000

1.37370469830040e+005,-4.14279771064447e+001,-4.95392342146364e+000

1.39288090127379e+005,-4.14283407424416e+001,-5.02299754102419e+000

1.41232479406504e+005,-4.14287145744029e+001,-5.09303250668084e+000

1.43204011348474e+005,-4.14290988874277e+001,-5.16404158782666e+000

1.45203064850745e+005,-4.14294939745429e+001,-5.23603823303319e+000

1.47230024099979e+005,-4.14299001369201e+001,-5.30903607229770e+000

1.49285278645888e+005,-4.14303176841001e+001,-5.38304891931138e+000

1.51369223476094e+005,-4.14307469342225e+001,-5.45809077374630e+000

1.53482259092041e+005,-4.14311882142613e+001,-5.53417582356606e+000

1.55624791585964e+005,-4.14316418602674e+001,-5.61131844735340e+000

1.57797232718936e+005,-4.14321082176169e+001,-5.68953321665968e+000

1.59999999999999e+005,-4.14325876412668e+001,-5.76883489837435e+000

1.62233516766403e+005,-4.14330804960164e+001,-5.84923845711292e+000

1.64498212264969e+005,-4.14335871567771e+001,-5.93075905762508e+000

1.66794521734578e+005,-4.14341080088479e+001,-6.01341206722106e+000

1.69122886489819e+005,-4.14346434481989e+001,-6.09721305821827e+000

1.71483754005805e+005,-4.14351938817626e+001,-6.18217781040382e+000

1.73877578004168e+005,-4.14357597277321e+001,-6.26832231351687e+000

1.76304818540256e+005,-4.14363414158677e+001,-6.35566276974837e+000

1.78765942091554e+005,-4.14369393878114e+001,-6.44421559625606e+000

1.81261421647326e+005,-4.14375540974094e+001,-6.53399742769890e+000

1.83791736799524e+005,-4.14381860110435e+001,-6.62502511878477e+000

1.86357373834951e+005,-4.14388356079710e+001,-6.71731574683530e+000

1.88958825828723e+005,-4.14395033806729e+001,-6.81088661436522e+000

1.91596592739027e+005,-4.14401898352121e+001,-6.90575525167615e+000

1.94271181503206e+005,-4.14408954915999e+001,-7.00193941946328e+000

1.96983106135185e+005,-4.14416208841730e+001,-7.09945711143560e+000

1.99732887824256e+005,-4.14423665619789e+001,-7.19832655694827e+000

2.02521055035243e+005,-4.14431330891730e+001,-7.29856622364547e+000

2.05348143610063e+005,-4.14439210454236e+001,-7.40019482011493e+000

2.08214696870707e+005,-4.14447310263297e+001,-7.50323129855094e+000

2.11121265723661e+005,-4.14455636438476e+001,-7.60769485742633e+000

2.14068408765776e+005,-4.14464195267291e+001,-7.71360494417200e+000

2.17056692391625e+005,-4.14472993209707e+001,-7.82098125786289e+000

2.20086690902357e+005,-4.14482036902745e+001,-7.92984375190941e+000

2.23158986616063e+005,-4.14491333165198e+001,-8.04021263675255e+000

2.26274169979693e+005,-4.14500889002478e+001,-8.15210838256260e+000

2.29432839682530e+005,-4.14510711611569e+001,-8.26555172193868e+000

2.32635602771247e+005,-4.14520808386119e+001,-8.38056365260925e+000

2.35883074766574e+005,-4.14531186921649e+001,-8.49716544013055e+000

2.39175879781588e+005,-4.14541855020888e+001,-8.61537862058233e+000

2.42514650641661e+005,-4.14552820699254e+001,-8.73522500325960e+000

2.45900029006080e+005,-4.14564092190450e+001,-8.85672667335775e+000

2.49332665491357e+005,-4.14575677952212e+001,-8.97990599465021e+000

2.52813219796278e+005,-4.14587586672190e+001,-9.10478561215538e+000

2.56342360828676e+005,-4.14599827273971e+001,-9.23138845479315e+000

2.59920766833993e+005,-4.14612408923251e+001,-9.35973773802611e+000

2.63549125525621e+005,-4.14625341034152e+001,-9.48985696648621e+000

2.67228134217075e+005,-4.14638633275687e+001,-9.62176993658240e+000

2.70958499956006e+005,-4.14652295578385e+001,-9.75550073908801e+000

2.74740939660078e+005,-4.14666338141068e+001,-9.89107376170489e+000

2.78576180254757e+005,-4.14680771437787e+001,-1.00285136916027e+001

2.82464958813007e+005,-4.14695606224919e+001,-1.01678455179291e+001

2.86408022696948e+005,-4.14710853548436e+001,-1.03090945342899e+001

2.90406129701488e+005,-4.14726524751324e+001,-1.04522863411951e+001

2.94460048199957e+005,-4.14742631481196e+001,-1.05974468484672e+001

2.98570557291775e+005,-4.14759185698056e+001,-1.07446022776105e+001

3.02738446952187e+005,-4.14776199682249e+001,-1.08937791641374e+001

3.06964518184081e+005,-4.14793686042588e+001,-1.10450043598465e+001

3.11249583171928e+005,-4.14811657724662e+001,-1.11983050350522e+001

3.15594465437872e+005,-4.14830128019322e+001,-1.13537086807587e+001

3.19999999999997e+005,-4.14849110571358e+001,-1.15112431107779e+001

3.24467033532806e+005,-4.14868619388363e+001,-1.16709364637845e+001

3.28996424529938e+005,-4.14888668849786e+001,-1.18328172053051e+001

3.33589043469155e+005,-4.14909273716176e+001,-1.19969141296384e+001

3.38245772979638e+005,-4.14930449138624e+001,-1.21632563616989e+001

3.42967508011610e+005,-4.14952210668400e+001,-1.23318733587838e+001

3.47755156008335e+005,-4.14974574266792e+001,-1.25027949122535e+001

3.52609637080511e+005,-4.14997556315135e+001,-1.26760511491247e+001

3.57531884183106e+005,-4.15021173625059e+001,-1.28516725335694e+001

3.62522843294651e+005,-4.15045443448923e+001,-1.30296898683137e+001

3.67583473599047e+005,-4.15070383490470e+001,-1.32101342959327e+001

3.72714747669902e+005,-4.15096011915672e+001,-1.33930373000342e+001

3.77917651657445e+005,-4.15122347363803e+001,-1.35784307063273e+001

3.83193185478053e+005,-4.15149408958696e+001,-1.37663466835665e+001

3.88542363006410e+005,-4.15177216320231e+001,-1.39568177443697e+001

3.93966212270369e+005,-4.15205789576015e+001,-1.41498767458997e+001

3.99465775648511e+005,-4.15235149373285e+001,-1.43455568904043e+001

4.05042110070485e+005,-4.15265316891008e+001,-1.45438917256078e+001

4.10696287220124e+005,-4.15296313852201e+001,-1.47449151449482e+001

4.16429393741414e+005,-4.15328162536447e+001,-1.49486613876504e+001

4.22242531447321e+005,-4.15360885792631e+001,-1.51551650386295e+001

4.28136817531551e+005,-4.15394507051871e+001,-1.53644610282178e+001

4.34113384783250e+005,-4.15429050340657e+001,-1.55765846317040e+001

4.40173381804713e+005,-4.15464540294194e+001,-1.57915714686811e+001

4.46317973232124e+005,-4.15501002169937e+001,-1.60094575021909e+001

4.52548339959385e+005,-4.15538461861332e+001,-1.62302790376595e+001

4.58865679365059e+005,-4.15576945911739e+001,-1.64540727216132e+001

4.65271205542494e+005,-4.15616481528550e+001,-1.66808755401675e+001

4.71766149533147e+005,-4.15657096597496e+001,-1.69107248172786e+001

4.78351759563174e+005,-4.15698819697115e+001,-1.71436582127509e+001

4.85029301283321e+005,-4.15741680113419e+001,-1.73797137199868e+001

4.91800058012158e+005,-4.15785707854707e+001,-1.76189296634746e+001

4.98665330982714e+005,-4.15830933666549e+001,-1.78613446960005e+001

5.05626439592555e+005,-4.15877389046922e+001,-1.81069977955767e+001

5.12684721657352e+005,-4.15925106261490e+001,-1.83559282620757e+001

5.19841533667984e+005,-4.15974118359020e+001,-1.86081757135606e+001

5.27098251051240e+005,-4.16024459186925e+001,-1.88637800823000e+001

5.34456268434150e+005,-4.16076163406923e+001,-1.91227816104594e+001

5.41916999912011e+005,-4.16129266510805e+001,-1.93852208454560e+001

