Freq.,VOut,OutRef

1.00000000000000e+004,-1.72340076286912e+000,-1.32624939410777e-002

1.01395947979003e+004,-1.72340076206511e+000,-1.34476314559311e-002

1.02811382665607e+004,-1.72340076123786e+000,-1.36353533981491e-002

1.04246576084112e+004,-1.72340076038767e+000,-1.38256958390948e-002

1.05701804056138e+004,-1.72340075951365e+000,-1.40186953609726e-002

1.07177346253629e+004,-1.72340075861521e+000,-1.42143890549576e-002

1.08673486252606e+004,-1.72340075769117e+000,-1.44128145332746e-002

1.10190511587661e+004,-1.72340075674130e+000,-1.46140099271158e-002

1.11728713807222e+004,-1.72340075576474e+000,-1.48180139038230e-002

1.13288388529580e+004,-1.72340075476066e+000,-1.50248656704262e-002

1.14869835499703e+004,-1.72340075372857e+000,-1.52346049787943e-002

1.16473358646846e+004,-1.72340075266722e+000,-1.54472721403432e-002

1.18099266142953e+004,-1.72340075157603e+000,-1.56629080249755e-002

1.19747870461893e+004,-1.72340075045394e+000,-1.58815540758101e-002

1.21419488439505e+004,-1.72340074930074e+000,-1.61032523089628e-002

1.23114441334492e+004,-1.72340074811505e+000,-1.63280453346649e-002

1.24833054890161e+004,-1.72340074689613e+000,-1.65559763533506e-002

1.26575659397028e+004,-1.72340074564274e+000,-1.67870891718661e-002

1.28342589756290e+004,-1.72340074435395e+000,-1.70214282060374e-002

1.30134185544193e+004,-1.72340074302924e+000,-1.72590384894876e-002

1.31950791077289e+004,-1.72340074166689e+000,-1.74999656915194e-002

1.33792755478611e+004,-1.72340074026650e+000,-1.77442561102385e-002

1.35660432744767e+004,-1.72340073882692e+000,-1.79919566951021e-002

1.37554181813974e+004,-1.72340073734656e+000,-1.82431150530529e-002

1.39474366635040e+004,-1.72340073582465e+000,-1.84977794510394e-002

1.41421356237309e+004,-1.72340073426007e+000,-1.87559988306937e-002

1.43395524801583e+004,-1.72340073265157e+000,-1.90178228182231e-002

1.45397251732031e+004,-1.72340073099767e+000,-1.92833017334892e-002

1.47426921729110e+004,-1.72340072929729e+000,-1.95524865964127e-002

1.49484924863494e+004,-1.72340072754919e+000,-1.98254291393692e-002

1.51571656651040e+004,-1.72340072575189e+000,-2.01021818188856e-002

1.53687518128801e+004,-1.72340072390376e+000,-2.03827978238127e-002

1.55832915932100e+004,-1.72340072200407e+000,-2.06673310796832e-002

1.58008262372675e+004,-1.72340072005111e+000,-2.09558362710550e-002

1.60213975517924e+004,-1.72340071804279e+000,-2.12483688477785e-002

1.62450479271247e+004,-1.72340071597838e+000,-2.15449850247581e-002

1.64718203453514e+004,-1.72340071385548e+000,-2.18457418122524e-002

1.67017583885674e+004,-1.72340071167350e+000,-2.21506970045533e-002

1.69349062472505e+004,-1.72340070942987e+000,-2.24599092144855e-002

1.71713087287550e+004,-1.72340070712294e+000,-2.27734378676567e-002

1.74110112659224e+004,-1.72340070475163e+000,-2.30913432147498e-002

1.76540599258131e+004,-1.72340070231340e+000,-2.34136863568360e-002

1.79005014185594e+004,-1.72340069980658e+000,-2.37405292420613e-002

1.81503831063432e+004,-1.72340069722939e+000,-2.40719346833172e-002

1.84037530124975e+004,-1.72340069457938e+000,-2.44079663745409e-002

1.86606598307361e+004,-1.72340069185541e+000,-2.47486888901895e-002

1.89211529345119e+004,-1.72340068905464e+000,-2.50941677163999e-002

1.91852823865052e+004,-1.72340068617492e+000,-2.54444692487977e-002

1.94530989482457e+004,-1.72340068321452e+000,-2.57996608066315e-002

1.97246540898671e+004,-1.72340068017094e+000,-2.61598106539123e-002

1.99999999999999e+004,-1.72340067704152e+000,-2.65249880077010e-002

2.02791895958005e+004,-1.72340067382433e+000,-2.68952630458973e-002

2.05622765331213e+004,-1.72340067051668e+000,-2.72707069315688e-002

2.08493152168224e+004,-1.72340066711576e+000,-2.76513918206174e-002

2.11403608112276e+004,-1.72340066361954e+000,-2.80373908707181e-002

2.14354692507258e+004,-1.72340066002508e+000,-2.84287782666312e-002

2.17346972505211e+004,-1.72340065632925e+000,-2.88256292293728e-002

2.20381023175322e+004,-1.72340065252959e+000,-2.92280200248661e-002

2.23457427614443e+004,-1.72340064862329e+000,-2.96360279857137e-002

2.26576777059159e+004,-1.72340064460712e+000,-3.00497315257572e-002

2.29739670999406e+004,-1.72340064047793e+000,-3.04692101532188e-002

2.32946717293690e+004,-1.72340063623280e+000,-3.08945444835619e-002

2.36198532285905e+004,-1.72340063186839e+000,-3.13258162597589e-002

2.39495740923785e+004,-1.72340062738090e+000,-3.17631083680856e-002

2.42838976879009e+004,-1.72340062276754e+000,-3.22065048455287e-002

2.46228882668982e+004,-1.72340061802447e+000,-3.26560909073855e-002

2.49666109780322e+004,-1.72340061314799e+000,-3.31119529575677e-002

2.53151318794055e+004,-1.72340060813448e+000,-3.35741786049333e-002

2.56685179512580e+004,-1.72340060297987e+000,-3.40428566829272e-002

2.60268371088386e+004,-1.72340059768040e+000,-3.45180772635783e-002

2.63901582154578e+004,-1.72340059223222e+000,-3.49999316745688e-002

2.67585510957221e+004,-1.72340058663050e+000,-3.54885125254912e-002

2.71320865489533e+004,-1.72340058087144e+000,-3.59839137105614e-002

2.75108363627948e+004,-1.72340057495045e+000,-3.64862304388905e-002

2.78948733270080e+004,-1.72340056886319e+000,-3.69955592468053e-002

2.82842712474618e+004,-1.72340056260453e+000,-3.75119980222958e-002

2.86791049603164e+004,-1.72340055616991e+000,-3.80356460148623e-002

2.90794503464061e+004,-1.72340054955465e+000,-3.85666038599776e-002

2.94853843458219e+004,-1.72340054275315e+000,-3.91049736025883e-002

2.98969849726987e+004,-1.72340053576061e+000,-3.96508587061082e-002

3.03143313302078e+004,-1.72340052857142e+000,-4.02043640829441e-002

3.07375036257601e+004,-1.72340052118013e+000,-4.07655961074443e-002

3.11665831864199e+004,-1.72340051358086e+000,-4.13346626410127e-002

3.16016524745350e+004,-1.72340050576804e+000,-4.19116730475629e-002

3.20427951035848e+004,-1.72340049773573e+000,-4.24967382187802e-002

3.24900958542493e+004,-1.72340048947746e+000,-4.30899705973376e-002

3.29436406907028e+004,-1.72340048098704e+000,-4.36914841918310e-002

3.34035167771346e+004,-1.72340047225795e+000,-4.43013946040016e-002

3.38698124945009e+004,-1.72340046328341e+000,-4.49198190494795e-002

3.43426174575100e+004,-1.72340045405665e+000,-4.55468763788143e-002

3.48220225318448e+004,-1.72340044457046e+000,-4.61826871033328e-002

3.53081198516260e+004,-1.72340043481749e+000,-4.68273734164785e-002

3.58010028371187e+004,-1.72340042479043e+000,-4.74810592157281e-002

3.63007662126863e+004,-1.72340041448147e+000,-4.81438701298370e-002

3.68075060249948e+004,-1.72340040388258e+000,-4.88159335412740e-002

3.73213196614721e+004,-1.72340039298578e+000,-4.94973786091169e-002

3.78423058690237e+004,-1.72340038178261e+000,-5.01883362970003e-002

3.83705647730104e+004,-1.72340037026450e+000,-5.08889393959863e-002

3.89061978964912e+004,-1.72340035842255e+000,-5.15993225513314e-002

3.94493081797342e+004,-1.72340034624768e+000,-5.23196222875044e-002

3.99999999999998e+004,-1.72340033373046e+000,-5.30499770350016e-002

4.05583791916010e+004,-1.72340032086147e+000,-5.37905271556900e-002

4.11245530662425e+004,-1.72340030763061e+000,-5.45414149730459e-002

4.16986304336447e+004,-1.72340029402792e+000,-5.53027847942062e-002

4.22807216224550e+004,-1.72340028004272e+000,-5.60747829445981e-002

4.28709385014515e+004,-1.72340026566421e+000,-5.68575577902909e-002

4.34693945010421e+004,-1.72340025088152e+000,-5.76512597670541e-002

4.40762046350642e+004,-1.72340023568323e+000,-5.84560414125580e-002

4.46914855228886e+004,-1.72340022005776e+000,-5.92720573928002e-002

4.53153554118317e+004,-1.72340020399299e+000,-6.00994645339278e-002

4.59479341998812e+004,-1.72340018747646e+000,-6.09384218512431e-002

4.65893434587380e+004,-1.72340017049575e+000,-6.17890905774494e-002

4.72397064571810e+004,-1.72340015303745e+000,-6.26516342005085e-002

4.78991481847569e+004,-1.72340013508844e+000,-6.35262184856901e-002

4.85677953758016e+004,-1.72340011663487e+000,-6.44130115149550e-002

4.92457765337964e+004,-1.72340009766247e+000,-6.53121837165260e-002

4.99332219560642e+004,-1.72340007815659e+000,-6.62239078978444e-002

5.06302637588109e+004,-1.72340005810244e+000,-6.71483592767983e-002

5.13370359025159e+004,-1.72340003748430e+000,-6.80857155204445e-002

5.20536742176771e+004,-1.72340001628675e+000,-6.90361567715421e-002

5.27803164309155e+004,-1.72339999449303e+000,-6.99998656929077e-002

5.35171021914442e+004,-1.72339997208682e+000,-7.09770274917041e-002

5.42641730979066e+004,-1.72339994905053e+000,-7.19678299657363e-002

5.50216727255895e+004,-1.72339992536666e+000,-7.29724635305467e-002

5.57897466540159e+004,-1.72339990101685e+000,-7.39911212618849e-002

5.65685424949235e+004,-1.72339987598271e+000,-7.50239989278819e-002

5.73582099206328e+004,-1.72339985024457e+000,-7.60712950347270e-002

5.81589006928121e+004,-1.72339982378301e+000,-7.71332108538790e-002

5.89707686916437e+004,-1.72339979657738e+000,-7.82099504710528e-002

5.97939699453972e+004,-1.72339976860689e+000,-7.93017208183854e-002

6.06286626604156e+004,-1.72339973985003e+000,-8.04087317171418e-002

6.14750072515201e+004,-1.72339971028467e+000,-8.15311959178700e-002

6.23331663728396e+004,-1.72339967988816e+000,-8.26693291402941e-002

6.32033049490698e+004,-1.72339964863726e+000,-8.38233501154101e-002

6.40855902071694e+004,-1.72339961650750e+000,-8.49934806310499e-002

6.49801917084985e+004,-1.72339958347469e+000,-8.61799455648375e-002

6.58872813814055e+004,-1.72339954951297e+000,-8.73829729400901e-002

6.68070335542691e+004,-1.72339951459672e+000,-8.86027939571483e-002

6.77396249890018e+004,-1.72339947869867e+000,-8.98396430494797e-002

6.86852349150199e+004,-1.72339944179144e+000,-9.10937579189734e-002

6.96440450636895e+004,-1.72339940384658e+000,-9.23653795878903e-002

7.06162397032520e+004,-1.72339936483482e+000,-9.36547524429677e-002

7.16020056742374e+004,-1.72339932472645e+000,-9.49621242801391e-002

7.26015324253724e+004,-1.72339928349054e+000,-9.62877463565213e-002

7.36150120499896e+004,-1.72339924109526e+000,-9.76318734373947e-002

7.46426393229441e+004,-1.72339919750814e+000,-9.89947638425856e-002

7.56846117380472e+004,-1.72339915269557e+000,-1.00376679499498e-001

7.67411295460207e+004,-1.72339910662309e+000,-1.01777885991007e-001

7.78123957929823e+004,-1.72339905925528e+000,-1.03198652608070e-001

7.88986163594682e+004,-1.72339901055595e+000,-1.04639252398234e-001

7.99999999999995e+004,-1.72339896048741e+000,-1.06099962224865e-001

8.11167583832018e+004,-1.72339890901120e+000,-1.07581062813816e-001

8.22491061324848e+004,-1.72339885608794e+000,-1.09082838808500e-001

8.33972608672892e+004,-1.72339880167673e+000,-1.10605578829290e-001

8.45614432449099e+004,-1.72339874573583e+000,-1.12149575522795e-001

8.57418770029029e+004,-1.72339868822225e+000,-1.13715125621690e-001

8.69387890020841e+004,-1.72339862909164e+000,-1.15302530001547e-001

8.81524092701283e+004,-1.72339856829871e+000,-1.16912093736953e-001

8.93829710457770e+004,-1.72339850579668e+000,-1.18544126161213e-001

9.06307108236633e+004,-1.72339844153756e+000,-1.20198940926518e-001

9.18958683997622e+004,-1.72339837547174e+000,-1.21876856064071e-001

9.31786869174758e+004,-1.72339830754864e+000,-1.23578194042677e-001

9.44794129143618e+004,-1.72339823771582e+000,-1.25303281835287e-001

9.57982963695136e+004,-1.72339816591995e+000,-1.27052450975707e-001

9.71355907516031e+004,-1.72339809210545e+000,-1.28826037630115e-001

9.84915530675926e+004,-1.72339801621575e+000,-1.30624382654157e-001

9.98664439121282e+004,-1.72339793819253e+000,-1.32447831662505e-001

1.01260527517622e+005,-1.72339785797585e+000,-1.34296735094864e-001

1.02674071805032e+005,-1.72339777550405e+000,-1.36171448282108e-001

1.04107348435354e+005,-1.72339769071355e+000,-1.38072331517841e-001

1.05560632861831e+005,-1.72339760353918e+000,-1.39999750122997e-001

1.07034204382888e+005,-1.72339751391408e+000,-1.41954074517542e-001

1.08528346195813e+005,-1.72339742176942e+000,-1.43935680293793e-001

1.10043345451179e+005,-1.72339732703405e+000,-1.45944948288282e-001

1.11579493308032e+005,-1.72339722963534e+000,-1.47982264651381e-001

1.13137084989847e+005,-1.72339712949844e+000,-1.50048020924952e-001

1.14716419841265e+005,-1.72339702654628e+000,-1.52142614117309e-001

1.16317801385624e+005,-1.72339692069977e+000,-1.54266446778342e-001

1.17941537383287e+005,-1.72339681187754e+000,-1.56419927077044e-001

1.19587939890794e+005,-1.72339669999580e+000,-1.58603468881618e-001

1.21257325320831e+005,-1.72339658496880e+000,-1.60817491835171e-001

1.22950014503040e+005,-1.72339646670782e+000,-1.63062421442072e-001

1.24666332745679e+005,-1.72339634512211e+000,-1.65338689144390e-001

1.26406609898139e+005,-1.72339622011827e+000,-1.67646732406647e-001

1.28171180414339e+005,-1.72339609160001e+000,-1.69986994802580e-001

1.29960383416997e+005,-1.72339595946861e+000,-1.72359926096231e-001

1.31774562762811e+005,-1.72339582362254e+000,-1.74765982330258e-001

1.33614067108538e+005,-1.72339568395743e+000,-1.77205625913345e-001

1.35479249978003e+005,-1.72339554036562e+000,-1.79679325711725e-001

1.37370469830040e+005,-1.72339539273701e+000,-1.82187557133180e-001

1.39288090127379e+005,-1.72339524095803e+000,-1.84730802224367e-001

1.41232479406504e+005,-1.72339508491199e+000,-1.87309549760478e-001

1.43204011348474e+005,-1.72339492447883e+000,-1.89924295340836e-001

1.45203064850745e+005,-1.72339475953525e+000,-1.92575541481929e-001

1.47230024099979e+005,-1.72339458995464e+000,-1.95263797714479e-001

1.49285278645888e+005,-1.72339441560642e+000,-1.97989580684855e-001

1.51369223476094e+005,-1.72339423635671e+000,-2.00753414248837e-001

1.53482259092041e+005,-1.72339405206752e+000,-2.03555829577972e-001

1.55624791585964e+005,-1.72339386259724e+000,-2.06397365256645e-001

1.57797232718936e+005,-1.72339366780035e+000,-2.09278567387583e-001

1.59999999999999e+005,-1.72339346752702e+000,-2.12199989698231e-001

1.62233516766403e+005,-1.72339326162316e+000,-2.15162193646293e-001

1.64498212264969e+005,-1.72339304993071e+000,-2.18165748524878e-001

1.66794521734578e+005,-1.72339283228672e+000,-2.21211231577493e-001

1.69122886489819e+005,-1.72339260852394e+000,-2.24299228103796e-001

1.71483754005805e+005,-1.72339237847042e+000,-2.27430331574156e-001

1.73877578004168e+005,-1.72339214194924e+000,-2.30605143744619e-001

1.76304818540256e+005,-1.72339189877860e+000,-2.33824274770770e-001

1.78765942091554e+005,-1.72339164877155e+000,-2.37088343326776e-001

1.81261421647326e+005,-1.72339139173571e+000,-2.40397976723661e-001

1.83791736799524e+005,-1.72339112747382e+000,-2.43753811027003e-001

1.86357373834951e+005,-1.72339085578251e+000,-2.47156491184941e-001

1.88958825828723e+005,-1.72339057645310e+000,-2.50606671146661e-001

1.91596592739027e+005,-1.72339028927066e+000,-2.54105013992446e-001

1.94271181503206e+005,-1.72338999401436e+000,-2.57652192058759e-001

1.96983106135185e+005,-1.72338969045741e+000,-2.61248887065947e-001

1.99732887824256e+005,-1.72338937836646e+000,-2.64895790252502e-001

2.02521055035243e+005,-1.72338905750138e+000,-2.68593602507534e-001

2.05348143610063e+005,-1.72338872761568e+000,-2.72343034502696e-001

2.08214696870707e+005,-1.72338838845565e+000,-2.76144806831725e-001

2.11121265723661e+005,-1.72338803976070e+000,-2.79999650146990e-001

2.14068408765776e+005,-1.72338768126266e+000,-2.83908305301857e-001

2.17056692391625e+005,-1.72338731268586e+000,-2.87871523491821e-001

2.20086690902357e+005,-1.72338693374718e+000,-2.91890066397352e-001

2.23158986616063e+005,-1.72338654415507e+000,-2.95964706334976e-001

2.26274169979693e+005,-1.72338614361015e+000,-3.00096226400651e-001

2.29432839682530e+005,-1.72338573180458e+000,-3.04285420622238e-001

2.32635602771247e+005,-1.72338530842162e+000,-3.08533094114309e-001

2.35883074766574e+005,-1.72338487313584e+000,-3.12840063229303e-001

2.39175879781588e+005,-1.72338442561274e+000,-3.17207155715637e-001

2.42514650641661e+005,-1.72338396550805e+000,-3.21635210879483e-001

2.45900029006080e+005,-1.72338349246833e+000,-3.26125079741034e-001

2.49332665491357e+005,-1.72338300612975e+000,-3.30677625203297e-001

2.52813219796278e+005,-1.72338250611852e+000,-3.35293722213955e-001

2.56342360828676e+005,-1.72338199205019e+000,-3.39974257936456e-001

2.59920766833993e+005,-1.72338146352964e+000,-3.44720131918052e-001

2.63549125525621e+005,-1.72338092015049e+000,-3.49532256264891e-001

2.67228134217075e+005,-1.72338036149510e+000,-3.54411555815575e-001

2.70958499956006e+005,-1.72337978713405e+000,-3.59358968320064e-001

2.74740939660078e+005,-1.72337919662569e+000,-3.64375444620334e-001

2.78576180254757e+005,-1.72337858951606e+000,-3.69461948831971e-001

2.82464958813007e+005,-1.72337796533848e+000,-3.74619458529558e-001

2.86408022696948e+005,-1.72337732361331e+000,-3.79848964934737e-001

2.90406129701488e+005,-1.72337666384691e+000,-3.85151473108924e-001

2.94460048199957e+005,-1.72337598553227e+000,-3.90528002142853e-001

2.98570557291775e+005,-1.72337528814802e+000,-3.95979585354261e-001

3.02738446952187e+005,-1.72337457115784e+000,-4.01507270488582e-001

3.06964518184081e+005,-1.72337383401079e+000,-4.07112119915355e-001

3.11249583171928e+005,-1.72337307613995e+000,-4.12795210838583e-001

3.15594465437872e+005,-1.72337229696291e+000,-4.18557635497993e-001

3.19999999999997e+005,-1.72337149588065e+000,-4.24400501383249e-001

3.24467033532806e+005,-1.72337067227731e+000,-4.30324931444906e-001

3.28996424529938e+005,-1.72336982551978e+000,-4.36332064310984e-001

3.33589043469155e+005,-1.72336895495716e+000,-4.42423054505030e-001

3.38245772979638e+005,-1.72336805992018e+000,-4.48599072669367e-001

3.42967508011610e+005,-1.72336713972084e+000,-4.54861305788630e-001

3.47755156008335e+005,-1.72336619365177e+000,-4.61210957419554e-001

3.52609637080511e+005,-1.72336522098563e+000,-4.67649247921598e-001

3.57531884183106e+005,-1.72336422097481e+000,-4.74177414690863e-001

3.62522843294651e+005,-1.72336319285053e+000,-4.80796712399402e-001

3.67583473599047e+005,-1.72336213582244e+000,-4.87508413235538e-001

3.72714747669902e+005,-1.72336104907801e+000,-4.94313807149044e-001

3.77917651657445e+005,-1.72335993178182e+000,-5.01214202098334e-001

3.83193185478053e+005,-1.72335878307500e+000,-5.08210924302537e-001

3.88542363006410e+005,-1.72335760207455e+000,-5.15305318496678e-001

3.93966212270369e+005,-1.72335638787255e+000,-5.22498748190180e-001

3.99465775648511e+005,-1.72335513953574e+000,-5.29792595927784e-001

4.05042110070485e+005,-1.72335385610442e+000,-5.37188263557872e-001

4.10696287220124e+005,-1.72335253659199e+000,-5.44687172500139e-001

4.16429393741414e+005,-1.72335117998427e+000,-5.52290764018188e-001

4.22242531447321e+005,-1.72334978523835e+000,-5.60000499499500e-001

4.28136817531551e+005,-1.72334835128212e+000,-5.67817860734043e-001

4.34113384783250e+005,-1.72334687701320e+000,-5.75744350200708e-001

4.40173381804713e+005,-1.72334536129849e+000,-5.83781491354182e-001

4.46317973232124e+005,-1.72334380297275e+000,-5.91930828920959e-001

4.52548339959385e+005,-1.72334220083813e+000,-6.00193929193353e-001

4.58865679365059e+005,-1.72334055366314e+000,-6.08572380332812e-001

4.65271205542494e+005,-1.72333886018161e+000,-6.17067792674422e-001

4.71766149533147e+005,-1.72333711909169e+000,-6.25681799037595e-001

4.78351759563174e+005,-1.72333532905516e+000,-6.34416055037710e-001

4.85029301283321e+005,-1.72333348869597e+000,-6.43272239407877e-001

4.91800058012158e+005,-1.72333159659957e+000,-6.52252054318575e-001

4.98665330982714e+005,-1.72332965131154e+000,-6.61357225707831e-001

5.05626439592555e+005,-1.72332765133657e+000,-6.70589503611393e-001

5.12684721657352e+005,-1.72332559513732e+000,-6.79950662499897e-001

5.19841533667984e+005,-1.72332348113330e+000,-6.89442501620398e-001

5.27098251051240e+005,-1.72332130769958e+000,-6.99066845341733e-001

5.34456268434150e+005,-1.72331907316543e+000,-7.08825543507002e-001

5.41916999912011e+005,-1.72331677581347e+000,-7.18720471786595e-001

