Freq.,VOut,OutRef

1.00000000000000e+004,-1.24199439839527e+000,-1.24910738892269e-001

1.01395947979003e+004,-1.24199434565203e+000,-1.26654428204570e-001

1.02811382665607e+004,-1.24199429142615e+000,-1.28422458527743e-001

1.04246576084112e+004,-1.24199423567574e+000,-1.30215169651388e-001

1.05701804056138e+004,-1.24199417835792e+000,-1.32032906107502e-001

1.07177346253629e+004,-1.24199411942870e+000,-1.33876017236641e-001

1.08673486252606e+004,-1.24199405884275e+000,-1.35744857257442e-001

1.10190511587661e+004,-1.24199399655345e+000,-1.37639785332752e-001

1.11728713807222e+004,-1.24199393251313e+000,-1.39561165637778e-001

1.13288388529580e+004,-1.24199386667227e+000,-1.41509367434506e-001

1.14869835499703e+004,-1.24199379898034e+000,-1.43484765137245e-001

1.16473358646846e+004,-1.24199372938534e+000,-1.45487738387643e-001

1.18099266142953e+004,-1.24199365783380e+000,-1.47518672126688e-001

1.19747870461893e+004,-1.24199358427069e+000,-1.49577956669299e-001

1.21419488439505e+004,-1.24199350863950e+000,-1.51665987779069e-001

1.23114441334492e+004,-1.24199343088199e+000,-1.53783166744398e-001

1.24833054890161e+004,-1.24199335093843e+000,-1.55929900455451e-001

1.26575659397028e+004,-1.24199326874725e+000,-1.58106601482898e-001

1.28342589756290e+004,-1.24199318424547e+000,-1.60313688154753e-001

1.30134185544193e+004,-1.24199309736807e+000,-1.62551584640623e-001

1.31950791077289e+004,-1.24199300804814e+000,-1.64820721031592e-001

1.33792755478611e+004,-1.24199291621702e+000,-1.67121533421877e-001

1.35660432744767e+004,-1.24199282180432e+000,-1.69454463992052e-001

1.37554181813974e+004,-1.24199272473732e+000,-1.71819961097867e-001

1.39474366635040e+004,-1.24199262494142e+000,-1.74218479352392e-001

1.41421356237309e+004,-1.24199252233971e+000,-1.76650479716739e-001

1.43395524801583e+004,-1.24199241685367e+000,-1.79116429583451e-001

1.45397251732031e+004,-1.24199230840196e+000,-1.81616802873021e-001

1.47426921729110e+004,-1.24199219690126e+000,-1.84152080120171e-001

1.49484924863494e+004,-1.24199208226593e+000,-1.86722748567699e-001

1.51571656651040e+004,-1.24199196440767e+000,-1.89329302261221e-001

1.53687518128801e+004,-1.24199184323598e+000,-1.91972242141822e-001

1.55832915932100e+004,-1.24199171865776e+000,-1.94652076143664e-001

1.58008262372675e+004,-1.24199159057716e+000,-1.97369319292283e-001

1.60213975517924e+004,-1.24199145889574e+000,-2.00124493802275e-001

1.62450479271247e+004,-1.24199132351227e+000,-2.02918129178169e-001

1.64718203453514e+004,-1.24199118432276e+000,-2.05750762315990e-001

1.67017583885674e+004,-1.24199104122000e+000,-2.08622937608002e-001

1.69349062472505e+004,-1.24199089409415e+000,-2.11535207044350e-001

1.71713087287550e+004,-1.24199074283200e+000,-2.14488130321676e-001

1.74110112659224e+004,-1.24199058731732e+000,-2.17482274949541e-001

1.76540599258131e+004,-1.24199042743063e+000,-2.20518216359256e-001

1.79005014185594e+004,-1.24199026304880e+000,-2.23596538017115e-001

1.81503831063432e+004,-1.24199009404573e+000,-2.26717831531081e-001

1.84037530124975e+004,-1.24198992029128e+000,-2.29882696771084e-001

1.86606598307361e+004,-1.24198974165202e+000,-2.33091741978579e-001

1.89211529345119e+004,-1.24198955799051e+000,-2.36345583887947e-001

1.91852823865052e+004,-1.24198936916562e+000,-2.39644847841409e-001

1.94530989482457e+004,-1.24198917503218e+000,-2.42990167911624e-001

1.97246540898671e+004,-1.24198897544092e+000,-2.46382187023106e-001

1.99999999999999e+004,-1.24198877023843e+000,-2.49821557074343e-001

2.02791895958005e+004,-1.24198855926690e+000,-2.53308939065589e-001

2.05622765331213e+004,-1.24198834236431e+000,-2.56845003222507e-001

2.08493152168224e+004,-1.24198811936376e+000,-2.60430429128971e-001

2.11403608112276e+004,-1.24198789009384e+000,-2.64065905855290e-001

2.14354692507258e+004,-1.24198765437829e+000,-2.67752132090579e-001

2.17346972505211e+004,-1.24198741203599e+000,-2.71489816277285e-001

2.20381023175322e+004,-1.24198716288050e+000,-2.75279676748899e-001

2.23457427614443e+004,-1.24198690672040e+000,-2.79122441865130e-001

2.26576777059159e+004,-1.24198664335869e+000,-2.83018850154697e-001

2.29739670999406e+004,-1.24198637259302e+000,-2.86969650455222e-001

2.32946717293690e+004,-1.24198609421505e+000,-2.90975602059249e-001

2.36198532285905e+004,-1.24198580801099e+000,-2.95037474857321e-001

2.39495740923785e+004,-1.24198551376063e+000,-2.99156049489111e-001

2.42838976879009e+004,-1.24198521123790e+000,-3.03332117490732e-001

2.46228882668982e+004,-1.24198490021017e+000,-3.07566481449247e-001

2.49666109780322e+004,-1.24198458043839e+000,-3.11859955154472e-001

2.53151318794055e+004,-1.24198425167665e+000,-3.16213363758416e-001

2.56685179512580e+004,-1.24198391367227e+000,-3.20627543930706e-001

2.60268371088386e+004,-1.24198356616545e+000,-3.25103344021164e-001

2.63901582154578e+004,-1.24198320888891e+000,-3.29641624223334e-001

2.67585510957221e+004,-1.24198284156818e+000,-3.34243256737975e-001

2.71320865489533e+004,-1.24198246392070e+000,-3.38909125943186e-001

2.75108363627948e+004,-1.24198207565625e+000,-3.43640128561656e-001

2.78948733270080e+004,-1.24198167647634e+000,-3.48437173835029e-001

2.82842712474618e+004,-1.24198126607421e+000,-3.53301183697642e-001

2.86791049603164e+004,-1.24198084413414e+000,-3.58233092955437e-001

2.90794503464061e+004,-1.24198041033195e+000,-3.63233849462428e-001

2.94853843458219e+004,-1.24197996433406e+000,-3.68304414306544e-001

2.98969849726987e+004,-1.24197950579767e+000,-3.73445761991238e-001

3.03143313302078e+004,-1.24197903437027e+000,-3.78658880625139e-001

3.07375036257601e+004,-1.24197854968951e+000,-3.83944772110354e-001

3.11665831864199e+004,-1.24197805138266e+000,-3.89304452337215e-001

3.16016524745350e+004,-1.24197753906674e+000,-3.94738951376222e-001

3.20427951035848e+004,-1.24197701234800e+000,-4.00249313678748e-001

3.24900958542493e+004,-1.24197647082131e+000,-4.05836598277743e-001

3.29436406907028e+004,-1.24197591407061e+000,-4.11501878989148e-001

3.34035167771346e+004,-1.24197534166780e+000,-4.17246244620768e-001

3.38698124945009e+004,-1.24197475317282e+000,-4.23070799180527e-001

3.43426174575100e+004,-1.24197414813335e+000,-4.28976662088220e-001

3.48220225318448e+004,-1.24197352608426e+000,-4.34964968391135e-001

3.53081198516260e+004,-1.24197288654739e+000,-4.41036868982623e-001

3.58010028371187e+004,-1.24197222903100e+000,-4.47193530823751e-001

3.63007662126863e+004,-1.24197155302975e+000,-4.53436137165314e-001

3.68075060249948e+004,-1.24197085802402e+000,-4.59765887777465e-001

3.73213196614721e+004,-1.24197014347940e+000,-4.66183999181222e-001

3.78423058690237e+004,-1.24196940884666e+000,-4.72691704879251e-001

3.83705647730104e+004,-1.24196865356118e+000,-4.79290255594519e-001

3.89061978964912e+004,-1.24196787704219e+000,-4.85980919512489e-001

3.94493081797342e+004,-1.24196707869296e+000,-4.92764982521330e-001

3.99999999999998e+004,-1.24196625789961e+000,-4.99643748463096e-001

4.05583791916010e+004,-1.24196541403124e+000,-5.06618539381349e-001

4.11245530662425e+004,-1.24196454643918e+000,-5.13690695776113e-001

4.16986304336447e+004,-1.24196365445655e+000,-5.20861576862133e-001

4.22807216224550e+004,-1.24196273739760e+000,-5.28132560830472e-001

4.28709385014515e+004,-1.24196179455741e+000,-5.35505045112606e-001

4.34693945010421e+004,-1.24196082521125e+000,-5.42980446648906e-001

4.40762046350642e+004,-1.24195982861393e+000,-5.50560202162475e-001

4.46914855228886e+004,-1.24195880399936e+000,-5.58245768434095e-001

4.53153554118317e+004,-1.24195775057998e+000,-5.66038622582371e-001

4.59479341998812e+004,-1.24195666754600e+000,-5.73940262348401e-001

4.65893434587380e+004,-1.24195555406495e+000,-5.81952206383635e-001

4.72397064571810e+004,-1.24195440928079e+000,-5.90075994541741e-001

4.78991481847569e+004,-1.24195323231368e+000,-5.98313188173868e-001

4.85677953758016e+004,-1.24195202225874e+000,-6.06665370430775e-001

4.92457765337964e+004,-1.24195077818603e+000,-6.15134146564554e-001

4.99332219560642e+004,-1.24194949913910e+000,-6.23721144240506e-001

5.06302637588109e+004,-1.24194818413477e+000,-6.32428013847777e-001

5.13370359025159e+004,-1.24194683216235e+000,-6.41256428816291e-001

5.20536742176771e+004,-1.24194544218249e+000,-6.50208085941911e-001

5.27803164309155e+004,-1.24194401312688e+000,-6.59284705708060e-001

5.35171021914442e+004,-1.24194254389691e+000,-6.68488032621001e-001

5.42641730979066e+004,-1.24194103336339e+000,-6.77819835541785e-001

5.50216727255895e+004,-1.24193948036507e+000,-6.87281908029045e-001

5.57897466540159e+004,-1.24193788370841e+000,-6.96876068681479e-001

5.65685424949235e+004,-1.24193624216596e+000,-7.06604161490800e-001

5.73582099206328e+004,-1.24193455447610e+000,-7.16468056192369e-001

5.81589006928121e+004,-1.24193281934152e+000,-7.26469648628442e-001

5.89707686916437e+004,-1.24193103542846e+000,-7.36610861110925e-001

5.97939699453972e+004,-1.24192920136586e+000,-7.46893642790634e-001

6.06286626604156e+004,-1.24192731574390e+000,-7.57319970033960e-001

6.14750072515201e+004,-1.24192537711329e+000,-7.67891846801405e-001

6.23331663728396e+004,-1.24192338398396e+000,-7.78611305033674e-001

6.32033049490698e+004,-1.24192133482388e+000,-7.89480405043146e-001

6.40855902071694e+004,-1.24191922805803e+000,-8.00501235908693e-001

6.49801917084985e+004,-1.24191706206715e+000,-8.11675915878663e-001

6.58872813814055e+004,-1.24191483518647e+000,-8.23006592777842e-001

6.68070335542691e+004,-1.24191254570439e+000,-8.34495444421105e-001

6.77396249890018e+004,-1.24191019186110e+000,-8.46144679032322e-001

6.86852349150199e+004,-1.24190777184758e+000,-8.57956535667966e-001

6.96440450636895e+004,-1.24190528380374e+000,-8.69933284650105e-001

7.06162397032520e+004,-1.24190272581741e+000,-8.82077228000485e-001

7.16020056742374e+004,-1.24190009592248e+000,-8.94390699886224e-001

7.26015324253724e+004,-1.24189739209769e+000,-9.06876067066788e-001

7.36150120499896e+004,-1.24189461226503e+000,-9.19535729349891e-001

7.46426393229441e+004,-1.24189175428796e+000,-9.32372120054274e-001

7.56846117380472e+004,-1.24188881596997e+000,-9.45387706476627e-001

7.67411295460207e+004,-1.24188579505280e+000,-9.58584990367069e-001

7.78123957929823e+004,-1.24188268921475e+000,-9.71966508409874e-001

7.88986163594682e+004,-1.24187949606892e+000,-9.85534832712394e-001

7.99999999999995e+004,-1.24187621316121e+000,-9.99292571300069e-001

8.11167583832018e+004,-1.24187283796861e+000,-1.01324236861778e+000

8.22491061324848e+004,-1.24186936789730e+000,-1.02738690603883e+000

8.33972608672892e+004,-1.24186580028038e+000,-1.04172890238209e+000

8.45614432449099e+004,-1.24186213237624e+000,-1.05627111443318e+000

8.57418770029029e+004,-1.24185836136604e+000,-1.07101633747753e+000

8.69387890020841e+004,-1.24185448435182e+000,-1.08596740583710e+000

8.81524092701283e+004,-1.24185049835418e+000,-1.10112719341570e+000

8.93829710457770e+004,-1.24184640030998e+000,-1.11649861425379e+000

9.06307108236633e+004,-1.24184218707006e+000,-1.13208462308709e+000

9.18958683997622e+004,-1.24183785539668e+000,-1.14788821591832e+000

9.31786869174758e+004,-1.24183340196119e+000,-1.16391243059164e+000

9.44794129143618e+004,-1.24182882334147e+000,-1.18016034737884e+000

9.57982963695136e+004,-1.24182411601909e+000,-1.19663508957222e+000

9.71355907516031e+004,-1.24181927637696e+000,-1.21333982408561e+000

9.84915530675926e+004,-1.24181430069622e+000,-1.23027776206544e+000

9.98664439121282e+004,-1.24180918515356e+000,-1.24745215950745e+000

1.01260527517622e+005,-1.24180392581832e+000,-1.26486631788539e+000

1.02674071805032e+005,-1.24179851864924e+000,-1.28252358478621e+000

1.04107348435354e+005,-1.24179295949179e+000,-1.30042735455434e+000

1.05560632861831e+005,-1.24178724407444e+000,-1.31858106894751e+000

1.07034204382888e+005,-1.24178136800596e+000,-1.33698821779703e+000

1.08528346195813e+005,-1.24177532677149e+000,-1.35565233968261e+000

1.10043345451179e+005,-1.24176911572943e+000,-1.37457702261339e+000

1.11579493308032e+005,-1.24176273010793e+000,-1.39376590471834e+000

1.13137084989847e+005,-1.24175616500085e+000,-1.41322267494883e+000

1.14716419841265e+005,-1.24174941536443e+000,-1.43295107378861e+000

1.16317801385624e+005,-1.24174247601323e+000,-1.45295489397515e+000

1.17941537383287e+005,-1.24173534161607e+000,-1.47323798123050e+000

1.19587939890794e+005,-1.24172800669203e+000,-1.49380423500329e+000

1.21257325320831e+005,-1.24172046560637e+000,-1.51465760921896e+000

1.22950014503040e+005,-1.24171271256594e+000,-1.53580211304401e+000

1.24666332745679e+005,-1.24170474161500e+000,-1.55724181165763e+000

1.26406609898139e+005,-1.24169654663046e+000,-1.57898082703651e+000

1.28171180414339e+005,-1.24168812131741e+000,-1.60102333874851e+000

1.29960383416997e+005,-1.24167945920398e+000,-1.62337358476063e+000

1.31774562762811e+005,-1.24167055363673e+000,-1.64603586225497e+000

1.33614067108538e+005,-1.24166139777522e+000,-1.66901452845884e+000

1.35479249978003e+005,-1.24165198458707e+000,-1.69231400148414e+000

1.37370469830040e+005,-1.24164230684243e+000,-1.71593876118100e+000

1.39288090127379e+005,-1.24163235710829e+000,-1.73989335000191e+000

1.41232479406504e+005,-1.24162212774318e+000,-1.76418237387820e+000

1.43204011348474e+005,-1.24161161089090e+000,-1.78881050310975e+000

1.45203064850745e+005,-1.24160079847473e+000,-1.81378247326555e+000

1.47230024099979e+005,-1.24158968219130e+000,-1.83910308609864e+000

1.49285278645888e+005,-1.24157825350400e+000,-1.86477721047364e+000

1.51369223476094e+005,-1.24156650363675e+000,-1.89080978330603e+000

1.53482259092041e+005,-1.24155442356694e+000,-1.91720581051699e+000

1.55624791585964e+005,-1.24154200401887e+000,-1.94397036799912e+000

1.57797232718936e+005,-1.24152923545635e+000,-1.97110860259819e+000

1.59999999999999e+005,-1.24151610807558e+000,-1.99862573310700e+000

1.62233516766403e+005,-1.24150261179778e+000,-2.02652705127382e+000

1.64498212264969e+005,-1.24148873626100e+000,-2.05481792282651e+000

1.66794521734578e+005,-1.24147447081286e+000,-2.08350378850766e+000

1.69122886489819e+005,-1.24145980450177e+000,-2.11259016512920e+000

1.71483754005805e+005,-1.24144472606904e+000,-2.14208264663679e+000

1.73877578004168e+005,-1.24142922393996e+000,-2.17198690519353e+000

1.76304818540256e+005,-1.24141328621515e+000,-2.20230869227655e+000

1.78765942091554e+005,-1.24139690066133e+000,-2.23305383978995e+000

1.81261421647326e+005,-1.24138005470217e+000,-2.26422826119323e+000

1.83791736799524e+005,-1.24136273540840e+000,-2.29583795264638e+000

1.86357373834951e+005,-1.24134492948818e+000,-2.32788899417075e+000

1.88958825828723e+005,-1.24132662327678e+000,-2.36038755082603e+000

1.91596592739027e+005,-1.24130780272638e+000,-2.39333987390400e+000

1.94271181503206e+005,-1.24128845339502e+000,-2.42675230214085e+000

1.96983106135185e+005,-1.24126856043587e+000,-2.46063126294427e+000

1.99732887824256e+005,-1.24124810858579e+000,-2.49498327363930e+000

2.02521055035243e+005,-1.24122708215368e+000,-2.52981494273247e+000

2.05348143610063e+005,-1.24120546500843e+000,-2.56513297119266e+000

2.08214696870707e+005,-1.24118324056689e+000,-2.60094415375055e+000

2.11121265723661e+005,-1.24116039178093e+000,-2.63725538021771e+000

2.14068408765776e+005,-1.24113690112465e+000,-2.67407363682246e+000

2.17056692391625e+005,-1.24111275058089e+000,-2.71140600756729e+000

2.20086690902357e+005,-1.24108792162758e+000,-2.74925967560328e+000

2.23158986616063e+005,-1.24106239522372e+000,-2.78764192462499e+000

2.26274169979693e+005,-1.24103615179468e+000,-2.82656014028672e+000

2.29432839682530e+005,-1.24100917121751e+000,-2.86602181163668e+000

2.32635602771247e+005,-1.24098143280545e+000,-2.90603453257329e+000

2.35883074766574e+005,-1.24095291529239e+000,-2.94660600332142e+000

2.39175879781588e+005,-1.24092359681650e+000,-2.98774403193117e+000

2.42514650641661e+005,-1.24089345490379e+000,-3.02945653579579e+000

2.45900029006080e+005,-1.24086246645091e+000,-3.07175154319381e+000

2.49332665491357e+005,-1.24083060770762e+000,-3.11463719485248e+000

2.52813219796278e+005,-1.24079785425882e+000,-3.15812174553255e+000

2.56342360828676e+005,-1.24076418100599e+000,-3.20221356563740e+000

2.59920766833993e+005,-1.24072956214807e+000,-3.24692114284471e+000

2.63549125525621e+005,-1.24069397116204e+000,-3.29225308376171e+000

2.67228134217075e+005,-1.24065738078263e+000,-3.33821811560405e+000

2.70958499956006e+005,-1.24061976298183e+000,-3.38482508789926e+000

2.74740939660078e+005,-1.24058108894751e+000,-3.43208297421501e+000

2.78576180254757e+005,-1.24054132906165e+000,-3.48000087391139e+000

2.82464958813007e+005,-1.24050045287795e+000,-3.52858801391992e+000

2.86408022696948e+005,-1.24045842909887e+000,-3.57785375054682e+000

2.90406129701488e+005,-1.24041522555171e+000,-3.62780757130403e+000

2.94460048199957e+005,-1.24037080916454e+000,-3.67845909676565e+000

2.98570557291775e+005,-1.24032514594108e+000,-3.72981808245187e+000

3.02738446952187e+005,-1.24027820093504e+000,-3.78189442074005e+000

3.06964518184081e+005,-1.24022993822380e+000,-3.83469814280390e+000

3.11249583171928e+005,-1.24018032088127e+000,-3.88823942058062e+000

3.15594465437872e+005,-1.24012931095001e+000,-3.94252856876729e+000

3.19999999999997e+005,-1.24007686941263e+000,-3.99757604684593e+000

3.24467033532806e+005,-1.24002295616255e+000,-4.05339246113814e+000

3.28996424529938e+005,-1.23996752997354e+000,-4.10998856689078e+000

3.33589043469155e+005,-1.23991054846901e+000,-4.16737527039039e+000

3.38245772979638e+005,-1.23985196808986e+000,-4.22556363111127e+000

3.42967508011610e+005,-1.23979174406191e+000,-4.28456486389267e+000

3.47755156008335e+005,-1.23972983036237e+000,-4.34439034114929e+000

3.52609637080511e+005,-1.23966617968501e+000,-4.40505159511481e+000

3.57531884183106e+005,-1.23960074340506e+000,-4.46656032011705e+000

3.62522843294651e+005,-1.23953347154244e+000,-4.52892837488861e+000

3.67583473599047e+005,-1.23946431272455e+000,-4.59216778491027e+000

3.72714747669902e+005,-1.23939321414779e+000,-4.65629074478995e+000

3.77917651657445e+005,-1.23932012153801e+000,-4.72130962067675e+000

3.83193185478053e+005,-1.23924497911002e+000,-4.78723695271126e+000

3.88542363006410e+005,-1.23916772952595e+000,-4.85408545751198e+000

3.93966212270369e+005,-1.23908831385256e+000,-4.92186803069882e+000

3.99465775648511e+005,-1.23900667151716e+000,-4.99059774945546e+000

4.05042110070485e+005,-1.23892274026269e+000,-5.06028787512823e+000

4.10696287220124e+005,-1.23883645610132e+000,-5.13095185586561e+000

4.16429393741414e+005,-1.23874775326690e+000,-5.20260332929737e+000

4.22242531447321e+005,-1.23865656416621e+000,-5.27525612525279e+000

4.28136817531551e+005,-1.23856281932878e+000,-5.34892426852132e+000

4.34113384783250e+005,-1.23846644735545e+000,-5.42362198165434e+000

4.40173381804713e+005,-1.23836737486555e+000,-5.49936368780972e+000

4.46317973232124e+005,-1.23826552644261e+000,-5.57616401363939e+000

4.52548339959385e+005,-1.23816082457868e+000,-5.65403779222111e+000

4.58865679365059e+005,-1.23805318961734e+000,-5.73300006603441e+000

4.65271205542494e+005,-1.23794253969465e+000,-5.81306608998335e+000

4.71766149533147e+005,-1.23782879067938e+000,-5.89425133446391e+000

4.78351759563174e+005,-1.23771185611089e+000,-5.97657148847995e+000

4.85029301283321e+005,-1.23759164713578e+000,-6.06004246280653e+000

4.91800058012158e+005,-1.23746807244281e+000,-6.14468039320200e+000

4.98665330982714e+005,-1.23734103819607e+000,-6.23050164367028e+000

5.05626439592555e+005,-1.23721044796633e+000,-6.31752280977327e+000

5.12684721657352e+005,-1.23707620266087e+000,-6.40576072199513e+000

5.19841533667984e+005,-1.23693820045112e+000,-6.49523244915896e+000

5.27098251051240e+005,-1.23679633669867e+000,-6.58595530189700e+000

5.34456268434150e+005,-1.23665050387930e+000,-6.67794683617489e+000

5.41916999912011e+005,-1.23650059150508e+000,-6.77122485687200e+000

