Freq.,VOut,OutRef

1.00000000000000e+004,-1.47107590913884e+001,-1.30716575642761e-001

1.01395947979003e+004,-1.47107591500272e+001,-1.32541310815078e-001

1.02811382665607e+004,-1.47107592103145e+001,-1.34391518332324e-001

1.04246576084112e+004,-1.47107592722966e+001,-1.36267553774920e-001

1.05701804056138e+004,-1.47107593360215e+001,-1.38169777684623e-001

1.07177346253629e+004,-1.47107594015377e+001,-1.40098555641095e-001

1.08673486252606e+004,-1.47107594688959e+001,-1.42054258322628e-001

1.10190511587661e+004,-1.47107595381479e+001,-1.44037261584506e-001

1.11728713807222e+004,-1.47107596093467e+001,-1.46047946528202e-001

1.13288388529580e+004,-1.47107596825472e+001,-1.48086699575559e-001

1.14869835499703e+004,-1.47107597578057e+001,-1.50153912541257e-001

1.16473358646846e+004,-1.47107598351799e+001,-1.52249982710627e-001

1.18099266142953e+004,-1.47107599147295e+001,-1.54375312915424e-001

1.19747870461893e+004,-1.47107599965155e+001,-1.56530311608240e-001

1.21419488439505e+004,-1.47107600806007e+001,-1.58715392947708e-001

1.23114441334492e+004,-1.47107601670500e+001,-1.60930976868833e-001

1.24833054890161e+004,-1.47107602559297e+001,-1.63177489171839e-001

1.26575659397028e+004,-1.47107603473081e+001,-1.65455361600270e-001

1.28342589756290e+004,-1.47107604412555e+001,-1.67765031925117e-001

1.30134185544193e+004,-1.47107605378442e+001,-1.70106944025910e-001

1.31950791077289e+004,-1.47107606371483e+001,-1.72481547982099e-001

1.33792755478611e+004,-1.47107607392442e+001,-1.74889300153150e-001

1.35660432744767e+004,-1.47107608442105e+001,-1.77330663269944e-001

1.37554181813974e+004,-1.47107609521277e+001,-1.79806106523618e-001

1.39474366635040e+004,-1.47107610630789e+001,-1.82316105653927e-001

1.41421356237309e+004,-1.47107611771494e+001,-1.84861143040809e-001

1.43395524801583e+004,-1.47107612944268e+001,-1.87441707800631e-001

1.45397251732031e+004,-1.47107614150013e+001,-1.90058295875324e-001

1.47426921729110e+004,-1.47107615389655e+001,-1.92711410130902e-001

1.49484924863494e+004,-1.47107616664150e+001,-1.95401560451064e-001

1.51571656651040e+004,-1.47107617974475e+001,-1.98129263840792e-001

1.53687518128801e+004,-1.47107619321638e+001,-2.00895044518830e-001

1.55832915932100e+004,-1.47107620706676e+001,-2.03699434023590e-001

1.58008262372675e+004,-1.47107622130652e+001,-2.06542971312124e-001

1.60213975517924e+004,-1.47107623594660e+001,-2.09426202867000e-001

1.62450479271247e+004,-1.47107625099830e+001,-2.12349682796087e-001

1.64718203453514e+004,-1.47107626647313e+001,-2.15313972946245e-001

1.67017583885674e+004,-1.47107628238302e+001,-2.18319643003981e-001

1.69349062472505e+004,-1.47107629874021e+001,-2.21367270609516e-001

1.71713087287550e+004,-1.47107631555725e+001,-2.24457441467237e-001

1.74110112659224e+004,-1.47107633284710e+001,-2.27590749456060e-001

1.76540599258131e+004,-1.47107635062301e+001,-2.30767796747457e-001

1.79005014185594e+004,-1.47107636889868e+001,-2.33989193915357e-001

1.81503831063432e+004,-1.47107638768814e+001,-2.37255560060880e-001

1.84037530124975e+004,-1.47107640700586e+001,-2.40567522923116e-001

1.86606598307361e+004,-1.47107642686666e+001,-2.43925719008397e-001

1.89211529345119e+004,-1.47107644728582e+001,-2.47330793704596e-001

1.91852823865052e+004,-1.47107646827904e+001,-2.50783401410744e-001

1.94530989482457e+004,-1.47107648986247e+001,-2.54284205659906e-001

1.97246540898671e+004,-1.47107651205268e+001,-2.57833879248903e-001

1.99999999999999e+004,-1.47107653486675e+001,-2.61433104364926e-001

2.02791895958005e+004,-1.47107655832220e+001,-2.65082572718062e-001

2.05622765331213e+004,-1.47107658243707e+001,-2.68782985675942e-001

2.08493152168224e+004,-1.47107660722991e+001,-2.72535054394315e-001

2.11403608112276e+004,-1.47107663271977e+001,-2.76339499957102e-001

2.14354692507258e+004,-1.47107665892624e+001,-2.80197053515779e-001

2.17346972505211e+004,-1.47107668586947e+001,-2.84108456426334e-001

2.20381023175322e+004,-1.47107671357017e+001,-2.88074460393673e-001

2.23457427614443e+004,-1.47107674204965e+001,-2.92095827615310e-001

2.26576777059159e+004,-1.47107677132979e+001,-2.96173330930593e-001

2.29739670999406e+004,-1.47107680143312e+001,-3.00307753964315e-001

2.32946717293690e+004,-1.47107683238275e+001,-3.04499891283990e-001

2.36198532285905e+004,-1.47107686420249e+001,-3.08750548544970e-001

2.39495740923785e+004,-1.47107689691681e+001,-3.13060542649560e-001

2.42838976879009e+004,-1.47107693055084e+001,-3.17430701905831e-001

2.46228882668982e+004,-1.47107696513047e+001,-3.21861866180845e-001

2.49666109780322e+004,-1.47107700068224e+001,-3.26354887069363e-001

2.53151318794055e+004,-1.47107703723351e+001,-3.30910628050876e-001

2.56685179512580e+004,-1.47107707481237e+001,-3.35529964659359e-001

2.60268371088386e+004,-1.47107711344772e+001,-3.40213784649366e-001

2.63901582154578e+004,-1.47107715316925e+001,-3.44962988170208e-001

2.67585510957221e+004,-1.47107719400750e+001,-3.49778487934764e-001

2.71320865489533e+004,-1.47107723599385e+001,-3.54661209397413e-001

2.75108363627948e+004,-1.47107727916061e+001,-3.59612090929518e-001

2.78948733270080e+004,-1.47107732354095e+001,-3.64632084003583e-001

2.82842712474618e+004,-1.47107736916897e+001,-3.69722153372592e-001

2.86791049603164e+004,-1.47107741607977e+001,-3.74883277256259e-001

2.90794503464061e+004,-1.47107746430941e+001,-3.80116447530640e-001

2.94853843458219e+004,-1.47107751389496e+001,-3.85422669916138e-001

2.98969849726987e+004,-1.47107756487454e+001,-3.90802964173020e-001

3.03143313302078e+004,-1.47107761728734e+001,-3.96258364296287e-001

3.07375036257601e+004,-1.47107767117366e+001,-4.01789918714440e-001

3.11665831864199e+004,-1.47107772657493e+001,-4.07398690490737e-001

3.16016524745350e+004,-1.47107778353373e+001,-4.13085757528559e-001

3.20427951035848e+004,-1.47107784209384e+001,-4.18852212777289e-001

3.24900958542493e+004,-1.47107790230030e+001,-4.24699164442499e-001

3.29436406907028e+004,-1.47107796419938e+001,-4.30627736199916e-001

3.34035167771346e+004,-1.47107802783867e+001,-4.36639067410614e-001

3.38698124945009e+004,-1.47107809326710e+001,-4.42734313338842e-001

3.43426174575100e+004,-1.47107816053495e+001,-4.48914645377311e-001

3.48220225318448e+004,-1.47107822969394e+001,-4.55181251267871e-001

3.53081198516260e+004,-1.47107830079725e+001,-4.61535335332840e-001

3.58010028371187e+004,-1.47107837389953e+001,-4.67978118706499e-001

3.63007662126863e+004,-1.47107844905698e+001,-4.74510839567733e-001

3.68075060249948e+004,-1.47107852632738e+001,-4.81134753379580e-001

3.73213196614721e+004,-1.47107860577012e+001,-4.87851133129727e-001

3.78423058690237e+004,-1.47107868744629e+001,-4.94661269575161e-001

3.83705647730104e+004,-1.47107877141867e+001,-5.01566471490212e-001

3.89061978964912e+004,-1.47107885775181e+001,-5.08568065919144e-001

3.94493081797342e+004,-1.47107894651209e+001,-5.15667398428819e-001

3.99999999999998e+004,-1.47107903776774e+001,-5.22865833370052e-001

4.05583791916010e+004,-1.47107913158891e+001,-5.30164754137030e-001

4.11245530662425e+004,-1.47107922804773e+001,-5.37565563434999e-001

4.16986304336447e+004,-1.47107932721834e+001,-5.45069683549848e-001

4.22807216224550e+004,-1.47107942917700e+001,-5.52678556618651e-001

4.28709385014515e+004,-1.47107953400207e+001,-5.60393644911425e-001

4.34693945010421e+004,-1.47107964177414e+001,-5.68216431107698e-001

4.40762046350642e+004,-1.47107975257607e+001,-5.76148418583809e-001

4.46914855228886e+004,-1.47107986649303e+001,-5.84191131701052e-001

4.53153554118317e+004,-1.47107998361259e+001,-5.92346116099209e-001

4.59479341998812e+004,-1.47108010402480e+001,-6.00614938991804e-001

4.65893434587380e+004,-1.47108022782220e+001,-6.08999189470232e-001

4.72397064571810e+004,-1.47108035509999e+001,-6.17500478805352e-001

4.78991481847569e+004,-1.47108048595600e+001,-6.26120440759273e-001

4.85677953758016e+004,-1.47108062049082e+001,-6.34860731900288e-001

4.92457765337964e+004,-1.47108075880788e+001,-6.43723031918748e-001

4.99332219560642e+004,-1.47108090101350e+001,-6.52709043950654e-001

5.06302637588109e+004,-1.47108104721701e+001,-6.61820494905424e-001

5.13370359025159e+004,-1.47108119753081e+001,-6.71059135796912e-001

5.20536742176771e+004,-1.47108135207043e+001,-6.80426742080449e-001

5.27803164309155e+004,-1.47108151095469e+001,-6.89925113994476e-001

5.35171021914442e+004,-1.47108167430572e+001,-6.99556076903510e-001

5.42641730979066e+004,-1.47108184224910e+001,-7.09321481652691e-001

5.50216727255895e+004,-1.47108201491392e+001,-7.19223204921721e-001

5.57897466540159e+004,-1.47108219243294e+001,-7.29263149583593e-001

5.65685424949235e+004,-1.47108237494260e+001,-7.39443245073274e-001

5.73582099206328e+004,-1.47108256258322e+001,-7.49765447756356e-001

5.81589006928121e+004,-1.47108275549903e+001,-7.60231741305916e-001

5.89707686916437e+004,-1.47108295383833e+001,-7.70844137082505e-001

5.97939699453972e+004,-1.47108315775360e+001,-7.81604674521047e-001

6.06286626604156e+004,-1.47108336740159e+001,-7.92515421523225e-001

6.14750072515201e+004,-1.47108358294346e+001,-8.03578474853936e-001

6.23331663728396e+004,-1.47108380454491e+001,-8.14795960544460e-001

6.32033049490698e+004,-1.47108403237629e+001,-8.26170034300600e-001

6.40855902071694e+004,-1.47108426661273e+001,-8.37702881916725e-001

6.49801917084985e+004,-1.47108450743430e+001,-8.49396719696074e-001

6.58872813814055e+004,-1.47108475502612e+001,-8.61253794876113e-001

6.68070335542691e+004,-1.47108500957852e+001,-8.73276386059975e-001

6.77396249890018e+004,-1.47108527128718e+001,-8.85466803655399e-001

6.86852349150199e+004,-1.47108554035328e+001,-8.97827390316025e-001

6.96440450636895e+004,-1.47108581698364e+001,-9.10360521394110e-001

7.06162397032520e+004,-1.47108610139093e+001,-9.23068605395052e-001

7.16020056742374e+004,-1.47108639379377e+001,-9.35954084439940e-001

7.26015324253724e+004,-1.47108669441693e+001,-9.49019434735789e-001

7.36150120499896e+004,-1.47108700349150e+001,-9.62267167049918e-001

7.46426393229441e+004,-1.47108732125507e+001,-9.75699827193053e-001

7.56846117380472e+004,-1.47108764795190e+001,-9.89319996507928e-001

7.67411295460207e+004,-1.47108798383314e+001,-1.00313029236411e+000

7.78123957929823e+004,-1.47108832915695e+001,-1.01713336866290e+000

7.88986163594682e+004,-1.47108868418880e+001,-1.03133191634385e+000

7.99999999999995e+004,-1.47108904920160e+001,-1.04572866390402e+000

8.11167583832018e+004,-1.47108942447593e+001,-1.06032637792187e+000

8.22491061324848e+004,-1.47108981030025e+001,-1.07512786358735e+000

8.33972608672892e+004,-1.47109020697116e+001,-1.09013596523988e+000

8.45614432449099e+004,-1.47109061479356e+001,-1.10535356691735e+000

8.57418770029029e+004,-1.47109103408093e+001,-1.12078359290761e+000

8.69387890020841e+004,-1.47109146515558e+001,-1.13642900830975e+000

8.81524092701283e+004,-1.47109190834886e+001,-1.15229281960521e+000

8.93829710457770e+004,-1.47109236400144e+001,-1.16837807523354e+000

9.06307108236633e+004,-1.47109283246358e+001,-1.18468786617837e+000

9.18958683997622e+004,-1.47109331409535e+001,-1.20122532656090e+000

9.31786869174758e+004,-1.47109380926698e+001,-1.21799363424041e+000

9.44794129143618e+004,-1.47109431835909e+001,-1.23499601142637e+000

9.57982963695136e+004,-1.47109484176299e+001,-1.25223572529503e+000

9.71355907516031e+004,-1.47109537988100e+001,-1.26971608861801e+000

9.84915530675926e+004,-1.47109593312675e+001,-1.28744046039721e+000

9.98664439121282e+004,-1.47109650192548e+001,-1.30541224651069e+000

1.01260527517622e+005,-1.47109708671441e+001,-1.32363490036563e+000

1.02674071805032e+005,-1.47109768794303e+001,-1.34211192356046e+000

1.04107348435354e+005,-1.47109830607345e+001,-1.36084686655935e+000

1.05560632861831e+005,-1.47109894158081e+001,-1.37984332937069e+000

1.07034204382888e+005,-1.47109959495357e+001,-1.39910496224005e+000

1.08528346195813e+005,-1.47110026669393e+001,-1.41863546635005e+000

1.10043345451179e+005,-1.47110095731820e+001,-1.43843859453036e+000

1.11579493308032e+005,-1.47110166735722e+001,-1.45851815197846e+000

1.13137084989847e+005,-1.47110239735672e+001,-1.47887799698948e+000

1.14716419841265e+005,-1.47110314787779e+001,-1.49952204169607e+000

1.16317801385624e+005,-1.47110391949728e+001,-1.52045425282011e+000

1.17941537383287e+005,-1.47110471280827e+001,-1.54167865243248e+000

1.19587939890794e+005,-1.47110552842049e+001,-1.56319931872579e+000

1.21257325320831e+005,-1.47110636696080e+001,-1.58502038679646e+000

1.22950014503040e+005,-1.47110722907369e+001,-1.60714604943728e+000

1.24666332745679e+005,-1.47110811542178e+001,-1.62958055794297e+000

1.26406609898139e+005,-1.47110902668627e+001,-1.65232822292434e+000

1.28171180414339e+005,-1.47110996356755e+001,-1.67539341513579e+000

1.29960383416997e+005,-1.47111092678566e+001,-1.69878056631370e+000

1.31774562762811e+005,-1.47111191708089e+001,-1.72249417002555e+000

1.33614067108538e+005,-1.47111293521433e+001,-1.74653878253354e+000

1.35479249978003e+005,-1.47111398196846e+001,-1.77091902366497e+000

1.37370469830040e+005,-1.47111505814776e+001,-1.79563957770193e+000

1.39288090127379e+005,-1.47111616457930e+001,-1.82070519427635e+000

1.41232479406504e+005,-1.47111730211339e+001,-1.84612068928272e+000

1.43204011348474e+005,-1.47111847162426e+001,-1.87189094579988e+000

1.45203064850745e+005,-1.47111967401067e+001,-1.89802091502809e+000

1.47230024099979e+005,-1.47112091019669e+001,-1.92451561723712e+000

1.49285278645888e+005,-1.47112218113229e+001,-1.95138014272979e+000

1.51369223476094e+005,-1.47112348779418e+001,-1.97861965281596e+000

1.53482259092041e+005,-1.47112483118650e+001,-2.00623938080326e+000

1.55624791585964e+005,-1.47112621234161e+001,-2.03424463299843e+000

1.57797232718936e+005,-1.47112763232088e+001,-2.06264078972496e+000

1.59999999999999e+005,-1.47112909221549e+001,-2.09143330635396e+000

1.62233516766403e+005,-1.47113059314729e+001,-2.12062771434867e+000

1.64498212264969e+005,-1.47113213626965e+001,-2.15022962232428e+000

1.66794521734578e+005,-1.47113372276833e+001,-2.18024471712294e+000

1.69122886489819e+005,-1.47113535386244e+001,-2.21067876490140e+000

1.71483754005805e+005,-1.47113703080532e+001,-2.24153761223630e+000

1.73877578004168e+005,-1.47113875488551e+001,-2.27282718724427e+000

1.76304818540256e+005,-1.47114052742778e+001,-2.30455350071536e+000

1.78765942091554e+005,-1.47114234979410e+001,-2.33672264726495e+000

1.81261421647326e+005,-1.47114422338470e+001,-2.36934080649996e+000

1.83791736799524e+005,-1.47114614963917e+001,-2.40241424420140e+000

1.86357373834951e+005,-1.47114813003751e+001,-2.43594931352460e+000

1.88958825828723e+005,-1.47115016610133e+001,-2.46995245621320e+000

1.91596592739027e+005,-1.47115225939495e+001,-2.50443020383396e+000

1.94271181503206e+005,-1.47115441152666e+001,-2.53938917902332e+000

1.96983106135185e+005,-1.47115662414991e+001,-2.57483609675733e+000

1.99732887824256e+005,-1.47115889896460e+001,-2.61077776563413e+000

2.02521055035243e+005,-1.47116123771838e+001,-2.64722108917549e+000

2.05348143610063e+005,-1.47116364220800e+001,-2.68417306714883e+000

2.08214696870707e+005,-1.47116611428065e+001,-2.72164079690390e+000

2.11121265723661e+005,-1.47116865583542e+001,-2.75963147472944e+000

2.14068408765776e+005,-1.47117126882472e+001,-2.79815239722991e+000

2.17056692391625e+005,-1.47117395525581e+001,-2.83721096271802e+000

2.20086690902357e+005,-1.47117671719234e+001,-2.87681467262915e+000

2.23158986616063e+005,-1.47117955675585e+001,-2.91697113295501e+000

2.26274169979693e+005,-1.47118247612754e+001,-2.95768805569490e+000

2.29432839682530e+005,-1.47118547754979e+001,-2.99897326032998e+000

2.32635602771247e+005,-1.47118856332800e+001,-3.04083467531462e+000

2.35883074766574e+005,-1.47119173583228e+001,-3.08328033959150e+000

2.39175879781588e+005,-1.47119499749929e+001,-3.12631840412487e+000

2.42514650641661e+005,-1.47119835083412e+001,-3.16995713345620e+000

2.45900029006080e+005,-1.47120179841216e+001,-3.21420490728155e+000

2.49332665491357e+005,-1.47120534288116e+001,-3.25907022204848e+000

2.52813219796278e+005,-1.47120898696317e+001,-3.30456169257780e+000

2.56342360828676e+005,-1.47121273345666e+001,-3.35068805370538e+000

2.59920766833993e+005,-1.47121658523866e+001,-3.39745816194754e+000

2.63549125525621e+005,-1.47122054526697e+001,-3.44488099718841e+000

2.67228134217075e+005,-1.47122461658242e+001,-3.49296566439142e+000

2.70958499956006e+005,-1.47122880231118e+001,-3.54172139533348e+000

2.74740939660078e+005,-1.47123310566717e+001,-3.59115755036228e+000

2.78576180254757e+005,-1.47123752995451e+001,-3.64128362018010e+000

2.82464958813007e+005,-1.47124207857005e+001,-3.69210922764813e+000

2.86408022696948e+005,-1.47124675500598e+001,-3.74364412961927e+000

2.90406129701488e+005,-1.47125156285248e+001,-3.79589821879342e+000

2.94460048199957e+005,-1.47125650580046e+001,-3.84888152559905e+000

2.98570557291775e+005,-1.47126158764442e+001,-3.90260422009979e+000

3.02738446952187e+005,-1.47126681228530e+001,-3.95707661392795e+000

3.06964518184081e+005,-1.47127218373351e+001,-4.01230916224341e+000

3.11249583171928e+005,-1.47127770611196e+001,-4.06831246571974e+000

3.15594465437872e+005,-1.47128338365919e+001,-4.12509727255664e+000

3.19999999999997e+005,-1.47128922073270e+001,-4.18267448052035e+000

3.24467033532806e+005,-1.47129522181216e+001,-4.24105513901167e+000

3.28996424529938e+005,-1.47130139150290e+001,-4.30025045116130e+000

3.33589043469155e+005,-1.47130773453942e+001,-4.36027177595455e+000

3.38245772979638e+005,-1.47131425578898e+001,-4.42113063038411e+000

3.42967508011610e+005,-1.47132096025534e+001,-4.48283869163182e+000

3.47755156008335e+005,-1.47132785308255e+001,-4.54540779928046e+000

3.52609637080511e+005,-1.47133493955890e+001,-4.60884995755514e+000

3.57531884183106e+005,-1.47134222512093e+001,-4.67317733759440e+000

3.62522843294651e+005,-1.47134971535760e+001,-4.73840227975257e+000

3.67583473599047e+005,-1.47135741601452e+001,-4.80453729593313e+000

3.72714747669902e+005,-1.47136533299834e+001,-4.87159507195222e+000

3.77917651657445e+005,-1.47137347238127e+001,-4.93958846993559e+000

3.83193185478053e+005,-1.47138184040566e+001,-5.00853053074667e+000

3.88542363006410e+005,-1.47139044348882e+001,-5.07843447644639e+000

3.93966212270369e+005,-1.47139928822783e+001,-5.14931371278834e+000

3.99465775648511e+005,-1.47140838140459e+001,-5.22118183174408e+000

4.05042110070485e+005,-1.47141772999102e+001,-5.29405261406486e+000

4.10696287220124e+005,-1.47142734115431e+001,-5.36794003187546e+000

4.16429393741414e+005,-1.47143722226237e+001,-5.44285825130418e+000

4.22242531447321e+005,-1.47144738088945e+001,-5.51882163514650e+000

4.28136817531551e+005,-1.47145782482193e+001,-5.59584474556428e+000

4.34113384783250e+005,-1.47146856206413e+001,-5.67394234682146e+000

4.40173381804713e+005,-1.47147960084452e+001,-5.75312940805492e+000

4.46317973232124e+005,-1.47149094962185e+001,-5.83342110608279e+000

4.52548339959385e+005,-1.47150261709163e+001,-5.91483282824893e+000

4.58865679365059e+005,-1.47151461219273e+001,-5.99738017530536e+000

4.65271205542494e+005,-1.47152694411412e+001,-6.08107896433255e+000

4.71766149533147e+005,-1.47153962230186e+001,-6.16594523169789e+000

4.78351759563174e+005,-1.47155265646625e+001,-6.25199523605247e+000

4.85029301283321e+005,-1.47156605658919e+001,-6.33924546136779e+000

4.91800058012158e+005,-1.47157983293172e+001,-6.42771262001131e+000

4.98665330982714e+005,-1.47159399604179e+001,-6.51741365586227e+000

5.05626439592555e+005,-1.47160855676227e+001,-6.60836574746810e+000

5.12684721657352e+005,-1.47162352623907e+001,-6.70058631124146e+000

5.19841533667984e+005,-1.47163891592966e+001,-6.79409300469878e+000

5.27098251051240e+005,-1.47165473761162e+001,-6.88890372974037e+000

5.34456268434150e+005,-1.47167100339161e+001,-6.98503663597285e+000

5.41916999912011e+005,-1.47168772571448e+001,-7.08251012407391e+000

