Freq.,VOut,OutRef

1.00000000000000e+004,-1.19644108893369e+001,-1.23215131850643e-001

1.01395947979003e+004,-1.19644108586916e+001,-1.24935151297717e-001

1.02811382665607e+004,-1.19644108271846e+001,-1.26679181335051e-001

1.04246576084112e+004,-1.19644107947918e+001,-1.28447557137648e-001

1.05701804056138e+004,-1.19644107614885e+001,-1.30240618560055e-001

1.07177346253629e+004,-1.19644107272489e+001,-1.32058710201498e-001

1.08673486252606e+004,-1.19644106920465e+001,-1.33902181473098e-001

1.10190511587661e+004,-1.19644106558546e+001,-1.35771386659926e-001

1.11728713807222e+004,-1.19644106186453e+001,-1.37666684994496e-001

1.13288388529580e+004,-1.19644105803897e+001,-1.39588440725875e-001

1.14869835499703e+004,-1.19644105410586e+001,-1.41537023186358e-001

1.16473358646846e+004,-1.19644105006219e+001,-1.43512806861802e-001

1.18099266142953e+004,-1.19644104590483e+001,-1.45516171470105e-001

1.19747870461893e+004,-1.19644104163058e+001,-1.47547502026540e-001

1.21419488439505e+004,-1.19644103723618e+001,-1.49607188921720e-001

1.23114441334492e+004,-1.19644103271824e+001,-1.51695627996327e-001

1.24833054890161e+004,-1.19644102807328e+001,-1.53813220617482e-001

1.26575659397028e+004,-1.19644102329774e+001,-1.55960373753566e-001

1.28342589756290e+004,-1.19644101838792e+001,-1.58137500056447e-001

1.30134185544193e+004,-1.19644101334008e+001,-1.60345017936328e-001

1.31950791077289e+004,-1.19644100815033e+001,-1.62583351643872e-001

1.33792755478611e+004,-1.19644100281466e+001,-1.64852931355207e-001

1.35660432744767e+004,-1.19644099732900e+001,-1.67154193247552e-001

1.37554181813974e+004,-1.19644099168912e+001,-1.69487579589596e-001

1.39474366635040e+004,-1.19644098589067e+001,-1.71853538823975e-001

1.41421356237309e+004,-1.19644097992922e+001,-1.74252525651387e-001

1.43395524801583e+004,-1.19644097380016e+001,-1.76685001122552e-001

1.45397251732031e+004,-1.19644096749879e+001,-1.79151432722251e-001

1.47426921729110e+004,-1.19644096102028e+001,-1.81652294461561e-001

1.49484924863494e+004,-1.19644095435962e+001,-1.84188066970334e-001

1.51571656651040e+004,-1.19644094751170e+001,-1.86759237586156e-001

1.53687518128801e+004,-1.19644094047127e+001,-1.89366300448284e-001

1.55832915932100e+004,-1.19644093323291e+001,-1.92009756596919e-001

1.58008262372675e+004,-1.19644092579106e+001,-1.94690114065139e-001

1.60213975517924e+004,-1.19644091813997e+001,-1.97407887978773e-001

1.62450479271247e+004,-1.19644091027380e+001,-2.00163600652883e-001

1.64718203453514e+004,-1.19644090218648e+001,-2.02957781695475e-001

1.67017583885674e+004,-1.19644089387179e+001,-2.05790968107567e-001

1.69349062472505e+004,-1.19644088532335e+001,-2.08663704385384e-001

1.71713087287550e+004,-1.19644087653457e+001,-2.11576542628036e-001

1.74110112659224e+004,-1.19644086749872e+001,-2.14530042639801e-001

1.76540599258131e+004,-1.19644085820884e+001,-2.17524772040545e-001

1.79005014185594e+004,-1.19644084865779e+001,-2.20561306373780e-001

1.81503831063432e+004,-1.19644083883821e+001,-2.23640229218166e-001

1.84037530124975e+004,-1.19644082874257e+001,-2.26762132298720e-001

1.86606598307361e+004,-1.19644081836311e+001,-2.29927615598608e-001

1.89211529345119e+004,-1.19644080769185e+001,-2.33137287479158e-001

1.91852823865052e+004,-1.19644079672059e+001,-2.36391764793397e-001

1.94530989482457e+004,-1.19644078544087e+001,-2.39691673005866e-001

1.97246540898671e+004,-1.19644077384405e+001,-2.43037646311302e-001

1.99999999999999e+004,-1.19644076192119e+001,-2.46430327759123e-001

2.02791895958005e+004,-1.19644074966316e+001,-2.49870369373383e-001

2.05622765331213e+004,-1.19644073706049e+001,-2.53358432283431e-001

2.08493152168224e+004,-1.19644072410353e+001,-2.56895186843897e-001

2.11403608112276e+004,-1.19644071078230e+001,-2.60481312771376e-001

2.14354692507258e+004,-1.19644069708657e+001,-2.64117499267507e-001

2.17346972505211e+004,-1.19644068300579e+001,-2.67804445158869e-001

2.20381023175322e+004,-1.19644066852916e+001,-2.71542859023490e-001

2.23457427614443e+004,-1.19644065364555e+001,-2.75333459333220e-001

2.26576777059159e+004,-1.19644063834350e+001,-2.79176974590370e-001

2.29739670999406e+004,-1.19644062261127e+001,-2.83074143464767e-001

2.32946717293690e+004,-1.19644060643674e+001,-2.87025714940050e-001

2.36198532285905e+004,-1.19644058980750e+001,-2.91032448453565e-001

2.39495740923785e+004,-1.19644057271074e+001,-2.95095114046986e-001

2.42838976879009e+004,-1.19644055513334e+001,-2.99214492508112e-001

2.46228882668982e+004,-1.19644053706178e+001,-3.03391375527669e-001

2.49666109780322e+004,-1.19644051848218e+001,-3.07626565845722e-001

2.53151318794055e+004,-1.19644049938023e+001,-3.11920877411085e-001

2.56685179512580e+004,-1.19644047974127e+001,-3.16275135532473e-001

2.60268371088386e+004,-1.19644045955019e+001,-3.20690177042120e-001

2.63901582154578e+004,-1.19644043879147e+001,-3.25166850452762e-001

2.67585510957221e+004,-1.19644041744916e+001,-3.29706016123920e-001

2.71320865489533e+004,-1.19644039550684e+001,-3.34308546423716e-001

2.75108363627948e+004,-1.19644037294766e+001,-3.38975325899363e-001

2.78948733270080e+004,-1.19644034975427e+001,-3.43707251447160e-001

2.82842712474618e+004,-1.19644032590882e+001,-3.48505232483795e-001

2.86791049603164e+004,-1.19644030139302e+001,-3.53370191119274e-001

2.90794503464061e+004,-1.19644027618800e+001,-3.58303062339441e-001

2.94853843458219e+004,-1.19644025027438e+001,-3.63304794180314e-001

2.98969849726987e+004,-1.19644022363225e+001,-3.68376347913892e-001

3.03143313302078e+004,-1.19644019624113e+001,-3.73518698230431e-001

3.07375036257601e+004,-1.19644016807995e+001,-3.78732833427926e-001

3.11665831864199e+004,-1.19644013912707e+001,-3.84019755600438e-001

3.16016524745350e+004,-1.19644010936026e+001,-3.89380480830563e-001

3.20427951035848e+004,-1.19644007875660e+001,-3.94816039387990e-001

3.24900958542493e+004,-1.19644004729257e+001,-4.00327475923649e-001

3.29436406907028e+004,-1.19644001494402e+001,-4.05915849670511e-001

3.34035167771346e+004,-1.19643998168603e+001,-4.11582234651424e-001

3.38698124945009e+004,-1.19643994749307e+001,-4.17327719881177e-001

3.43426174575100e+004,-1.19643991233885e+001,-4.23153409577269e-001

3.48220225318448e+004,-1.19643987619633e+001,-4.29060423373474e-001

3.53081198516260e+004,-1.19643983903776e+001,-4.35049896532295e-001

3.58010028371187e+004,-1.19643980083454e+001,-4.41122980166691e-001

3.63007662126863e+004,-1.19643976155733e+001,-4.47280841458409e-001

3.68075060249948e+004,-1.19643972117592e+001,-4.53524663883127e-001

3.73213196614721e+004,-1.19643967965929e+001,-4.59855647439024e-001

3.78423058690237e+004,-1.19643963697550e+001,-4.66275008876582e-001

3.83705647730104e+004,-1.19643959309177e+001,-4.72783981931865e-001

3.89061978964912e+004,-1.19643954797435e+001,-4.79383817565014e-001

3.94493081797342e+004,-1.19643950158856e+001,-4.86075784200887e-001

3.99999999999998e+004,-1.19643945389874e+001,-4.92861167970722e-001

4.05583791916010e+004,-1.19643940486824e+001,-4.99741272961711e-001

4.11245530662425e+004,-1.19643935445936e+001,-5.06717421466463e-001

4.16986304336447e+004,-1.19643930263337e+001,-5.13790954237341e-001

4.22807216224550e+004,-1.19643924935043e+001,-5.20963230745079e-001

4.28709385014515e+004,-1.19643919456957e+001,-5.28235629438662e-001

4.34693945010421e+004,-1.19643913824870e+001,-5.35609548011626e-001

4.40762046350642e+004,-1.19643908034451e+001,-5.43086403670022e-001

4.46914855228886e+004,-1.19643902081251e+001,-5.50667633405052e-001

4.53153554118317e+004,-1.19643895960693e+001,-5.58354694270551e-001

4.59479341998812e+004,-1.19643889668072e+001,-5.66149063660556e-001

4.65893434587380e+004,-1.19643883198553e+001,-5.74052239594697e-001

4.72397064571810e+004,-1.19643876547162e+001,-5.82065741007342e-001

4.78991481847569e+004,-1.19643869708787e+001,-5.90191108037631e-001

4.85677953758016e+004,-1.19643862678172e+001,-5.98429902327263e-001

4.92457765337964e+004,-1.19643855449911e+001,-6.06783707319827e-001

4.99332219560642e+004,-1.19643848018451e+001,-6.15254128564797e-001

5.06302637588109e+004,-1.19643840378079e+001,-6.23842794027554e-001

5.13370359025159e+004,-1.19643832522923e+001,-6.32551354400777e-001

5.20536742176771e+004,-1.19643824446944e+001,-6.41381483424094e-001

5.27803164309155e+004,-1.19643816143937e+001,-6.50334878203120e-001

5.35171021914442e+004,-1.19643807607518e+001,-6.59413259538927e-001

5.42641730979066e+004,-1.19643798831128e+001,-6.68618372255532e-001

5.50216727255895e+004,-1.19643789808021e+001,-6.77951985537395e-001

5.57897466540159e+004,-1.19643780531261e+001,-6.87415893270802e-001

5.65685424949235e+004,-1.19643770993719e+001,-6.97011914385247e-001

5.73582099206328e+004,-1.19643761188064e+001,-7.06741893206973e-001

5.81589006928121e+004,-1.19643751106762e+001,-7.16607699810100e-001

5.89707686916437e+004,-1.19643740742061e+001,-7.26611230380399e-001

5.97939699453972e+004,-1.19643730085999e+001,-7.36754407575288e-001

6.06286626604156e+004,-1.19643719130384e+001,-7.47039180897688e-001

6.14750072515201e+004,-1.19643707866798e+001,-7.57467527068152e-001

6.23331663728396e+004,-1.19643696286582e+001,-7.68041450406138e-001

6.32033049490698e+004,-1.19643684380839e+001,-7.78762983215655e-001

6.40855902071694e+004,-1.19643672140418e+001,-7.89634186175415e-001

6.49801917084985e+004,-1.19643659555910e+001,-8.00657148736430e-001

6.58872813814055e+004,-1.19643646617648e+001,-8.11833989521295e-001

6.68070335542691e+004,-1.19643633315686e+001,-8.23166856734693e-001

6.77396249890018e+004,-1.19643619639802e+001,-8.34657928575912e-001

6.86852349150199e+004,-1.19643605579488e+001,-8.46309413654842e-001

6.96440450636895e+004,-1.19643591123937e+001,-8.58123551421307e-001

7.06162397032520e+004,-1.19643576262041e+001,-8.70102612592692e-001

7.16020056742374e+004,-1.19643560982379e+001,-8.82248899591224e-001

7.26015324253724e+004,-1.19643545273210e+001,-8.94564746988671e-001

7.36150120499896e+004,-1.19643529122463e+001,-9.07052521952092e-001

7.46426393229441e+004,-1.19643512517727e+001,-9.19714624703442e-001

7.56846117380472e+004,-1.19643495446240e+001,-9.32553488977645e-001

7.67411295460207e+004,-1.19643477894888e+001,-9.45571582491902e-001

7.78123957929823e+004,-1.19643459850183e+001,-9.58771407422044e-001

7.88986163594682e+004,-1.19643441298259e+001,-9.72155500881377e-001

7.99999999999995e+004,-1.19643422224862e+001,-9.85726435411173e-001

8.11167583832018e+004,-1.19643402615336e+001,-9.99486819474222e-001

8.22491061324848e+004,-1.19643382454615e+001,-1.01343929795649e+000

8.33972608672892e+004,-1.19643361727207e+001,-1.02758655267746e+000

8.45614432449099e+004,-1.19643340417188e+001,-1.04193130290418e+000

8.57418770029029e+004,-1.19643318508184e+001,-1.05647630587782e+000

8.69387890020841e+004,-1.19643295983363e+001,-1.07122435733945e+000

8.81524092701283e+004,-1.19643272825419e+001,-1.08617829207302e+000

8.93829710457770e+004,-1.19643249016561e+001,-1.10134098444739e+000

9.06307108236633e+004,-1.19643224538496e+001,-1.11671534897121e+000

9.18958683997622e+004,-1.19643199372420e+001,-1.13230434085355e+000

9.31786869174758e+004,-1.19643173498999e+001,-1.14811095657216e+000

9.44794129143618e+004,-1.19643146898356e+001,-1.16413823445153e+000

9.57982963695136e+004,-1.19643119550057e+001,-1.18038925524602e+000

9.71355907516031e+004,-1.19643091433094e+001,-1.19686714273418e+000

9.84915530675926e+004,-1.19643062525867e+001,-1.21357506431995e+000

9.98664439121282e+004,-1.19643032806171e+001,-1.23051623164189e+000

1.01260527517622e+005,-1.19643002251178e+001,-1.24769390119208e+000

1.02674071805032e+005,-1.19642970837417e+001,-1.26511137494284e+000

1.04107348435354e+005,-1.19642938540760e+001,-1.28277200098215e+000

1.05560632861831e+005,-1.19642905336399e+001,-1.30067917415946e+000

1.07034204382888e+005,-1.19642871198832e+001,-1.31883633673844e+000

1.08528346195813e+005,-1.19642836101841e+001,-1.33724697905954e+000

1.10043345451179e+005,-1.19642800018469e+001,-1.35591464021406e+000

1.11579493308032e+005,-1.19642762921004e+001,-1.37484290872332e+000

1.13137084989847e+005,-1.19642724780957e+001,-1.39403542323221e+000

1.14716419841265e+005,-1.19642685569036e+001,-1.41349587320828e+000

1.16317801385624e+005,-1.19642645255132e+001,-1.43322799965276e+000

1.17941537383287e+005,-1.19642603808284e+001,-1.45323559582341e+000

1.19587939890794e+005,-1.19642561196668e+001,-1.47352250796144e+000

1.21257325320831e+005,-1.19642517387563e+001,-1.49409263603606e+000

1.22950014503040e+005,-1.19642472347332e+001,-1.51494993449448e+000

1.24666332745679e+005,-1.19642426041390e+001,-1.53609841302391e+000

1.26406609898139e+005,-1.19642378434186e+001,-1.55754213732474e+000

1.28171180414339e+005,-1.19642329489170e+001,-1.57928522989359e+000

1.29960383416997e+005,-1.19642279168764e+001,-1.60133187081893e+000

1.31774562762811e+005,-1.19642227434339e+001,-1.62368629858499e+000

1.33614067108538e+005,-1.19642174246178e+001,-1.64635281089186e+000

1.35479249978003e+005,-1.19642119563453e+001,-1.66933576548080e+000

1.37370469830040e+005,-1.19642063344189e+001,-1.69263958097635e+000

1.39288090127379e+005,-1.19642005545235e+001,-1.71626873773809e+000

1.41232479406504e+005,-1.19641946122227e+001,-1.74022777872536e+000

1.43204011348474e+005,-1.19641885029557e+001,-1.76452131037117e+000

1.45203064850745e+005,-1.19641822220340e+001,-1.78915400347386e+000

1.47230024099979e+005,-1.19641757646374e+001,-1.81413059409572e+000

1.49285278645888e+005,-1.19641691258104e+001,-1.83945588447746e+000

1.51369223476094e+005,-1.19641623004589e+001,-1.86513474396584e+000

1.53482259092041e+005,-1.19641552833455e+001,-1.89117210995130e+000

1.55624791585964e+005,-1.19641480690864e+001,-1.91757298882250e+000

1.57797232718936e+005,-1.19641406521464e+001,-1.94434245693253e+000

1.59999999999999e+005,-1.19641330268355e+001,-1.97148566157755e+000

1.62233516766403e+005,-1.19641251873038e+001,-1.99900782199228e+000

1.64498212264969e+005,-1.19641171275378e+001,-2.02691423035630e+000

1.66794521734578e+005,-1.19641088413552e+001,-2.05521025281724e+000

1.69122886489819e+005,-1.19641003224006e+001,-2.08390133052602e+000

1.71483754005805e+005,-1.19640915641402e+001,-2.11299298068933e+000

1.73877578004168e+005,-1.19640825598574e+001,-2.14249079763434e+000

1.76304818540256e+005,-1.19640733026474e+001,-2.17240045388978e+000

1.78765942091554e+005,-1.19640637854117e+001,-2.20272770128311e+000

1.81261421647326e+005,-1.19640540008532e+001,-2.23347837205101e+000

1.83791736799524e+005,-1.19640439414702e+001,-2.26465837996820e+000

1.86357373834951e+005,-1.19640335995510e+001,-2.29627372148929e+000

1.88958825828723e+005,-1.19640229671680e+001,-2.32833047690959e+000

1.91596592739027e+005,-1.19640120361714e+001,-2.36083481154046e+000

1.94271181503206e+005,-1.19640007981834e+001,-2.39379297690268e+000

1.96983106135185e+005,-1.19639892445915e+001,-2.42721131193506e+000

1.99732887824256e+005,-1.19639773665423e+001,-2.46109624422134e+000

2.02521055035243e+005,-1.19639651549344e+001,-2.49545429123554e+000

2.05348143610063e+005,-1.19639526004118e+001,-2.53029206160157e+000

2.08214696870707e+005,-1.19639396933567e+001,-2.56561625637460e+000

2.11121265723661e+005,-1.19639264238823e+001,-2.60143367033836e+000

2.14068408765776e+005,-1.19639127818248e+001,-2.63775119332096e+000

2.17056692391625e+005,-1.19638987567367e+001,-2.67457581153054e+000

2.20086690902357e+005,-1.19638843378779e+001,-2.71191460890883e+000

2.23158986616063e+005,-1.19638695142082e+001,-2.74977476850415e+000

2.26274169979693e+005,-1.19638542743786e+001,-2.78816357386459e+000

2.29432839682530e+005,-1.19638386067228e+001,-2.82708841045056e+000

2.32635602771247e+005,-1.19638224992487e+001,-2.86655676706712e+000

2.35883074766574e+005,-1.19638059396287e+001,-2.90657623731769e+000

2.39175879781588e+005,-1.19637889151912e+001,-2.94715452107706e+000

2.42514650641661e+005,-1.19637714129103e+001,-2.98829942598764e+000

2.45900029006080e+005,-1.19637534193963e+001,-3.03001886897388e+000

2.49332665491357e+005,-1.19637349208858e+001,-3.07232087778187e+000

2.52813219796278e+005,-1.19637159032310e+001,-3.11521359253889e+000

2.56342360828676e+005,-1.19636963518891e+001,-3.15870526733431e+000

2.59920766833993e+005,-1.19636762519116e+001,-3.20280427182686e+000

2.63549125525621e+005,-1.19636555879328e+001,-3.24751909286991e+000

2.67228134217075e+005,-1.19636343441583e+001,-3.29285833616500e+000

2.70958499956006e+005,-1.19636125043532e+001,-3.33883072793532e+000

2.74740939660078e+005,-1.19635900518302e+001,-3.38544511662487e+000

2.78576180254757e+005,-1.19635669694363e+001,-3.43271047462293e+000

2.82464958813007e+005,-1.19635432395409e+001,-3.48063590001058e+000

2.86408022696948e+005,-1.19635188440218e+001,-3.52923061833531e+000

2.90406129701488e+005,-1.19634937642520e+001,-3.57850398440978e+000

2.94460048199957e+005,-1.19634679810860e+001,-3.62846548413580e+000

2.98570557291775e+005,-1.19634414748450e+001,-3.67912473635645e+000

3.02738446952187e+005,-1.19634142253026e+001,-3.73049149473356e+000

3.06964518184081e+005,-1.19633862116694e+001,-3.78257564965274e+000

3.11249583171928e+005,-1.19633574125778e+001,-3.83538723015649e+000

3.15594465437872e+005,-1.19633278060660e+001,-3.88893640590360e+000

3.19999999999997e+005,-1.19632973695614e+001,-3.94323348915972e+000

3.24467033532806e+005,-1.19632660798644e+001,-3.99828893681434e+000

3.28996424529938e+005,-1.19632339131305e+001,-4.05411335242804e+000

3.33589043469155e+005,-1.19632008448531e+001,-4.11071748830957e+000

3.38245772979638e+005,-1.19631668498452e+001,-4.16811224762364e+000

3.42967508011610e+005,-1.19631319022208e+001,-4.22630868652791e+000

3.47755156008335e+005,-1.19630959753754e+001,-4.28531801634275e+000

3.52609637080511e+005,-1.19630590419671e+001,-4.34515160575199e+000

3.57531884183106e+005,-1.19630210738955e+001,-4.40582098303596e+000

3.62522843294651e+005,-1.19629820422821e+001,-4.46733783833672e+000

3.67583473599047e+005,-1.19629419174478e+001,-4.52971402595794e+000

3.72714747669902e+005,-1.19629006688921e+001,-4.59296156669696e+000

3.77917651657445e+005,-1.19628582652703e+001,-4.65709265021174e+000

3.83193185478053e+005,-1.19628146743706e+001,-4.72211963742263e+000

3.88542363006410e+005,-1.19627698630904e+001,-4.78805506295040e+000

3.93966212270369e+005,-1.19627237974122e+001,-4.85491163758865e+000

3.99465775648511e+005,-1.19626764423788e+001,-4.92270225081368e+000

4.05042110070485e+005,-1.19626277620678e+001,-4.99143997333166e+000

4.10696287220124e+005,-1.19625777195656e+001,-5.06113805966326e+000

4.16429393741414e+005,-1.19625262769403e+001,-5.13180995076678e+000

4.22242531447321e+005,-1.19624733952143e+001,-5.20346927670026e+000

4.28136817531551e+005,-1.19624190343364e+001,-5.27612985932301e+000

4.34113384783250e+005,-1.19623631531523e+001,-5.34980571503788e+000

4.40173381804713e+005,-1.19623057093755e+001,-5.42451105757453e+000

4.46317973232124e+005,-1.19622466595563e+001,-5.50026030081363e+000

4.52548339959385e+005,-1.19621859590510e+001,-5.57706806165469e+000

4.58865679365059e+005,-1.19621235619897e+001,-5.65494916292571e+000

4.65271205542494e+005,-1.19620594212435e+001,-5.73391863633707e+000

4.71766149533147e+005,-1.19619934883908e+001,-5.81399172548114e+000

4.78351759563174e+005,-1.19619257136830e+001,-5.89518388887481e+000

4.85029301283321e+005,-1.19618560460090e+001,-5.97751080305051e+000

4.91800058012158e+005,-1.19617844328586e+001,-6.06098836569267e+000

4.98665330982714e+005,-1.19617108202860e+001,-6.14563269882222e+000

5.05626439592555e+005,-1.19616351528714e+001,-6.23146015202987e+000

5.12684721657352e+005,-1.19615573736819e+001,-6.31848730575891e+000

5.19841533667984e+005,-1.19614774242315e+001,-6.40673097463716e+000

5.27098251051240e+005,-1.19613952444405e+001,-6.49620821086145e+000

5.34456268434150e+005,-1.19613107725931e+001,-6.58693630763324e+000

5.41916999912011e+005,-1.19612239452948e+001,-6.67893280264742e+000

