Freq.,VOut,OutRef

1.00000000000000e+004,-1.88391099613523e+001,-1.33079106555036e-001

1.01395947979003e+004,-1.88391101276229e+001,-1.34936820735359e-001

1.02811382665607e+004,-1.88391102985682e+001,-1.36820467599393e-001

1.04246576084112e+004,-1.88391104743194e+001,-1.38730409153440e-001

1.05701804056138e+004,-1.88391106550117e+001,-1.40667012454714e-001

1.07177346253629e+004,-1.88391108407838e+001,-1.42630649687717e-001

1.08673486252606e+004,-1.88391110317788e+001,-1.44621698227282e-001

1.10190511587661e+004,-1.88391112281433e+001,-1.46640540721816e-001

1.11728713807222e+004,-1.88391114300282e+001,-1.48687565157982e-001

1.13288388529580e+004,-1.88391116375891e+001,-1.50763164936981e-001

1.14869835499703e+004,-1.88391118509853e+001,-1.52867738954329e-001

1.16473358646846e+004,-1.88391120703807e+001,-1.55001691675029e-001

1.18099266142953e+004,-1.88391122959442e+001,-1.57165433205400e-001

1.19747870461893e+004,-1.88391125278491e+001,-1.59359379380888e-001

1.21419488439505e+004,-1.88391127662739e+001,-1.61583951838437e-001

1.23114441334492e+004,-1.88391130114015e+001,-1.63839578104336e-001

1.24833054890161e+004,-1.88391132634207e+001,-1.66126691668805e-001

1.26575659397028e+004,-1.88391135225251e+001,-1.68445732075990e-001

1.28342589756290e+004,-1.88391137889137e+001,-1.70797145006327e-001

1.30134185544193e+004,-1.88391140627918e+001,-1.73181382357387e-001

1.31950791077289e+004,-1.88391143443694e+001,-1.75598902339565e-001

1.33792755478611e+004,-1.88391146338633e+001,-1.78050169557205e-001

1.35660432744767e+004,-1.88391149314960e+001,-1.80535655099758e-001

1.37554181813974e+004,-1.88391152374963e+001,-1.83055836634415e-001

1.39474366635040e+004,-1.88391155520992e+001,-1.85611198495631e-001

1.41421356237309e+004,-1.88391158755470e+001,-1.88202231776718e-001

1.43395524801583e+004,-1.88391162080881e+001,-1.90829434428432e-001

1.45397251732031e+004,-1.88391165499780e+001,-1.93493311353046e-001

1.47426921729110e+004,-1.88391169014799e+001,-1.96194374497534e-001

1.49484924863494e+004,-1.88391172628636e+001,-1.98933142959770e-001

1.51571656651040e+004,-1.88391176344073e+001,-2.01710143079417e-001

1.53687518128801e+004,-1.88391180163966e+001,-2.04525908544760e-001

1.55832915932100e+004,-1.88391184091248e+001,-2.07380980497182e-001

1.58008262372675e+004,-1.88391188128942e+001,-2.10275907625855e-001

1.60213975517924e+004,-1.88391192280150e+001,-2.13211246284029e-001

1.62450479271247e+004,-1.88391196548064e+001,-2.16187560588999e-001

1.64718203453514e+004,-1.88391200935966e+001,-2.19205422532650e-001

1.67017583885674e+004,-1.88391205447226e+001,-2.22265412092605e-001

1.69349062472505e+004,-1.88391210085316e+001,-2.25368117339705e-001

1.71713087287550e+004,-1.88391214853799e+001,-2.28514134556535e-001

1.74110112659224e+004,-1.88391219756342e+001,-2.31704068347986e-001

1.76540599258131e+004,-1.88391224796714e+001,-2.34938531757362e-001

1.79005014185594e+004,-1.88391229978789e+001,-2.38218146388221e-001

1.81503831063432e+004,-1.88391235306552e+001,-2.41543542518040e-001

1.84037530124975e+004,-1.88391240784097e+001,-2.44915359224378e-001

1.86606598307361e+004,-1.88391246415637e+001,-2.48334244504399e-001

1.89211529345119e+004,-1.88391252205499e+001,-2.51800855401696e-001

1.91852823865052e+004,-1.88391258158135e+001,-2.55315858129904e-001

1.94530989482457e+004,-1.88391264278123e+001,-2.58879928203179e-001

1.97246540898671e+004,-1.88391270570165e+001,-2.62493750565234e-001

1.99999999999999e+004,-1.88391277039101e+001,-2.66158019720085e-001

2.02791895958005e+004,-1.88391283689902e+001,-2.69873439866410e-001

2.05622765331213e+004,-1.88391290527681e+001,-2.73640725033694e-001

2.08493152168224e+004,-1.88391297557694e+001,-2.77460599216721e-001

2.11403608112276e+004,-1.88391304785347e+001,-2.81333796516988e-001

2.14354692507258e+004,-1.88391312216195e+001,-2.85261061283096e-001

2.17346972505211e+004,-1.88391319855952e+001,-2.89243148253203e-001

2.20381023175322e+004,-1.88391327710491e+001,-2.93280822701435e-001

2.23457427614443e+004,-1.88391335785847e+001,-2.97374860584919e-001

2.26576777059159e+004,-1.88391344088233e+001,-3.01526048689148e-001

2.29739670999406e+004,-1.88391352624028e+001,-3.05735184784510e-001

2.32946717293690e+004,-1.88391361399794e+001,-3.10003077776738e-001

2.36198532285905e+004,-1.88391370422279e+001,-3.14330547861565e-001

2.39495740923785e+004,-1.88391379698419e+001,-3.18718426684152e-001

2.42838976879009e+004,-1.88391389235345e+001,-3.23167557498359e-001

2.46228882668982e+004,-1.88391399040387e+001,-3.27678795328491e-001

2.49666109780322e+004,-1.88391409121084e+001,-3.32253007133211e-001

2.53151318794055e+004,-1.88391419485185e+001,-3.36891071972661e-001

2.56685179512580e+004,-1.88391430140658e+001,-3.41593881176996e-001

2.60268371088386e+004,-1.88391441095694e+001,-3.46362338518653e-001

2.63901582154578e+004,-1.88391452358715e+001,-3.51197360384337e-001

2.67585510957221e+004,-1.88391463938379e+001,-3.56099875952482e-001

2.71320865489533e+004,-1.88391475843589e+001,-3.61070827369669e-001

2.75108363627948e+004,-1.88391488083495e+001,-3.66111169936041e-001

2.78948733270080e+004,-1.88391500667508e+001,-3.71221872282821e-001

2.82842712474618e+004,-1.88391513605303e+001,-3.76403916563191e-001

2.86791049603164e+004,-1.88391526906822e+001,-3.81658298639570e-001

2.90794503464061e+004,-1.88391540582296e+001,-3.86986028272715e-001

2.94853843458219e+004,-1.88391554642232e+001,-3.92388129320605e-001

2.98969849726987e+004,-1.88391569097444e+001,-3.97865639928440e-001

3.03143313302078e+004,-1.88391583959040e+001,-4.03419612735671e-001

3.07375036257601e+004,-1.88391599238447e+001,-4.09051115070882e-001

3.11665831864199e+004,-1.88391614947410e+001,-4.14761229162436e-001

3.16016524745350e+004,-1.88391631098007e+001,-4.20551052342766e-001

3.20427951035848e+004,-1.88391647702651e+001,-4.26421697262007e-001

3.24900958542493e+004,-1.88391664774108e+001,-4.32374292099160e-001

3.29436406907028e+004,-1.88391682325501e+001,-4.38409980779819e-001

3.34035167771346e+004,-1.88391700370324e+001,-4.44529923195939e-001

3.38698124945009e+004,-1.88391718922446e+001,-4.50735295430270e-001

3.43426174575100e+004,-1.88391737996131e+001,-4.57027289978424e-001

3.48220225318448e+004,-1.88391757606040e+001,-4.63407115981370e-001

3.53081198516260e+004,-1.88391777767248e+001,-4.69875999456242e-001

3.58010028371187e+004,-1.88391798495255e+001,-4.76435183531661e-001

3.63007662126863e+004,-1.88391819805994e+001,-4.83085928687261e-001

3.68075060249948e+004,-1.88391841715848e+001,-4.89829512994718e-001

3.73213196614721e+004,-1.88391864241659e+001,-4.96667232364957e-001

3.78423058690237e+004,-1.88391887400743e+001,-5.03600400794899e-001

3.83705647730104e+004,-1.88391911210903e+001,-5.10630350621473e-001

3.89061978964912e+004,-1.88391935690444e+001,-5.17758432775869e-001

3.94493081797342e+004,-1.88391960858181e+001,-5.24986017045253e-001

3.99999999999998e+004,-1.88391986733464e+001,-5.32314492333181e-001

4.05583791916010e+004,-1.88392013336183e+001,-5.39745266928277e-001

4.11245530662425e+004,-1.88392040686786e+001,-5.47279768774450e-001

4.16986304336447e+004,-1.88392068806301e+001,-5.54919445743263e-001

4.22807216224550e+004,-1.88392097716342e+001,-5.62665765915156e-001

4.28709385014515e+004,-1.88392127439133e+001,-5.70520217858039e-001

4.34693945010421e+004,-1.88392157997521e+001,-5.78484310915365e-001

4.40762046350642e+004,-1.88392189414998e+001,-5.86559575494216e-001

4.46914855228886e+004,-1.88392221715715e+001,-5.94747563361147e-001

4.53153554118317e+004,-1.88392254924501e+001,-6.03049847938167e-001

4.59479341998812e+004,-1.88392289066884e+001,-6.11468024606500e-001

4.65893434587380e+004,-1.88392324169109e+001,-6.20003711011283e-001

4.72397064571810e+004,-1.88392360258160e+001,-6.28658547373571e-001

4.78991481847569e+004,-1.88392397361778e+001,-6.37434196803122e-001

4.85677953758016e+004,-1.88392435508484e+001,-6.46332345620717e-001

4.92457765337964e+004,-1.88392474727602e+001,-6.55354703679030e-001

4.99332219560642e+004,-1.88392515049279e+001,-6.64503004692719e-001

5.06302637588109e+004,-1.88392556504510e+001,-6.73779006570298e-001

5.13370359025159e+004,-1.88392599125160e+001,-6.83184491750940e-001

5.20536742176771e+004,-1.88392642943993e+001,-6.92721267548088e-001

5.27803164309155e+004,-1.88392687994689e+001,-7.02391166495789e-001

5.35171021914442e+004,-1.88392734311880e+001,-7.12196046699806e-001

5.42641730979066e+004,-1.88392781931167e+001,-7.22137792194420e-001

5.50216727255895e+004,-1.88392830889156e+001,-7.32218313303916e-001

5.57897466540159e+004,-1.88392881223477e+001,-7.42439547010203e-001

5.65685424949235e+004,-1.88392932972823e+001,-7.52803457323051e-001

5.73582099206328e+004,-1.88392986176970e+001,-7.63312035657643e-001

5.81589006928121e+004,-1.88393040876815e+001,-7.73967301216978e-001

5.89707686916437e+004,-1.88393097114402e+001,-7.84771301378177e-001

5.97939699453972e+004,-1.88393154932960e+001,-7.95726112086772e-001

6.06286626604156e+004,-1.88393214376932e+001,-8.06833838252832e-001

6.14750072515201e+004,-1.88393275492007e+001,-8.18096614157293e-001

6.23331663728396e+004,-1.88393338325163e+001,-8.29516603859857e-001

6.32033049490698e+004,-1.88393402924695e+001,-8.41096001614197e-001

6.40855902071694e+004,-1.88393469340258e+001,-8.52837032288461e-001

6.49801917084985e+004,-1.88393537622899e+001,-8.64741951793541e-001

6.58872813814055e+004,-1.88393607825104e+001,-8.76813047513492e-001

6.68070335542691e+004,-1.88393680000833e+001,-8.89052638745948e-001

6.77396249890018e+004,-1.88393754205560e+001,-9.01463077146094e-001

6.86852349150199e+004,-1.88393830496321e+001,-9.14046747177614e-001

6.96440450636895e+004,-1.88393908931753e+001,-9.26806066570316e-001

7.06162397032520e+004,-1.88393989572144e+001,-9.39743486782692e-001

7.16020056742374e+004,-1.88394072479473e+001,-9.52861493473087e-001

7.26015324253724e+004,-1.88394157717464e+001,-9.66162606974537e-001

7.36150120499896e+004,-1.88394245351630e+001,-9.79649382780267e-001

7.46426393229441e+004,-1.88394335449325e+001,-9.93324412031320e-001

7.56846117380472e+004,-1.88394428079797e+001,-1.00719032201367e+000

7.67411295460207e+004,-1.88394523314240e+001,-1.02124977666231e+000

7.78123957929823e+004,-1.88394621225848e+001,-1.03550547707121e+000

7.88986163594682e+004,-1.88394721889875e+001,-1.04996016201063e+000

7.99999999999995e+004,-1.88394825383686e+001,-1.06461660845293e+000

8.11167583832018e+004,-1.88394931786821e+001,-1.07947763210365e+000

8.22491061324848e+004,-1.88395041181057e+001,-1.09454608793973e+000

8.33972608672892e+004,-1.88395153650470e+001,-1.10982487075900e+000

8.45614432449099e+004,-1.88395269281494e+001,-1.12531691573288e+000

8.57418770029029e+004,-1.88395388162997e+001,-1.14102519896795e+000

8.69387890020841e+004,-1.88395510386341e+001,-1.15695273807751e+000

8.81524092701283e+004,-1.88395636045458e+001,-1.17310259275782e+000

8.93829710457770e+004,-1.88395765236918e+001,-1.18947786537454e+000

9.06307108236633e+004,-1.88395898060004e+001,-1.20608170155680e+000

9.18958683997622e+004,-1.88396034616791e+001,-1.22291729079753e+000

9.31786869174758e+004,-1.88396175012221e+001,-1.23998786706708e+000

9.44794129143618e+004,-1.88396319354185e+001,-1.25729670942850e+000

9.57982963695136e+004,-1.88396467753604e+001,-1.27484714266790e+000

9.71355907516031e+004,-1.88396620324519e+001,-1.29264253792772e+000

9.84915530675926e+004,-1.88396777184173e+001,-1.31068631335351e+000

9.98664439121282e+004,-1.88396938453105e+001,-1.32898193474770e+000

1.01260527517622e+005,-1.88397104255238e+001,-1.34753291623089e+000

1.02674071805032e+005,-1.88397274717979e+001,-1.36634282091456e+000

1.04107348435354e+005,-1.88397449972315e+001,-1.38541526158248e+000

1.05560632861831e+005,-1.88397630152912e+001,-1.40475390138129e+000

1.07034204382888e+005,-1.88397815398221e+001,-1.42436245451932e+000

1.08528346195813e+005,-1.88398005850580e+001,-1.44424468697815e+000

1.10043345451179e+005,-1.88398201656328e+001,-1.46440441723077e+000

1.11579493308032e+005,-1.88398402965916e+001,-1.48484551697119e+000

1.13137084989847e+005,-1.88398609934018e+001,-1.50557191185465e+000

1.14716419841265e+005,-1.88398822719658e+001,-1.52658758224613e+000

1.16317801385624e+005,-1.88399041486324e+001,-1.54789656398106e+000

1.17941537383287e+005,-1.88399266402097e+001,-1.56950294913519e+000

1.19587939890794e+005,-1.88399497639782e+001,-1.59141088680529e+000

1.21257325320831e+005,-1.88399735377034e+001,-1.61362458390252e+000

1.22950014503040e+005,-1.88399979796502e+001,-1.63614830595270e+000

1.24666332745679e+005,-1.88400231085962e+001,-1.65898637791125e+000

1.26406609898139e+005,-1.88400489438468e+001,-1.68214318498695e+000

1.28171180414339e+005,-1.88400755052493e+001,-1.70562317347973e+000

1.29960383416997e+005,-1.88401028132087e+001,-1.72943085162526e+000

1.31774562762811e+005,-1.88401308887029e+001,-1.75357079045751e+000

1.33614067108538e+005,-1.88401597532991e+001,-1.77804762467630e+000

1.35479249978003e+005,-1.88401894291701e+001,-1.80286605353236e+000

1.37370469830040e+005,-1.88402199391114e+001,-1.82803084172118e+000

1.39288090127379e+005,-1.88402513065587e+001,-1.85354682028973e+000

1.41232479406504e+005,-1.88402835556059e+001,-1.87941888755666e+000

1.43204011348474e+005,-1.88403167110233e+001,-1.90565201004390e+000

1.45203064850745e+005,-1.88403507982769e+001,-1.93225122342075e+000

1.47230024099979e+005,-1.88403858435475e+001,-1.95922163346311e+000

1.49285278645888e+005,-1.88404218737513e+001,-1.98656841702222e+000

1.51369223476094e+005,-1.88404589165601e+001,-2.01429682300902e+000

1.53482259092041e+005,-1.88404970004226e+001,-2.04241217339220e+000

1.55624791585964e+005,-1.88405361545862e+001,-2.07091986420737e+000

1.57797232718936e+005,-1.88405764091194e+001,-2.09982536658320e+000

1.59999999999999e+005,-1.88406177949348e+001,-2.12913422777799e+000

1.62233516766403e+005,-1.88406603438127e+001,-2.15885207223400e+000

1.64498212264969e+005,-1.88407040884255e+001,-2.18898460264242e+000

1.66794521734578e+005,-1.88407490623628e+001,-2.21953760102495e+000

1.69122886489819e+005,-1.88407953001569e+001,-2.25051692983055e+000

1.71483754005805e+005,-1.88408428373091e+001,-2.28192853304481e+000

1.73877578004168e+005,-1.88408917103174e+001,-2.31377843731532e+000

1.76304818540256e+005,-1.88409419567039e+001,-2.34607275309311e+000

1.78765942091554e+005,-1.88409936150436e+001,-2.37881767578888e+000

1.81261421647326e+005,-1.88410467249942e+001,-2.41201948694307e+000

1.83791736799524e+005,-1.88411013273256e+001,-2.44568455541522e+000

1.86357373834951e+005,-1.88411574639524e+001,-2.47981933858557e+000

1.88958825828723e+005,-1.88412151779645e+001,-2.51443038357548e+000

1.91596592739027e+005,-1.88412745136610e+001,-2.54952432848291e+000

1.94271181503206e+005,-1.88413355165837e+001,-2.58510790363411e+000

1.96983106135185e+005,-1.88413982335518e+001,-2.62118793285375e+000

1.99732887824256e+005,-1.88414627126980e+001,-2.65777133474989e+000

2.02521055035243e+005,-1.88415290035045e+001,-2.69486512401754e+000

2.05348143610063e+005,-1.88415971568420e+001,-2.73247641275883e+000

2.08214696870707e+005,-1.88416672250071e+001,-2.77061241182137e+000

2.11121265723661e+005,-1.88417392617633e+001,-2.80928043215330e+000

2.14068408765776e+005,-1.88418133223816e+001,-2.84848788617761e+000

2.17056692391625e+005,-1.88418894636827e+001,-2.88824228918366e+000

2.20086690902357e+005,-1.88419677440801e+001,-2.92855126073757e+000

2.23158986616063e+005,-1.88420482236250e+001,-2.96942252611137e+000

2.26274169979693e+005,-1.88421309640519e+001,-3.01086391772933e+000

2.29432839682530e+005,-1.88422160288257e+001,-3.05288337663651e+000

2.32635602771247e+005,-1.88423034831899e+001,-3.09548895398359e+000

2.35883074766574e+005,-1.88423933942165e+001,-3.13868881253221e+000

2.39175879781588e+005,-1.88424858308569e+001,-3.18249122818035e+000

2.42514650641661e+005,-1.88425808639944e+001,-3.22690459150752e+000

2.45900029006080e+005,-1.88426785664982e+001,-3.27193740933924e+000

2.49332665491357e+005,-1.88427790132791e+001,-3.31759830633277e+000

2.52813219796278e+005,-1.88428822813458e+001,-3.36389602658299e+000

2.56342360828676e+005,-1.88429884498643e+001,-3.41083943524923e+000

2.59920766833993e+005,-1.88430976002170e+001,-3.45843752020352e+000

2.63549125525621e+005,-1.88432098160660e+001,-3.50669939369791e+000

2.67228134217075e+005,-1.88433251834151e+001,-3.55563429405681e+000

2.70958499956006e+005,-1.88434437906761e+001,-3.60525158738806e+000

2.74740939660078e+005,-1.88435657287359e+001,-3.65556076931649e+000

2.78576180254757e+005,-1.88436910910247e+001,-3.70657146674111e+000

2.82464958813007e+005,-1.88438199735877e+001,-3.75829343961240e+000

2.86408022696948e+005,-1.88439524751576e+001,-3.81073658273359e+000

2.90406129701488e+005,-1.88440886972293e+001,-3.86391092758431e+000

2.94460048199957e+005,-1.88442287441370e+001,-3.91782664416770e+000

2.98570557291775e+005,-1.88443727231331e+001,-3.97249404287918e+000

3.02738446952187e+005,-1.88445207444696e+001,-4.02792357640055e+000

3.06964518184081e+005,-1.88446729214812e+001,-4.08412584161658e+000

3.11249583171928e+005,-1.88448293706711e+001,-4.14111158155590e+000

3.15594465437872e+005,-1.88449902117994e+001,-4.19889168735503e+000

3.19999999999997e+005,-1.88451555679732e+001,-4.25747720024855e+000

3.24467033532806e+005,-1.88453255657397e+001,-4.31687931358159e+000

3.28996424529938e+005,-1.88455003351819e+001,-4.37710937484817e+000

3.33589043469155e+005,-1.88456800100164e+001,-4.43817888775438e+000

3.38245772979638e+005,-1.88458647276947e+001,-4.50009951430664e+000

3.42967508011610e+005,-1.88460546295062e+001,-4.56288307692417e+000

3.47755156008335e+005,-1.88462498606854e+001,-4.62654156057880e+000

3.52609637080511e+005,-1.88464505705203e+001,-4.69108711495856e+000

3.57531884183106e+005,-1.88466569124657e+001,-4.75653205665791e+000

3.62522843294651e+005,-1.88468690442577e+001,-4.82288887139453e+000

3.67583473599047e+005,-1.88470871280328e+001,-4.89017021625138e+000

3.72714747669902e+005,-1.88473113304496e+001,-4.95838892194460e+000

3.77917651657445e+005,-1.88475418228136e+001,-5.02755799512015e+000

3.83193185478053e+005,-1.88477787812059e+001,-5.09769062067396e+000

3.88542363006410e+005,-1.88480223866151e+001,-5.16880016410196e+000

3.93966212270369e+005,-1.88482728250728e+001,-5.24090017387499e+000

3.99465775648511e+005,-1.88485302877928e+001,-5.31400438384092e+000

4.05042110070485e+005,-1.88487949713142e+001,-5.38812671565509e+000

4.10696287220124e+005,-1.88490670776482e+001,-5.46328128123741e+000

4.16429393741414e+005,-1.88493468144288e+001,-5.53948238525616e+000

4.22242531447321e+005,-1.88496343950677e+001,-5.61674452764076e+000

4.28136817531551e+005,-1.88499300389135e+001,-5.69508240612087e+000

4.34113384783250e+005,-1.88502339714150e+001,-5.77451091879382e+000

4.40173381804713e+005,-1.88505464242889e+001,-5.85504516671929e+000

4.46317973232124e+005,-1.88508676356918e+001,-5.93670045654298e+000

4.52548339959385e+005,-1.88511978503974e+001,-6.01949230314594e+000

4.58865679365059e+005,-1.88515373199779e+001,-6.10343643232396e+000

4.65271205542494e+005,-1.88518863029904e+001,-6.18854878349392e+000

4.71766149533147e+005,-1.88522450651684e+001,-6.27484551242710e+000

4.78351759563174e+005,-1.88526138796184e+001,-6.36234299401246e+000

4.85029301283321e+005,-1.88529930270213e+001,-6.45105782504537e+000

4.91800058012158e+005,-1.88533827958399e+001,-6.54100682704591e+000

4.98665330982714e+005,-1.88537834825310e+001,-6.63220704910392e+000

5.05626439592555e+005,-1.88541953917643e+001,-6.72467577075185e+000

5.12684721657352e+005,-1.88546188366456e+001,-6.81843050486548e+000

5.19841533667984e+005,-1.88550541389475e+001,-6.91348900059103e+000

5.27098251051240e+005,-1.88555016293445e+001,-7.00986924630055e+000

5.34456268434150e+005,-1.88559616476559e+001,-7.10758947257391e+000

5.41916999912011e+005,-1.88564345430938e+001,-7.20666815520715e+000

