Freq.,VOut,OutRef

1.00000000000000e+004,-1.27801286861344e+001,-7.02627422382038e-002

1.01395947979003e+004,-1.27801286844795e+001,-7.12435735958926e-002

1.02811382665607e+004,-1.27801286827778e+001,-7.22380968519801e-002

1.04246576084112e+004,-1.27801286810282e+001,-7.32465031360439e-002

1.05701804056138e+004,-1.27801286792297e+001,-7.42689862477476e-002

1.07177346253629e+004,-1.27801286773805e+001,-7.53057426937538e-002

1.08673486252606e+004,-1.27801286754791e+001,-7.63569717230346e-002

1.10190511587661e+004,-1.27801286735246e+001,-7.74228753620190e-002

1.11728713807222e+004,-1.27801286715150e+001,-7.85036584638707e-002

1.13288388529580e+004,-1.27801286694488e+001,-7.95995287378586e-002

1.14869835499703e+004,-1.27801286673246e+001,-8.07106967920515e-002

1.16473358646846e+004,-1.27801286651407e+001,-8.18373761756300e-002

1.18099266142953e+004,-1.27801286628956e+001,-8.29797834179582e-002

1.19747870461893e+004,-1.27801286605871e+001,-8.41381380749195e-002

1.21419488439505e+004,-1.27801286582137e+001,-8.53126627618535e-002

1.23114441334492e+004,-1.27801286557737e+001,-8.65035832037770e-002

1.24833054890161e+004,-1.27801286532651e+001,-8.77111282782687e-002

1.26575659397028e+004,-1.27801286506858e+001,-8.89355300566466e-002

1.28342589756290e+004,-1.27801286480342e+001,-9.01770238483701e-002

1.30134185544193e+004,-1.27801286453078e+001,-9.14358482509129e-002

1.31950791077289e+004,-1.27801286425050e+001,-9.27122451887242e-002

1.33792755478611e+004,-1.27801286396233e+001,-9.40064599672440e-002

1.35660432744767e+004,-1.27801286366607e+001,-9.53187413125887e-002

1.37554181813974e+004,-1.27801286336146e+001,-9.66493414268270e-002

1.39474366635040e+004,-1.27801286304829e+001,-9.79985160295384e-002

1.41421356237309e+004,-1.27801286272633e+001,-9.93665244102274e-002

1.43395524801583e+004,-1.27801286239531e+001,-1.00753629480072e-001

1.45397251732031e+004,-1.27801286205500e+001,-1.02160097817290e-001

1.47426921729110e+004,-1.27801286170511e+001,-1.03586199724934e-001

1.49484924863494e+004,-1.27801286134537e+001,-1.05032209278688e-001

1.51571656651040e+004,-1.27801286097553e+001,-1.06498404375883e-001

1.53687518128801e+004,-1.27801286059529e+001,-1.07985066798160e-001

1.55832915932100e+004,-1.27801286020437e+001,-1.09492482258157e-001

1.58008262372675e+004,-1.27801285980243e+001,-1.11020940459914e-001

1.60213975517924e+004,-1.27801285938923e+001,-1.12570735145405e-001

1.62450479271247e+004,-1.27801285896439e+001,-1.14142164164452e-001

1.64718203453514e+004,-1.27801285852760e+001,-1.15735529520605e-001

1.67017583885674e+004,-1.27801285807855e+001,-1.17351137432584e-001

1.69349062472505e+004,-1.27801285761687e+001,-1.18989298395543e-001

1.71713087287550e+004,-1.27801285714221e+001,-1.20650327239393e-001

1.74110112659224e+004,-1.27801285665419e+001,-1.22334543188723e-001

1.76540599258131e+004,-1.27801285615247e+001,-1.24042269921224e-001

1.79005014185594e+004,-1.27801285563663e+001,-1.25773835637734e-001

1.81503831063432e+004,-1.27801285510630e+001,-1.27529573116811e-001

1.84037530124975e+004,-1.27801285456105e+001,-1.29309819785518e-001

1.86606598307361e+004,-1.27801285400047e+001,-1.31114917778685e-001

1.89211529345119e+004,-1.27801285342414e+001,-1.32945214007698e-001

1.91852823865052e+004,-1.27801285283161e+001,-1.34801060227774e-001

1.94530989482457e+004,-1.27801285222242e+001,-1.36682813104174e-001

1.97246540898671e+004,-1.27801285159608e+001,-1.38590834280785e-001

1.99999999999999e+004,-1.27801285095217e+001,-1.40525490448339e-001

2.02791895958005e+004,-1.27801285029013e+001,-1.42487153419571e-001

2.05622765331213e+004,-1.27801284960948e+001,-1.44476200194965e-001

2.08493152168224e+004,-1.27801284890971e+001,-1.46493013037814e-001

2.11403608112276e+004,-1.27801284819025e+001,-1.48537979550858e-001

2.14354692507258e+004,-1.27801284745058e+001,-1.50611492741903e-001

2.17346972505211e+004,-1.27801284669010e+001,-1.52713951110863e-001

2.20381023175322e+004,-1.27801284590825e+001,-1.54845758716302e-001

2.23457427614443e+004,-1.27801284510442e+001,-1.57007325258935e-001

2.26576777059159e+004,-1.27801284427799e+001,-1.59199066159946e-001

2.29739670999406e+004,-1.27801284342833e+001,-1.61421402636294e-001

2.32946717293690e+004,-1.27801284255476e+001,-1.63674761789076e-001

2.36198532285905e+004,-1.27801284165665e+001,-1.65959576677086e-001

2.39495740923785e+004,-1.27801284073330e+001,-1.68276286407290e-001

2.42838976879009e+004,-1.27801283978398e+001,-1.70625336216708e-001

2.46228882668982e+004,-1.27801283880798e+001,-1.73007177555054e-001

2.49666109780322e+004,-1.27801283780453e+001,-1.75422268177375e-001

2.53151318794055e+004,-1.27801283677288e+001,-1.77871072226606e-001

2.56685179512580e+004,-1.27801283571222e+001,-1.80354060324880e-001

2.60268371088386e+004,-1.27801283462174e+001,-1.82871709665339e-001

2.63901582154578e+004,-1.27801283350060e+001,-1.85424504101236e-001

2.67585510957221e+004,-1.27801283234796e+001,-1.88012934239753e-001

2.71320865489533e+004,-1.27801283116289e+001,-1.90637497539707e-001

2.75108363627948e+004,-1.27801282994453e+001,-1.93298698400101e-001

2.78948733270080e+004,-1.27801282869191e+001,-1.95997048264879e-001

2.82842712474618e+004,-1.27801282740405e+001,-1.98733065715797e-001

2.86791049603164e+004,-1.27801282608002e+001,-2.01507276571808e-001

2.90794503464061e+004,-1.27801282471874e+001,-2.04320213996616e-001

2.94853843458219e+004,-1.27801282331921e+001,-2.07172418592376e-001

2.98969849726987e+004,-1.27801282188033e+001,-2.10064438510113e-001

3.03143313302078e+004,-1.27801282040099e+001,-2.12996829552672e-001

3.07375036257601e+004,-1.27801281888007e+001,-2.15970155280513e-001

3.11665831864199e+004,-1.27801281731639e+001,-2.18984987122860e-001

3.16016524745350e+004,-1.27801281570876e+001,-2.22041904483527e-001

3.20427951035848e+004,-1.27801281405592e+001,-2.25141494858151e-001

3.24900958542493e+004,-1.27801281235662e+001,-2.28284353938741e-001

3.29436406907028e+004,-1.27801281060955e+001,-2.31471085737271e-001

3.34035167771346e+004,-1.27801280881336e+001,-2.34702302695793e-001

3.38698124945009e+004,-1.27801280696668e+001,-2.37978625804326e-001

3.43426174575100e+004,-1.27801280506808e+001,-2.41300684724543e-001

3.48220225318448e+004,-1.27801280311611e+001,-2.44669117905494e-001

3.53081198516260e+004,-1.27801280110927e+001,-2.48084572710567e-001

3.58010028371187e+004,-1.27801279904600e+001,-2.51547705538569e-001

3.63007662126863e+004,-1.27801279692472e+001,-2.55059181953220e-001

3.68075060249948e+004,-1.27801279474383e+001,-2.58619676805814e-001

3.73213196614721e+004,-1.27801279250161e+001,-2.62229874372997e-001

3.78423058690237e+004,-1.27801279019637e+001,-2.65890468480022e-001

3.83705647730104e+004,-1.27801278782631e+001,-2.69602162639359e-001

3.89061978964912e+004,-1.27801278538962e+001,-2.73365670183559e-001

3.94493081797342e+004,-1.27801278288445e+001,-2.77181714402563e-001

3.99999999999998e+004,-1.27801278030884e+001,-2.81051028685672e-001

4.05583791916010e+004,-1.27801277766082e+001,-2.84974356656866e-001

4.11245530662425e+004,-1.27801277493836e+001,-2.88952452322977e-001

4.16986304336447e+004,-1.27801277213938e+001,-2.92986080215098e-001

4.22807216224550e+004,-1.27801276926170e+001,-2.97076015538280e-001

4.28709385014515e+004,-1.27801276630313e+001,-3.01223044318236e-001

4.34693945010421e+004,-1.27801276326138e+001,-3.05427963554361e-001

4.40762046350642e+004,-1.27801276013413e+001,-3.09691581369839e-001

4.46914855228886e+004,-1.27801275691896e+001,-3.14014717171074e-001

4.53153554118317e+004,-1.27801275361341e+001,-3.18398201802785e-001

4.59479341998812e+004,-1.27801275021493e+001,-3.22842877706910e-001

4.65893434587380e+004,-1.27801274672091e+001,-3.27349599086965e-001

4.72397064571810e+004,-1.27801274312868e+001,-3.31919232069058e-001

4.78991481847569e+004,-1.27801273943546e+001,-3.36552654873089e-001

4.85677953758016e+004,-1.27801273563842e+001,-3.41250757976243e-001

4.92457765337964e+004,-1.27801273173464e+001,-3.46014444286613e-001

4.99332219560642e+004,-1.27801272772111e+001,-3.50844629318147e-001

5.06302637588109e+004,-1.27801272359476e+001,-3.55742241363882e-001

5.13370359025159e+004,-1.27801271935242e+001,-3.60708221676303e-001

5.20536742176771e+004,-1.27801271499082e+001,-3.65743524646527e-001

5.27803164309155e+004,-1.27801271050660e+001,-3.70849117990264e-001

5.35171021914442e+004,-1.27801270589633e+001,-3.76025982930392e-001

5.42641730979066e+004,-1.27801270115646e+001,-3.81275114390229e-001

5.50216727255895e+004,-1.27801269628335e+001,-3.86597521178797e-001

5.57897466540159e+004,-1.27801269127325e+001,-3.91994226189610e-001

5.65685424949235e+004,-1.27801268612232e+001,-3.97466266595885e-001

5.73582099206328e+004,-1.27801268082658e+001,-4.03014694049585e-001

5.81589006928121e+004,-1.27801267538199e+001,-4.08640574881397e-001

5.89707686916437e+004,-1.27801266978434e+001,-4.14344990310971e-001

5.97939699453972e+004,-1.27801266402935e+001,-4.20129036648858e-001

6.06286626604156e+004,-1.27801265811256e+001,-4.25993825512861e-001

6.14750072515201e+004,-1.27801265202947e+001,-4.31940484035697e-001

6.23331663728396e+004,-1.27801264577538e+001,-4.37970155086398e-001

6.32033049490698e+004,-1.27801263934549e+001,-4.44083997488109e-001

6.40855902071694e+004,-1.27801263273485e+001,-4.50283186241571e-001

6.49801917084985e+004,-1.27801262593838e+001,-4.56568912749256e-001

6.58872813814055e+004,-1.27801261895088e+001,-4.62942385046255e-001

6.68070335542691e+004,-1.27801261176695e+001,-4.69404828031983e-001

6.77396249890018e+004,-1.27801260438109e+001,-4.75957483704151e-001

6.86852349150199e+004,-1.27801259678762e+001,-4.82601611400442e-001

6.96440450636895e+004,-1.27801258898070e+001,-4.89338488037471e-001

7.06162397032520e+004,-1.27801258095435e+001,-4.96169408358129e-001

7.16020056742374e+004,-1.27801257270238e+001,-5.03095685180040e-001

7.26015324253724e+004,-1.27801256421845e+001,-5.10118649647923e-001

7.36150120499896e+004,-1.27801255549605e+001,-5.17239651488743e-001

7.46426393229441e+004,-1.27801254652848e+001,-5.24460059271991e-001

7.56846117380472e+004,-1.27801253730885e+001,-5.31781260672190e-001

7.67411295460207e+004,-1.27801252783007e+001,-5.39204662737003e-001

7.78123957929823e+004,-1.27801251808486e+001,-5.46731692155055e-001

7.88986163594682e+004,-1.27801250806573e+001,-5.54363795533437e-001

7.99999999999995e+004,-1.27801249776499e+001,-5.62102439671545e-001

8.11167583832018e+004,-1.27801248717472e+001,-5.69949111848492e-001

8.22491061324848e+004,-1.27801247628679e+001,-5.77905320104401e-001

8.33972608672892e+004,-1.27801246509283e+001,-5.85972593531488e-001

8.45614432449099e+004,-1.27801245358424e+001,-5.94152482569542e-001

8.57418770029029e+004,-1.27801244175218e+001,-6.02446559302313e-001

8.69387890020841e+004,-1.27801242958756e+001,-6.10856417760598e-001

8.81524092701283e+004,-1.27801241708104e+001,-6.19383674227464e-001

8.93829710457770e+004,-1.27801240422301e+001,-6.28029967550634e-001

9.06307108236633e+004,-1.27801239100360e+001,-6.36796959456069e-001

9.18958683997622e+004,-1.27801237741264e+001,-6.45686334868550e-001

9.31786869174758e+004,-1.27801236343971e+001,-6.54699802234479e-001

9.44794129143618e+004,-1.27801234907406e+001,-6.63839093851194e-001

9.57982963695136e+004,-1.27801233430467e+001,-6.73105966199217e-001

9.71355907516031e+004,-1.27801231912018e+001,-6.82502200281139e-001

9.84915530675926e+004,-1.27801230350894e+001,-6.92029601962461e-001

9.98664439121282e+004,-1.27801228745896e+001,-7.01690002319292e-001

1.01260527517622e+005,-1.27801227095792e+001,-7.11485257990794e-001

1.02674071805032e+005,-1.27801225399314e+001,-7.21417251536437e-001

1.04107348435354e+005,-1.27801223655158e+001,-7.31487891796529e-001

1.05560632861831e+005,-1.27801221861987e+001,-7.41699114259638e-001

1.07034204382888e+005,-1.27801220018422e+001,-7.52052881436696e-001

1.08528346195813e+005,-1.27801218123048e+001,-7.62551183234937e-001

1.10043345451179e+005,-1.27801216174411e+001,-7.73196037342537e-001

1.11579493308032e+005,-1.27801214171013e+001,-7.83989489615865e-001

1.13137084989847e+005,-1.27801212111318e+001,-7.94933614474093e-001

1.14716419841265e+005,-1.27801209993741e+001,-8.06030515296598e-001

1.16317801385624e+005,-1.27801207816660e+001,-8.17282324826596e-001

1.17941537383287e+005,-1.27801205578401e+001,-8.28691205583544e-001

1.19587939890794e+005,-1.27801203277248e+001,-8.40259350277374e-001

1.21257325320831e+005,-1.27801200911433e+001,-8.51988982229875e-001

1.22950014503040e+005,-1.27801198479140e+001,-8.63882355803742e-001

1.24666332745679e+005,-1.27801195978502e+001,-8.75941756834078e-001

1.26406609898139e+005,-1.27801193407601e+001,-8.88169503069359e-001

1.28171180414339e+005,-1.27801190764462e+001,-9.00567944615284e-001

1.29960383416997e+005,-1.27801188047058e+001,-9.13139464389717e-001

1.31774562762811e+005,-1.27801185253303e+001,-9.25886478577088e-001

1.33614067108538e+005,-1.27801182381052e+001,-9.38811437096803e-001

1.35479249978003e+005,-1.27801179428102e+001,-9.51916824070970e-001

1.37370469830040e+005,-1.27801176392188e+001,-9.65205158303758e-001

1.39288090127379e+005,-1.27801173270979e+001,-9.78678993766225e-001

1.41232479406504e+005,-1.27801170062080e+001,-9.92340920086581e-001

1.43204011348474e+005,-1.27801166763032e+001,-1.00619356304684e+000

1.45203064850745e+005,-1.27801163371300e+001,-1.02023958509150e+000

1.47230024099979e+005,-1.27801159884286e+001,-1.03448168583544e+000

1.49285278645888e+005,-1.27801156299313e+001,-1.04892260258599e+000

1.51369223476094e+005,-1.27801152613632e+001,-1.06356511086726e+000

1.53482259092041e+005,-1.27801148824416e+001,-1.07841202495594e+000

1.55624791585964e+005,-1.27801144928759e+001,-1.09346619842078e+000

1.57797232718936e+005,-1.27801140923674e+001,-1.10873052467206e+000

1.59999999999999e+005,-1.27801136806088e+001,-1.12420793751898e+000

1.62233516766403e+005,-1.27801132572847e+001,-1.13990141173169e+000

1.64498212264969e+005,-1.27801128220704e+001,-1.15581396361548e+000

1.66794521734578e+005,-1.27801123746322e+001,-1.17194865159074e+000

1.69122886489819e+005,-1.27801119146272e+001,-1.18830857677962e+000

1.71483754005805e+005,-1.27801114417027e+001,-1.20489688360473e+000

1.73877578004168e+005,-1.27801109554962e+001,-1.22171676039166e+000

1.76304818540256e+005,-1.27801104556352e+001,-1.23877143998465e+000

1.78765942091554e+005,-1.27801099417366e+001,-1.25606420036620e+000

1.81261421647326e+005,-1.27801094134067e+001,-1.27359836528942e+000

1.83791736799524e+005,-1.27801088702405e+001,-1.29137730491658e+000

1.86357373834951e+005,-1.27801083118221e+001,-1.30940443646706e+000

1.88958825828723e+005,-1.27801077377237e+001,-1.32768322487583e+000

1.91596592739027e+005,-1.27801071475054e+001,-1.34621718345938e+000

1.94271181503206e+005,-1.27801065407154e+001,-1.36500987459136e+000

1.96983106135185e+005,-1.27801059168889e+001,-1.38406491038862e+000

1.99732887824256e+005,-1.27801052755482e+001,-1.40338595340647e+000

2.02521055035243e+005,-1.27801046162024e+001,-1.42297671734181e+000

2.05348143610063e+005,-1.27801039383466e+001,-1.44284096774962e+000

2.08214696870707e+005,-1.27801032414621e+001,-1.46298252276563e+000

2.11121265723661e+005,-1.27801025250155e+001,-1.48340525384356e+000

2.14068408765776e+005,-1.27801017884585e+001,-1.50411308649735e+000

2.17056692391625e+005,-1.27801010312275e+001,-1.52511000105828e+000

2.20086690902357e+005,-1.27801002527432e+001,-1.54640003344094e+000

2.23158986616063e+005,-1.27800994524103e+001,-1.56798727591899e+000

2.26274169979693e+005,-1.27800986296164e+001,-1.58987587791374e+000

2.29432839682530e+005,-1.27800977837324e+001,-1.61207004679245e+000

2.32635602771247e+005,-1.27800969141115e+001,-1.63457404867845e+000

2.35883074766574e+005,-1.27800960200890e+001,-1.65739220927110e+000

2.39175879781588e+005,-1.27800951009815e+001,-1.68052891468025e+000

2.42514650641661e+005,-1.27800941560865e+001,-1.70398861226974e+000

2.45900029006080e+005,-1.27800931846820e+001,-1.72777581151361e+000

2.49332665491357e+005,-1.27800921860259e+001,-1.75189508486385e+000

2.52813219796278e+005,-1.27800911593554e+001,-1.77635106863141e+000

2.56342360828676e+005,-1.27800901038864e+001,-1.80114846387866e+000

2.59920766833993e+005,-1.27800890188129e+001,-1.82629203732505e+000

2.63549125525621e+005,-1.27800879033067e+001,-1.85178662226362e+000

2.67228134217075e+005,-1.27800867565162e+001,-1.87763711949384e+000

2.70958499956006e+005,-1.27800855775663e+001,-1.90384849826367e+000

2.74740939660078e+005,-1.27800843655576e+001,-1.93042579722703e+000

2.78576180254757e+005,-1.27800831195654e+001,-1.95737412541526e+000

2.82464958813007e+005,-1.27800818386397e+001,-1.98469866322010e+000

2.86408022696948e+005,-1.27800805218038e+001,-2.01240466339152e+000

2.90406129701488e+005,-1.27800791680538e+001,-2.04049745205145e+000

2.94460048199957e+005,-1.27800777763581e+001,-2.06898242971713e+000

2.98570557291775e+005,-1.27800763456564e+001,-2.09786507234390e+000

3.02738446952187e+005,-1.27800748748588e+001,-2.12715093237962e+000

3.06964518184081e+005,-1.27800733628454e+001,-2.15684563983385e+000

3.11249583171928e+005,-1.27800718084650e+001,-2.18695490336399e+000

3.15594465437872e+005,-1.27800702105346e+001,-2.21748451137492e+000

3.19999999999997e+005,-1.27800685678385e+001,-2.24844033313462e+000

3.24467033532806e+005,-1.27800668791269e+001,-2.27982831990629e+000

3.28996424529938e+005,-1.27800651431160e+001,-2.31165450609392e+000

3.33589043469155e+005,-1.27800633584858e+001,-2.34392501040804e+000

3.38245772979638e+005,-1.27800615238802e+001,-2.37664603704305e+000

3.42967508011610e+005,-1.27800596379055e+001,-2.40982387687525e+000

3.47755156008335e+005,-1.27800576991294e+001,-2.44346490867558e+000

3.52609637080511e+005,-1.27800557060799e+001,-2.47757560033955e+000

3.57531884183106e+005,-1.27800536572445e+001,-2.51216251013448e+000

3.62522843294651e+005,-1.27800515510690e+001,-2.54723228796553e+000

3.67583473599047e+005,-1.27800493859561e+001,-2.58279167665835e+000

3.72714747669902e+005,-1.27800471602645e+001,-2.61884751325941e+000

3.77917651657445e+005,-1.27800448723078e+001,-2.65540673035590e+000

3.83193185478053e+005,-1.27800425203530e+001,-2.69247635741347e+000

3.88542363006410e+005,-1.27800401026193e+001,-2.73006352213294e+000

3.93966212270369e+005,-1.27800376172770e+001,-2.76817545182613e+000

3.99465775648511e+005,-1.27800350624462e+001,-2.80681947481119e+000

4.05042110070485e+005,-1.27800324361950e+001,-2.84600302182781e+000

4.10696287220124e+005,-1.27800297365387e+001,-2.88573362747169e+000

4.16429393741414e+005,-1.27800269614382e+001,-2.92601893164912e+000

4.22242531447321e+005,-1.27800241087981e+001,-2.96686668105441e+000

4.28136817531551e+005,-1.27800211764659e+001,-3.00828473066499e+000

4.34113384783250e+005,-1.27800181622300e+001,-3.05028104525917e+000

4.40173381804713e+005,-1.27800150638181e+001,-3.09286370095628e+000

4.46317973232124e+005,-1.27800118788963e+001,-3.13604088677609e+000

4.52548339959385e+005,-1.27800086050663e+001,-3.17982090622264e+000

4.58865679365059e+005,-1.27800052398646e+001,-3.22421217888962e+000

4.65271205542494e+005,-1.27800017807605e+001,-3.26922324208789e+000

4.71766149533147e+005,-1.27799982251544e+001,-3.31486275249667e+000

4.78351759563174e+005,-1.27799945703757e+001,-3.36113948783842e+000

4.85029301283321e+005,-1.27799908136812e+001,-3.40806234857641e+000

4.91800058012158e+005,-1.27799869522533e+001,-3.45564035963749e+000

4.98665330982714e+005,-1.27799829831977e+001,-3.50388267215825e+000

5.05626439592555e+005,-1.27799789035418e+001,-3.55279856525652e+000

5.12684721657352e+005,-1.27799747102322e+001,-3.60239744782821e+000

5.19841533667984e+005,-1.27799704001329e+001,-3.65268886036936e+000

5.27098251051240e+005,-1.27799659700235e+001,-3.70368247682292e+000

5.34456268434150e+005,-1.27799614165960e+001,-3.75538810645522e+000

5.41916999912011e+005,-1.27799567364538e+001,-3.80781569575412e+000

