Freq.,VOut,OutRef

1.00000000000000e+004,-1.78455614581050e+001,-2.38564299450529e-001

1.01395947979003e+004,-1.78455619274191e+001,-2.41894528433763e-001

1.02811382665607e+004,-1.78455624099274e+001,-2.45271245488642e-001

1.04246576084112e+004,-1.78455629060007e+001,-2.48695099556665e-001

1.05701804056138e+004,-1.78455634160205e+001,-2.52166748636968e-001

1.07177346253629e+004,-1.78455639403788e+001,-2.55686859914310e-001

1.08673486252606e+004,-1.78455644794788e+001,-2.59256109886774e-001

1.10190511587661e+004,-1.78455650337348e+001,-2.62875184495041e-001

1.11728713807222e+004,-1.78455656035730e+001,-2.66544779254781e-001

1.13288388529580e+004,-1.78455661894315e+001,-2.70265599390829e-001

1.14869835499703e+004,-1.78455667917605e+001,-2.74038359972473e-001

1.16473358646846e+004,-1.78455674110233e+001,-2.77863786048766e-001

1.18099266142953e+004,-1.78455680476958e+001,-2.81742612791606e-001

1.19747870461893e+004,-1.78455687022674e+001,-2.85675585633885e-001

1.21419488439505e+004,-1.78455693752416e+001,-2.89663460413289e-001

1.23114441334492e+004,-1.78455700671354e+001,-2.93707003520031e-001

1.24833054890161e+004,-1.78455707784808e+001,-2.97806992040530e-001

1.26575659397028e+004,-1.78455715098249e+001,-3.01964213907975e-001

1.28342589756290e+004,-1.78455722617295e+001,-3.06179468056510e-001

1.30134185544193e+004,-1.78455730347729e+001,-3.10453564569475e-001

1.31950791077289e+004,-1.78455738295495e+001,-3.14787324838712e-001

1.33792755478611e+004,-1.78455746466700e+001,-3.19181581723662e-001

1.35660432744767e+004,-1.78455754867627e+001,-3.23637179705948e-001

1.37554181813974e+004,-1.78455763504735e+001,-3.28154975057016e-001

1.39474366635040e+004,-1.78455772384662e+001,-3.32735836000423e-001

1.41421356237309e+004,-1.78455781514237e+001,-3.37380642878069e-001

1.43395524801583e+004,-1.78455790900476e+001,-3.42090288321917e-001

1.45397251732031e+004,-1.78455800550595e+001,-3.46865677421716e-001

1.47426921729110e+004,-1.78455810472014e+001,-3.51707727901177e-001

1.49484924863494e+004,-1.78455820672360e+001,-3.56617370294212e-001

1.51571656651040e+004,-1.78455831159473e+001,-3.61595548125186e-001

1.53687518128801e+004,-1.78455841941416e+001,-3.66643218085084e-001

1.55832915932100e+004,-1.78455853026476e+001,-3.71761350222179e-001

1.58008262372675e+004,-1.78455864423178e+001,-3.76950928122136e-001

1.60213975517924e+004,-1.78455876140281e+001,-3.82212949101206e-001

1.62450479271247e+004,-1.78455888186791e+001,-3.87548424396988e-001

1.64718203453514e+004,-1.78455900571973e+001,-3.92958379359999e-001

1.67017583885674e+004,-1.78455913305343e+001,-3.98443853655148e-001

1.69349062472505e+004,-1.78455926396695e+001,-4.04005901456907e-001

1.71713087287550e+004,-1.78455939856088e+001,-4.09645591656289e-001

1.74110112659224e+004,-1.78455953693871e+001,-4.15364008061997e-001

1.76540599258131e+004,-1.78455967920683e+001,-4.21162249610641e-001

1.79005014185594e+004,-1.78455982547458e+001,-4.27041430579774e-001

1.81503831063432e+004,-1.78455997585443e+001,-4.33002680797245e-001

1.84037530124975e+004,-1.78456013046197e+001,-4.39047145862195e-001

1.86606598307361e+004,-1.78456028941604e+001,-4.45175987364080e-001

1.89211529345119e+004,-1.78456045283886e+001,-4.51390383105326e-001

1.91852823865052e+004,-1.78456062085603e+001,-4.57691527327638e-001

1.94530989482457e+004,-1.78456079359674e+001,-4.64080630940599e-001

1.97246540898671e+004,-1.78456097119376e+001,-4.70558921757576e-001

1.99999999999999e+004,-1.78456115378363e+001,-4.77127644727000e-001

2.02791895958005e+004,-1.78456134150671e+001,-4.83788062173962e-001

2.05622765331213e+004,-1.78456153450729e+001,-4.90541454044488e-001

2.08493152168224e+004,-1.78456173293376e+001,-4.97389118146668e-001

2.11403608112276e+004,-1.78456193693865e+001,-5.04332370403912e-001

2.14354692507258e+004,-1.78456214667877e+001,-5.11372545105899e-001

2.17346972505211e+004,-1.78456236231537e+001,-5.18510995165605e-001

2.20381023175322e+004,-1.78456258401422e+001,-5.25749092378256e-001

2.23457427614443e+004,-1.78456281194573e+001,-5.33088227686779e-001

2.26576777059159e+004,-1.78456304628512e+001,-5.40529811445525e-001

2.29739670999406e+004,-1.78456328721253e+001,-5.48075273694339e-001

2.32946717293690e+004,-1.78456353491317e+001,-5.55726064431903e-001

2.36198532285905e+004,-1.78456378957745e+001,-5.63483653893672e-001

2.39495740923785e+004,-1.78456405140114e+001,-5.71349532835533e-001

2.42838976879009e+004,-1.78456432058550e+001,-5.79325212818858e-001

2.46228882668982e+004,-1.78456459733747e+001,-5.87412226500868e-001

2.49666109780322e+004,-1.78456488186976e+001,-5.95612127931067e-001

2.53151318794055e+004,-1.78456517440113e+001,-6.03926492845085e-001

2.56685179512580e+004,-1.78456547515644e+001,-6.12356918972124e-001

2.60268371088386e+004,-1.78456578436687e+001,-6.20905026339743e-001

2.63901582154578e+004,-1.78456610227013e+001,-6.29572457583188e-001

2.67585510957221e+004,-1.78456642911057e+001,-6.38360878264638e-001

2.71320865489533e+004,-1.78456676513946e+001,-6.47271977188575e-001

2.75108363627948e+004,-1.78456711061507e+001,-6.56307466730112e-001

2.78948733270080e+004,-1.78456746580301e+001,-6.65469083159631e-001

2.82842712474618e+004,-1.78456783097628e+001,-6.74758586980794e-001

2.86791049603164e+004,-1.78456820641560e+001,-6.84177763264699e-001

2.90794503464061e+004,-1.78456859240955e+001,-6.93728421993454e-001

2.94853843458219e+004,-1.78456898925486e+001,-7.03412398408911e-001

2.98969849726987e+004,-1.78456939725656e+001,-7.13231553364255e-001

3.03143313302078e+004,-1.78456981672829e+001,-7.23187773679926e-001

3.07375036257601e+004,-1.78457024799249e+001,-7.33282972507547e-001

3.11665831864199e+004,-1.78457069138064e+001,-7.43519089696926e-001

3.16016524745350e+004,-1.78457114723358e+001,-7.53898092167131e-001

3.20427951035848e+004,-1.78457161590171e+001,-7.64421974285083e-001

3.24900958542493e+004,-1.78457209774528e+001,-7.75092758247303e-001

3.29436406907028e+004,-1.78457259313467e+001,-7.85912494469918e-001

3.34035167771346e+004,-1.78457310245067e+001,-7.96883261978956e-001

3.38698124945009e+004,-1.78457362608474e+001,-8.08007168813795e-001

3.43426174575100e+004,-1.78457416443942e+001,-8.19286352426181e-001

3.48220225318448e+004,-1.78457471792850e+001,-8.30722980095218e-001

3.53081198516260e+004,-1.78457528697740e+001,-8.42319249340522e-001

3.58010028371187e+004,-1.78457587202355e+001,-8.54077388343712e-001

3.63007662126863e+004,-1.78457647351662e+001,-8.65999656377953e-001

3.68075060249948e+004,-1.78457709191895e+001,-8.78088344239113e-001

3.73213196614721e+004,-1.78457772770586e+001,-8.90345774686302e-001

3.78423058690237e+004,-1.78457838136605e+001,-9.02774302886936e-001

3.83705647730104e+004,-1.78457905340193e+001,-9.15376316869533e-001

3.89061978964912e+004,-1.78457974433004e+001,-9.28154237980231e-001

3.94493081797342e+004,-1.78458045468144e+001,-9.41110521348505e-001

3.99999999999998e+004,-1.78458118500213e+001,-9.54247656356287e-001

4.05583791916010e+004,-1.78458193585344e+001,-9.67568167117320e-001

4.11245530662425e+004,-1.78458270781246e+001,-9.81074612960405e-001

4.16986304336447e+004,-1.78458350147255e+001,-9.94769588918587e-001

4.22807216224550e+004,-1.78458431744368e+001,-1.00865572622959e+000

4.28709385014515e+004,-1.78458515635303e+001,-1.02273569283765e+000

4.34693945010421e+004,-1.78458601884535e+001,-1.03701219390635e+000

4.40762046350642e+004,-1.78458690558355e+001,-1.05148797233702e+000

4.46914855228886e+004,-1.78458781724915e+001,-1.06616580929379e+000

4.53153554118317e+004,-1.78458875454283e+001,-1.08104852473695e+000

4.59479341998812e+004,-1.78458971818496e+001,-1.09613897796456e+000

4.65893434587380e+004,-1.78459070891616e+001,-1.11144006815763e+000

4.72397064571810e+004,-1.78459172749785e+001,-1.12695473493874e+000

4.78991481847569e+004,-1.78459277471285e+001,-1.14268595893326e+000

4.85677953758016e+004,-1.78459385136602e+001,-1.15863676234011e+000

4.92457765337964e+004,-1.78459495828477e+001,-1.17481020951255e+000

4.99332219560642e+004,-1.78459609631981e+001,-1.19120940754332e+000

5.06302637588109e+004,-1.78459726634574e+001,-1.20783750686106e+000

5.13370359025159e+004,-1.78459846926175e+001,-1.22469770183227e+000

5.20536742176771e+004,-1.78459970599227e+001,-1.24179323137439e+000

5.27803164309155e+004,-1.78460097748774e+001,-1.25912737957501e+000

5.35171021914442e+004,-1.78460228472527e+001,-1.27670347632072e+000

5.42641730979066e+004,-1.78460362870947e+001,-1.29452489793464e+000

5.50216727255895e+004,-1.78460501047314e+001,-1.31259506782296e+000

5.57897466540159e+004,-1.78460643107814e+001,-1.33091745712925e+000

5.65685424949235e+004,-1.78460789161612e+001,-1.34949558539992e+000

5.73582099206328e+004,-1.78460939320943e+001,-1.36833302125682e+000

5.81589006928121e+004,-1.78461093701195e+001,-1.38743338308011e+000

5.89707686916437e+004,-1.78461252421000e+001,-1.40680033969969e+000

5.97939699453972e+004,-1.78461415602320e+001,-1.42643761109926e+000

6.06286626604156e+004,-1.78461583370546e+001,-1.44634896912398e+000

6.14750072515201e+004,-1.78461755854589e+001,-1.46653823820590e+000

6.23331663728396e+004,-1.78461933186985e+001,-1.48700929609132e+000

6.32033049490698e+004,-1.78462115503993e+001,-1.50776607458443e+000

6.40855902071694e+004,-1.78462302945697e+001,-1.52881256029863e+000

6.49801917084985e+004,-1.78462495656121e+001,-1.55015279541654e+000

6.58872813814055e+004,-1.78462693783332e+001,-1.57179087846441e+000

6.68070335542691e+004,-1.78462897479557e+001,-1.59373096509402e+000

6.77396249890018e+004,-1.78463106901300e+001,-1.61597726887684e+000

6.86852349150199e+004,-1.78463322209460e+001,-1.63853406210767e+000

6.96440450636895e+004,-1.78463543569458e+001,-1.66140567662202e+000

7.06162397032520e+004,-1.78463771151359e+001,-1.68459650462190e+000

7.16020056742374e+004,-1.78464005130007e+001,-1.70811099951400e+000

7.26015324253724e+004,-1.78464245685157e+001,-1.73195367676029e+000

7.36150120499896e+004,-1.78464493001611e+001,-1.75612911473896e+000

7.46426393229441e+004,-1.78464747269363e+001,-1.78064195561807e+000

7.56846117380472e+004,-1.78465008683743e+001,-1.80549690624050e+000

7.67411295460207e+004,-1.78465277445566e+001,-1.83069873902156e+000

7.78123957929823e+004,-1.78465553761290e+001,-1.85625229285825e+000

7.88986163594682e+004,-1.78465837843166e+001,-1.88216247405295e+000

7.99999999999995e+004,-1.78466129909409e+001,-1.90843425724624e+000

8.11167583832018e+004,-1.78466430184362e+001,-1.93507268636539e+000

8.22491061324848e+004,-1.78466738898667e+001,-1.96208287558562e+000

8.33972608672892e+004,-1.78467056289441e+001,-1.98947001030283e+000

8.45614432449099e+004,-1.78467382600462e+001,-2.01723934812048e+000

8.57418770029029e+004,-1.78467718082351e+001,-2.04539621985088e+000

8.69387890020841e+004,-1.78468062992766e+001,-2.07394603052902e+000

8.81524092701283e+004,-1.78468417596600e+001,-2.10289426043988e+000

8.93829710457770e+004,-1.78468782166180e+001,-2.13224646616118e+000

9.06307108236633e+004,-1.78469156981483e+001,-2.16200828161892e+000

9.18958683997622e+004,-1.78469542330341e+001,-2.19218541915820e+000

9.31786869174758e+004,-1.78469938508670e+001,-2.22278367062783e+000

9.44794129143618e+004,-1.78470345820689e+001,-2.25380890848113e+000

9.57982963695136e+004,-1.78470764579160e+001,-2.28526708688895e+000

9.71355907516031e+004,-1.78471195105620e+001,-2.31716424287114e+000

9.84915530675926e+004,-1.78471637730632e+001,-2.34950649744059e+000

9.98664439121282e+004,-1.78472092794038e+001,-2.38230005676444e+000

1.01260527517622e+005,-1.78472560645215e+001,-2.41555121333989e+000

1.02674071805032e+005,-1.78473041643345e+001,-2.44926634718687e+000

1.04107348435354e+005,-1.78473536157691e+001,-2.48345192705642e+000

1.05560632861831e+005,-1.78474044567875e+001,-2.51811451165422e+000

1.07034204382888e+005,-1.78474567264172e+001,-2.55326075088379e+000

1.08528346195813e+005,-1.78475104647807e+001,-2.58889738710172e+000

1.10043345451179e+005,-1.78475657131260e+001,-2.62503125639494e+000

1.11579493308032e+005,-1.78476225138584e+001,-2.66166928987035e+000

1.13137084989847e+005,-1.78476809105727e+001,-2.69881851496556e+000

1.14716419841265e+005,-1.78477409480865e+001,-2.73648605677532e+000

1.16317801385624e+005,-1.78478026724746e+001,-2.77467913939505e+000

1.17941537383287e+005,-1.78478661311039e+001,-2.81340508728415e+000

1.19587939890794e+005,-1.78479313726697e+001,-2.85267132664721e+000

1.21257325320831e+005,-1.78479984472329e+001,-2.89248538683166e+000

1.22950014503040e+005,-1.78480674062580e+001,-2.93285490174647e+000

1.24666332745679e+005,-1.78481383026527e+001,-2.97378761129819e+000

1.26406609898139e+005,-1.78482111908079e+001,-3.01529136284725e+000

1.28171180414339e+005,-1.78482861266394e+001,-3.05737411268174e+000

1.29960383416997e+005,-1.78483631676303e+001,-3.10004392751358e+000

1.31774562762811e+005,-1.78484423728752e+001,-3.14330898599068e+000

1.33614067108538e+005,-1.78485238031247e+001,-3.18717758023306e+000

1.35479249978003e+005,-1.78486075208320e+001,-3.23165811738563e+000

1.37370469830040e+005,-1.78486935902005e+001,-3.27675912119464e+000

1.39288090127379e+005,-1.78487820772325e+001,-3.32248923360179e+000

1.41232479406504e+005,-1.78488730497795e+001,-3.36885721636157e+000

1.43204011348474e+005,-1.78489665775938e+001,-3.41587195267879e+000

1.45203064850745e+005,-1.78490627323816e+001,-3.46354244886758e+000

1.47230024099979e+005,-1.78491615878576e+001,-3.51187783603103e+000

1.49285278645888e+005,-1.78492632198010e+001,-3.56088737176550e+000

1.51369223476094e+005,-1.78493677061127e+001,-3.61058044188370e+000

1.53482259092041e+005,-1.78494751268752e+001,-3.66096656216233e+000

1.55624791585964e+005,-1.78495855644128e+001,-3.71205538011125e+000

1.57797232718936e+005,-1.78496991033545e+001,-3.76385667676608e+000

1.59999999999999e+005,-1.78498158306979e+001,-3.81638036850309e+000

1.62233516766403e+005,-1.78499358358755e+001,-3.86963650887844e+000

1.64498212264969e+005,-1.78500592108221e+001,-3.92363529048982e+000

1.66794521734578e+005,-1.78501860500452e+001,-3.97838704686293e+000

1.69122886489819e+005,-1.78503164506958e+001,-4.03390225436105e+000

1.71483754005805e+005,-1.78504505126426e+001,-4.09019153411895e+000

1.73877578004168e+005,-1.78505883385472e+001,-4.14726565400240e+000

1.76304818540256e+005,-1.78507300339421e+001,-4.20513553059110e+000

1.78765942091554e+005,-1.78508757073105e+001,-4.26381223118663e+000

1.81261421647326e+005,-1.78510254701677e+001,-4.32330697584732e+000

1.83791736799524e+005,-1.78511794371466e+001,-4.38363113944537e+000

1.86357373834951e+005,-1.78513377260832e+001,-4.44479625375293e+000

1.88958825828723e+005,-1.78515004581060e+001,-4.50681400955164e+000

1.91596592739027e+005,-1.78516677577275e+001,-4.56969625877044e+000

1.94271181503206e+005,-1.78518397529377e+001,-4.63345501664716e+000

1.96983106135185e+005,-1.78520165753013e+001,-4.69810246391839e+000

1.99732887824256e+005,-1.78521983600559e+001,-4.76365094903644e+000

2.02521055035243e+005,-1.78523852462147e+001,-4.83011299041163e+000

2.05348143610063e+005,-1.78525773766705e+001,-4.89750127868331e+000

2.08214696870707e+005,-1.78527748983035e+001,-4.96582867901756e+000

2.11121265723661e+005,-1.78529779620914e+001,-5.03510823343245e+000

2.14068408765776e+005,-1.78531867232233e+001,-5.10535316315123e+000

2.17056692391625e+005,-1.78534013412157e+001,-5.17657687098425e+000

2.20086690902357e+005,-1.78536219800322e+001,-5.24879294373782e+000

2.23158986616063e+005,-1.78538488082067e+001,-5.32201515465171e+000

2.26274169979693e+005,-1.78540819989695e+001,-5.39625746586636e+000

2.29432839682530e+005,-1.78543217303770e+001,-5.47153403091768e+000

2.32635602771247e+005,-1.78545681854446e+001,-5.54785919726035e+000

2.35883074766574e+005,-1.78548215522838e+001,-5.62524750882187e+000

2.39175879781588e+005,-1.78550820242426e+001,-5.70371370858415e+000

2.42514650641661e+005,-1.78553498000498e+001,-5.78327274119532e+000

2.45900029006080e+005,-1.78556250839630e+001,-5.86393975561031e+000

2.49332665491357e+005,-1.78559080859207e+001,-5.94573010776207e+000

2.52813219796278e+005,-1.78561990216990e+001,-6.02865936326149e+000

2.56342360828676e+005,-1.78564981130714e+001,-6.11274330012757e+000

2.59920766833993e+005,-1.78568055879738e+001,-6.19799791154704e+000

2.63549125525621e+005,-1.78571216806741e+001,-6.28443940866500e+000

2.67228134217075e+005,-1.78574466319448e+001,-6.37208422340456e+000

2.70958499956006e+005,-1.78577806892424e+001,-6.46094901131663e+000

2.74740939660078e+005,-1.78581241068898e+001,-6.55105065446028e+000

2.78576180254757e+005,-1.78584771462645e+001,-6.64240626431362e+000

2.82464958813007e+005,-1.78588400759913e+001,-6.73503318471298e+000

2.86408022696948e+005,-1.78592131721407e+001,-6.82894899482487e+000

2.90406129701488e+005,-1.78595967184318e+001,-6.92417151214614e+000

2.94460048199957e+005,-1.78599910064412e+001,-7.02071879553474e+000

2.98570557291775e+005,-1.78603963358171e+001,-7.11860914827036e+000

3.02738446952187e+005,-1.78608130144993e+001,-7.21786112114575e+000

3.06964518184081e+005,-1.78612413589444e+001,-7.31849351558669e+000

3.11249583171928e+005,-1.78616816943576e+001,-7.42052538680260e+000

3.15594465437872e+005,-1.78621343549303e+001,-7.52397604696631e+000

3.19999999999997e+005,-1.78625996840838e+001,-7.62886506842291e+000

3.24467033532806e+005,-1.78630780347192e+001,-7.73521228692857e+000

3.28996424529938e+005,-1.78635697694746e+001,-7.84303780491720e+000

3.33589043469155e+005,-1.78640752609881e+001,-7.95236199479697e+000

3.38245772979638e+005,-1.78645948921676e+001,-8.06320550227448e+000

3.42967508011610e+005,-1.78651290564686e+001,-8.17558924970705e+000

3.47755156008335e+005,-1.78656781581777e+001,-8.28953443948283e+000

3.52609637080511e+005,-1.78662426127049e+001,-8.40506255742889e+000

3.57531884183106e+005,-1.78668228468820e+001,-8.52219537624490e+000

3.62522843294651e+005,-1.78674192992695e+001,-8.64095495896471e+000

3.67583473599047e+005,-1.78680324204709e+001,-8.76136366244310e+000

3.72714747669902e+005,-1.78686626734556e+001,-8.88344414086815e+000

3.77917651657445e+005,-1.78693105338890e+001,-9.00721934929851e+000

3.83193185478053e+005,-1.78699764904715e+001,-9.13271254722543e+000

3.88542363006410e+005,-1.78706610452865e+001,-9.25994730215729e+000

3.93966212270369e+005,-1.78713647141558e+001,-9.38894749322854e+000

3.99465775648511e+005,-1.78720880270054e+001,-9.51973731482913e+000

4.05042110070485e+005,-1.78728315282392e+001,-9.65234128025712e+000

4.10696287220124e+005,-1.78735957771225e+001,-9.78678422538996e+000

4.16429393741414e+005,-1.78743813481753e+001,-9.92309131237650e+000

4.22242531447321e+005,-1.78751888315743e+001,-1.00612880333479e+001

4.28136817531551e+005,-1.78760188335655e+001,-1.02014002141445e+001

4.34113384783250e+005,-1.78768719768872e+001,-1.03434540180606e+001

4.40173381804713e+005,-1.78777489012016e+001,-1.04874759496048e+001

4.46317973232124e+005,-1.78786502635391e+001,-1.06334928582725e+001

4.52548339959385e+005,-1.78795767387515e+001,-1.07815319423337e+001

4.58865679365059e+005,-1.78805290199767e+001,-1.09316207526303e+001

4.65271205542494e+005,-1.78815078191148e+001,-1.10837871963841e+001

4.71766149533147e+005,-1.78825138673143e+001,-1.12380595410137e+001

4.78351759563174e+005,-1.78835479154714e+001,-1.13944664179573e+001

4.85029301283321e+005,-1.78846107347394e+001,-1.15530368265020e+001

4.91800058012158e+005,-1.78857031170511e+001,-1.17138001376147e+001

4.98665330982714e+005,-1.78868258756523e+001,-1.18767860977770e+001

5.05626439592555e+005,-1.78879798456484e+001,-1.20420248328170e+001

5.12684721657352e+005,-1.78891658845627e+001,-1.22095468517413e+001

5.19841533667984e+005,-1.78903848729081e+001,-1.23793830505604e+001

5.27098251051240e+005,-1.78916377147708e+001,-1.25515647161086e+001

5.34456268434150e+005,-1.78929253384076e+001,-1.27261235298543e+001

5.41916999912011e+005,-1.78942486968562e+001,-1.29030915716986e+001

