Freq.,VOut,OutRef

1.00000000000000e+004,-1.76668094128264e+001,-1.72669487161881e-001

1.01395947979003e+004,-1.76668096519875e+001,-1.75079861715193e-001

1.02811382665607e+004,-1.76668098978721e+001,-1.77523883773286e-001

1.04246576084112e+004,-1.76668101506694e+001,-1.80002023034986e-001

1.05701804056138e+004,-1.76668104105739e+001,-1.82514755754479e-001

1.07177346253629e+004,-1.76668106777852e+001,-1.85062564835699e-001

1.08673486252606e+004,-1.76668109525089e+001,-1.87645939922550e-001

1.10190511587661e+004,-1.76668112349562e+001,-1.90265377494495e-001

1.11728713807222e+004,-1.76668115253439e+001,-1.92921380962768e-001

1.13288388529580e+004,-1.76668118238956e+001,-1.95614460762843e-001

1.14869835499703e+004,-1.76668121308407e+001,-1.98345134457853e-001

1.16473358646846e+004,-1.76668124464152e+001,-2.01113926833904e-001

1.18099266142953e+004,-1.76668127708616e+001,-2.03921370004605e-001

1.19747870461893e+004,-1.76668131044295e+001,-2.06768003509460e-001

1.21419488439505e+004,-1.76668134473752e+001,-2.09654374421110e-001

1.23114441334492e+004,-1.76668137999624e+001,-2.12581037447874e-001

1.24833054890161e+004,-1.76668141624622e+001,-2.15548555041728e-001

1.26575659397028e+004,-1.76668145351531e+001,-2.18557497506096e-001

1.28342589756290e+004,-1.76668149183217e+001,-2.21608443104681e-001

1.30134185544193e+004,-1.76668153122628e+001,-2.24701978172407e-001

1.31950791077289e+004,-1.76668157172789e+001,-2.27838697232255e-001

1.33792755478611e+004,-1.76668161336815e+001,-2.31019203102513e-001

1.35660432744767e+004,-1.76668165617908e+001,-2.34244107017828e-001

1.37554181813974e+004,-1.76668170019357e+001,-2.37514028745462e-001

1.39474366635040e+004,-1.76668174544548e+001,-2.40829596703325e-001

1.41421356237309e+004,-1.76668179196958e+001,-2.44191448080974e-001

1.43395524801583e+004,-1.76668183980166e+001,-2.47600228963338e-001

1.45397251732031e+004,-1.76668188897847e+001,-2.51056594453904e-001

1.47426921729110e+004,-1.76668193953781e+001,-2.54561208800872e-001

1.49484924863494e+004,-1.76668199151857e+001,-2.58114745523991e-001

1.51571656651040e+004,-1.76668204496070e+001,-2.61717887544669e-001

1.53687518128801e+004,-1.76668209990529e+001,-2.65371327317876e-001

1.55832915932100e+004,-1.76668215639456e+001,-2.69075766964148e-001

1.58008262372675e+004,-1.76668221447195e+001,-2.72831918404589e-001

1.60213975517924e+004,-1.76668227418212e+001,-2.76640503497580e-001

1.62450479271247e+004,-1.76668233557096e+001,-2.80502254178604e-001

1.64718203453514e+004,-1.76668239868567e+001,-2.84417912600223e-001

1.67017583885674e+004,-1.76668246357475e+001,-2.88388231274043e-001

1.69349062472505e+004,-1.76668253028811e+001,-2.92413973214892e-001

1.71713087287550e+004,-1.76668259887701e+001,-2.96495912091289e-001

1.74110112659224e+004,-1.76668266939421e+001,-3.00634832366934e-001

1.76540599258131e+004,-1.76668274189390e+001,-3.04831529459888e-001

1.79005014185594e+004,-1.76668281643181e+001,-3.09086809888374e-001

1.81503831063432e+004,-1.76668289306526e+001,-3.13401491428939e-001

1.84037530124975e+004,-1.76668297185314e+001,-3.17776403275678e-001

1.86606598307361e+004,-1.76668305285605e+001,-3.22212386192292e-001

1.89211529345119e+004,-1.76668313613624e+001,-3.26710292683408e-001

1.91852823865052e+004,-1.76668322175772e+001,-3.31270987151146e-001

1.94530989482457e+004,-1.76668330978634e+001,-3.35895346061980e-001

1.97246540898671e+004,-1.76668340028975e+001,-3.40584258119538e-001

1.99999999999999e+004,-1.76668349333754e+001,-3.45338624430977e-001

2.02791895958005e+004,-1.76668358900124e+001,-3.50159358680169e-001

2.05622765331213e+004,-1.76668368735438e+001,-3.55047387307277e-001

2.08493152168224e+004,-1.76668378847257e+001,-3.60003649682842e-001

2.11403608112276e+004,-1.76668389243356e+001,-3.65029098289334e-001

2.14354692507258e+004,-1.76668399931725e+001,-3.70124698903897e-001

2.17346972505211e+004,-1.76668410920583e+001,-3.75291430785246e-001

2.20381023175322e+004,-1.76668422218376e+001,-3.80530286860494e-001

2.23457427614443e+004,-1.76668433833788e+001,-3.85842273917176e-001

2.26576777059159e+004,-1.76668445775753e+001,-3.91228412793321e-001

2.29739670999406e+004,-1.76668458053446e+001,-3.96689738579005e-001

2.32946717293690e+004,-1.76668470676308e+001,-4.02227300810453e-001

2.36198532285905e+004,-1.76668483654042e+001,-4.07842163674416e-001

2.39495740923785e+004,-1.76668496996626e+001,-4.13535406210380e-001

2.42838976879009e+004,-1.76668510714316e+001,-4.19308122519932e-001

2.46228882668982e+004,-1.76668524817657e+001,-4.25161421976919e-001

2.49666109780322e+004,-1.76668539317491e+001,-4.31096429438224e-001

2.53151318794055e+004,-1.76668554224966e+001,-4.37114285462239e-001

2.56685179512580e+004,-1.76668569551539e+001,-4.43216146527622e-001

2.60268371088386e+004,-1.76668585308995e+001,-4.49403185254050e-001

2.63901582154578e+004,-1.76668601509447e+001,-4.55676590627797e-001

2.67585510957221e+004,-1.76668618165347e+001,-4.62037568233349e-001

2.71320865489533e+004,-1.76668635289501e+001,-4.68487340479769e-001

2.75108363627948e+004,-1.76668652895072e+001,-4.75027146838675e-001

2.78948733270080e+004,-1.76668670995594e+001,-4.81658244082725e-001

2.82842712474618e+004,-1.76668689604982e+001,-4.88381906524653e-001

2.86791049603164e+004,-1.76668708737541e+001,-4.95199426264310e-001

2.90794503464061e+004,-1.76668728407980e+001,-5.02112113435657e-001

2.94853843458219e+004,-1.76668748631418e+001,-5.09121296458857e-001

2.98969849726987e+004,-1.76668769423403e+001,-5.16228322295433e-001

3.03143313302078e+004,-1.76668790799918e+001,-5.23434556705090e-001

3.07375036257601e+004,-1.76668812777396e+001,-5.30741384512345e-001

3.11665831864199e+004,-1.76668835372731e+001,-5.38150209868407e-001

3.16016524745350e+004,-1.76668858603293e+001,-5.45662456522323e-001

3.20427951035848e+004,-1.76668882486940e+001,-5.53279568094528e-001

3.24900958542493e+004,-1.76668907042031e+001,-5.61003008354012e-001

3.29436406907028e+004,-1.76668932287442e+001,-5.68834261498985e-001

3.34035167771346e+004,-1.76668958242581e+001,-5.76774832443130e-001

3.38698124945009e+004,-1.76668984927399e+001,-5.84826247103042e-001

3.43426174575100e+004,-1.76669012362409e+001,-5.92990052692550e-001

3.48220225318448e+004,-1.76669040568700e+001,-6.01267818018039e-001

3.53081198516260e+004,-1.76669069567957e+001,-6.09661133782171e-001

3.58010028371187e+004,-1.76669099382469e+001,-6.18171612887330e-001

3.63007662126863e+004,-1.76669130035155e+001,-6.26800890746966e-001

3.68075060249948e+004,-1.76669161549580e+001,-6.35550625596949e-001

3.73213196614721e+004,-1.76669193949968e+001,-6.44422498816908e-001

3.78423058690237e+004,-1.76669227261224e+001,-6.53418215252177e-001

3.83705647730104e+004,-1.76669261508957e+001,-6.62539503539322e-001

3.89061978964912e+004,-1.76669296719490e+001,-6.71788116440999e-001

3.94493081797342e+004,-1.76669332919891e+001,-6.81165831179486e-001

3.99999999999998e+004,-1.76669370137987e+001,-6.90674449780753e-001

4.05583791916010e+004,-1.76669408402387e+001,-7.00315799416812e-001

4.11245530662425e+004,-1.76669447742504e+001,-7.10091732760858e-001

4.16986304336447e+004,-1.76669488188578e+001,-7.20004128339691e-001

4.22807216224550e+004,-1.76669529771699e+001,-7.30054890894394e-001

4.28709385014515e+004,-1.76669572523832e+001,-7.40245951748304e-001

4.34693945010421e+004,-1.76669616477840e+001,-7.50579269174430e-001

4.40762046350642e+004,-1.76669661667508e+001,-7.61056828774779e-001

4.46914855228886e+004,-1.76669708127573e+001,-7.71680643858486e-001

4.53153554118317e+004,-1.76669755893746e+001,-7.82452755830393e-001

4.59479341998812e+004,-1.76669805002745e+001,-7.93375234580231e-001

4.65893434587380e+004,-1.76669855492317e+001,-8.04450178883396e-001

4.72397064571810e+004,-1.76669907401273e+001,-8.15679716799952e-001

4.78991481847569e+004,-1.76669960769510e+001,-8.27066006086317e-001

4.85677953758016e+004,-1.76670015638053e+001,-8.38611234606729e-001

4.92457765337964e+004,-1.76670072049074e+001,-8.50317620754263e-001

4.99332219560642e+004,-1.76670130045936e+001,-8.62187413875574e-001

5.06302637588109e+004,-1.76670189673215e+001,-8.74222894704433e-001

5.13370359025159e+004,-1.76670250976745e+001,-8.86426375796962e-001

5.20536742176771e+004,-1.76670314003644e+001,-8.98800201975903e-001

5.27803164309155e+004,-1.76670378802359e+001,-9.11346750781177e-001

5.35171021914442e+004,-1.76670445422694e+001,-9.24068432925461e-001

5.42641730979066e+004,-1.76670513915856e+001,-9.36967692756170e-001

5.50216727255895e+004,-1.76670584334490e+001,-9.50047008724630e-001

5.57897466540159e+004,-1.76670656732720e+001,-9.63308893861754e-001

5.65685424949235e+004,-1.76670731166192e+001,-9.76755896259565e-001

5.73582099206328e+004,-1.76670807692118e+001,-9.90390599558495e-001

5.81589006928121e+004,-1.76670886369314e+001,-1.00421562344550e+000

5.89707686916437e+004,-1.76670967258251e+001,-1.01823362415518e+000

5.97939699453972e+004,-1.76671050421100e+001,-1.03244729497673e+000

6.06286626604156e+004,-1.76671135921779e+001,-1.04685936677477e+000

6.14750072515201e+004,-1.76671223826002e+001,-1.06147260850799e+000

6.23331663728396e+004,-1.76671314201329e+001,-1.07628982776449e+000

6.32033049490698e+004,-1.76671407117221e+001,-1.09131387129571e+000

6.40855902071694e+004,-1.76671502645090e+001,-1.10654762556465e+000

6.49801917084985e+004,-1.76671600858354e+001,-1.12199401729844e+000

6.58872813814055e+004,-1.76671701832495e+001,-1.13765601404887e+000

6.68070335542691e+004,-1.76671805645116e+001,-1.15353662476112e+000

6.77396249890018e+004,-1.76671912376000e+001,-1.16963890035029e+000

6.86852349150199e+004,-1.76672022107176e+001,-1.18596593428489e+000

6.96440450636895e+004,-1.76672134922974e+001,-1.20252086318160e+000

7.06162397032520e+004,-1.76672250910094e+001,-1.21930686740364e+000

7.16020056742374e+004,-1.76672370157674e+001,-1.23632717167147e+000

7.26015324253724e+004,-1.76672492757356e+001,-1.25358504567990e+000

7.36150120499896e+004,-1.76672618803359e+001,-1.27108380472303e+000

7.46426393229441e+004,-1.76672748392546e+001,-1.28882681033087e+000

7.56846117380472e+004,-1.76672881624505e+001,-1.30681747091178e+000

7.67411295460207e+004,-1.76673018601620e+001,-1.32505924240508e+000

7.78123957929823e+004,-1.76673159429154e+001,-1.34355562894168e+000

7.88986163594682e+004,-1.76673304215326e+001,-1.36231018351650e+000

7.99999999999995e+004,-1.76673453071397e+001,-1.38132650866696e+000

8.11167583832018e+004,-1.76673606111753e+001,-1.40060825716176e+000

8.22491061324848e+004,-1.76673763453994e+001,-1.42015913270183e+000

8.33972608672892e+004,-1.76673925219026e+001,-1.43998289062583e+000

8.45614432449099e+004,-1.76674091531150e+001,-1.46008333863108e+000

8.57418770029029e+004,-1.76674262518159e+001,-1.48046433750016e+000

8.69387890020841e+004,-1.76674438311437e+001,-1.50112980183892e+000

8.81524092701283e+004,-1.76674619046061e+001,-1.52208370082562e+000

8.93829710457770e+004,-1.76674804860900e+001,-1.54333005896950e+000

9.06307108236633e+004,-1.76674995898726e+001,-1.56487295687921e+000

9.18958683997622e+004,-1.76675192306320e+001,-1.58671653204380e+000

9.31786869174758e+004,-1.76675394234590e+001,-1.60886497962112e+000

9.44794129143618e+004,-1.76675601838678e+001,-1.63132255324195e+000

9.57982963695136e+004,-1.76675815278090e+001,-1.65409356581929e+000

9.71355907516031e+004,-1.76676034716807e+001,-1.67718239037522e+000

9.84915530675926e+004,-1.76676260323422e+001,-1.70059346087213e+000

9.98664439121282e+004,-1.76676492271256e+001,-1.72433127306272e+000

1.01260527517622e+005,-1.76676730738506e+001,-1.74840038534516e+000

1.02674071805032e+005,-1.76676975908370e+001,-1.77280541963409e+000

1.04107348435354e+005,-1.76677227969192e+001,-1.79755106224282e+000

1.05560632861831e+005,-1.76677487114604e+001,-1.82264206477612e+000

1.07034204382888e+005,-1.76677753543682e+001,-1.84808324503639e+000

1.08528346195813e+005,-1.76678027461086e+001,-1.87387948794299e+000

1.10043345451179e+005,-1.76678309077228e+001,-1.90003574646209e+000

1.11579493308032e+005,-1.76678598608428e+001,-1.92655704255196e+000

1.13137084989847e+005,-1.76678896277080e+001,-1.95344846811834e+000

1.14716419841265e+005,-1.76679202311822e+001,-1.98071518598529e+000

1.16317801385624e+005,-1.76679516947715e+001,-2.00836243087734e+000

1.17941537383287e+005,-1.76679840426419e+001,-2.03639551041679e+000

1.19587939890794e+005,-1.76680172996378e+001,-2.06481980613351e+000

1.21257325320831e+005,-1.76680514913014e+001,-2.09364077448835e+000

1.22950014503040e+005,-1.76680866438918e+001,-2.12286394791266e+000

1.24666332745679e+005,-1.76681227844055e+001,-2.15249493585822e+000

1.26406609898139e+005,-1.76681599405968e+001,-2.18253942586464e+000

1.28171180414339e+005,-1.76681981409991e+001,-2.21300318464037e+000

1.29960383416997e+005,-1.76682374149469e+001,-2.24389205915757e+000

1.31774562762811e+005,-1.76682777925981e+001,-2.27521197776338e+000

1.33614067108538e+005,-1.76683193049571e+001,-2.30696895130496e+000

1.35479249978003e+005,-1.76683619838984e+001,-2.33916907426974e+000

1.37370469830040e+005,-1.76684058621913e+001,-2.37181852594272e+000

1.39288090127379e+005,-1.76684509735247e+001,-2.40492357157779e+000

1.41232479406504e+005,-1.76684973525330e+001,-2.43849056358504e+000

1.43204011348474e+005,-1.76685450348224e+001,-2.47252594273580e+000

1.45203064850745e+005,-1.76685940569985e+001,-2.50703623938140e+000

1.47230024099979e+005,-1.76686444566937e+001,-2.54202807469065e+000

1.49285278645888e+005,-1.76686962725965e+001,-2.57750816190307e+000

1.51369223476094e+005,-1.76687495444810e+001,-2.61348330759768e+000

1.53482259092041e+005,-1.76688043132369e+001,-2.64996041298190e+000

1.55624791585964e+005,-1.76688606209010e+001,-2.68694647519495e+000

1.57797232718936e+005,-1.76689185106896e+001,-2.72444858863006e+000

1.59999999999999e+005,-1.76689780270308e+001,-2.76247394627464e+000

1.62233516766403e+005,-1.76690392155993e+001,-2.80102984106721e+000

1.64498212264969e+005,-1.76691021233503e+001,-2.84012366727360e+000

1.66794521734578e+005,-1.76691667985562e+001,-2.87976292188114e+000

1.69122886489819e+005,-1.76692332908429e+001,-2.91995520601189e+000

1.71483754005805e+005,-1.76693016512279e+001,-2.96070822635333e+000

1.73877578004168e+005,-1.76693719321591e+001,-3.00202979660985e+000

1.76304818540256e+005,-1.76694441875548e+001,-3.04392783897225e+000

1.78765942091554e+005,-1.76695184728450e+001,-3.08641038560765e+000

1.81261421647326e+005,-1.76695948450134e+001,-3.12948558016853e+000

1.83791736799524e+005,-1.76696733626408e+001,-3.17316167932144e+000

1.86357373834951e+005,-1.76697540859502e+001,-3.21744705429728e+000

1.88958825828723e+005,-1.76698370768519e+001,-3.26235019246054e+000

1.91596592739027e+005,-1.76699223989913e+001,-3.30787969889991e+000

1.94271181503206e+005,-1.76700101177971e+001,-3.35404429803981e+000

1.96983106135185e+005,-1.76701003005312e+001,-3.40085283527243e+000

1.99732887824256e+005,-1.76701930163396e+001,-3.44831427861224e+000

2.02521055035243e+005,-1.76702883363052e+001,-3.49643772037183e+000

2.05348143610063e+005,-1.76703863335020e+001,-3.54523237885797e+000

2.08214696870707e+005,-1.76704870830503e+001,-3.59470760009262e+000

2.11121265723661e+005,-1.76705906621741e+001,-3.64487285955377e+000

2.14068408765776e+005,-1.76706971502594e+001,-3.69573776394077e+000

2.17056692391625e+005,-1.76708066289149e+001,-3.74731205296042e+000

2.20086690902357e+005,-1.76709191820338e+001,-3.79960560113837e+000

2.23158986616063e+005,-1.76710348958573e+001,-3.85262841965220e+000

2.26274169979693e+005,-1.76711538590401e+001,-3.90639065818873e+000

2.29432839682530e+005,-1.76712761627179e+001,-3.96090260682560e+000

2.32635602771247e+005,-1.76714019005760e+001,-4.01617469793487e+000

2.35883074766574e+005,-1.76715311689206e+001,-4.07221750811432e+000

2.39175879781588e+005,-1.76716640667519e+001,-4.12904176013973e+000

2.42514650641661e+005,-1.76718006958385e+001,-4.18665832494394e+000

2.45900029006080e+005,-1.76719411607950e+001,-4.24507822362115e+000

2.49332665491357e+005,-1.76720855691608e+001,-4.30431262945483e+000

2.52813219796278e+005,-1.76722340314813e+001,-4.36437286997287e+000

2.56342360828676e+005,-1.76723866613918e+001,-4.42527042902733e+000

2.59920766833993e+005,-1.76725435757033e+001,-4.48701694890048e+000

2.63549125525621e+005,-1.76727048944902e+001,-4.54962423243741e+000

2.67228134217075e+005,-1.76728707411815e+001,-4.61310424520407e+000

2.70958499956006e+005,-1.76730412426535e+001,-4.67746911767354e+000

2.74740939660078e+005,-1.76732165293257e+001,-4.74273114743723e+000

2.78576180254757e+005,-1.76733967352587e+001,-4.80890280144524e+000

2.82464958813007e+005,-1.76735819982556e+001,-4.87599671827202e+000

2.86408022696948e+005,-1.76737724599653e+001,-4.94402571041157e+000

2.90406129701488e+005,-1.76739682659892e+001,-5.01300276659866e+000

2.94460048199957e+005,-1.76741695659905e+001,-5.08294105415910e+000

2.98570557291775e+005,-1.76743765138069e+001,-5.15385392138767e+000

3.02738446952187e+005,-1.76745892675657e+001,-5.22575489995506e+000

3.06964518184081e+005,-1.76748079898026e+001,-5.29865770734195e+000

3.11249583171928e+005,-1.76750328475836e+001,-5.37257624930426e+000

3.15594465437872e+005,-1.76752640126298e+001,-5.44752462236422e+000

3.19999999999997e+005,-1.76755016614464e+001,-5.52351711633407e+000

3.24467033532806e+005,-1.76757459754542e+001,-5.60056821686511e+000

3.28996424529938e+005,-1.76759971411255e+001,-5.67869260803072e+000

3.33589043469155e+005,-1.76762553501233e+001,-5.75790517493414e+000

3.38245772979638e+005,-1.76765207994443e+001,-5.83822100635054e+000

3.42967508011610e+005,-1.76767936915655e+001,-5.91965539739560e+000

3.47755156008335e+005,-1.76770742345952e+001,-6.00222385222572e+000

3.52609637080511e+005,-1.76773626424281e+001,-6.08594208676842e+000

3.57531884183106e+005,-1.76776591349036e+001,-6.17082603148230e+000

3.62522843294651e+005,-1.76779639379698e+001,-6.25689183414759e+000

3.67583473599047e+005,-1.76782772838510e+001,-6.34415586268752e+000

3.72714747669902e+005,-1.76785994112193e+001,-6.43263470802004e+000

3.77917651657445e+005,-1.76789305653720e+001,-6.52234518693925e+000

3.83193185478053e+005,-1.76792709984126e+001,-6.61330434502917e+000

3.88542363006410e+005,-1.76796209694371e+001,-6.70552945960661e+000

3.93966212270369e+005,-1.76799807447257e+001,-6.79903804269499e+000

3.99465775648511e+005,-1.76803505979383e+001,-6.89384784403006e+000

4.05042110070485e+005,-1.76807308103165e+001,-6.98997685409460e+000

4.10696287220124e+005,-1.76811216708903e+001,-7.08744330718431e+000

4.16429393741414e+005,-1.76815234766905e+001,-7.18626568450495e+000

4.22242531447321e+005,-1.76819365329660e+001,-7.28646271729933e+000

4.28136817531551e+005,-1.76823611534083e+001,-7.38805339000444e+000

4.34113384783250e+005,-1.76827976603800e+001,-7.49105694343952e+000

4.40173381804713e+005,-1.76832463851509e+001,-7.59549287802390e+000

4.46317973232124e+005,-1.76837076681395e+001,-7.70138095702470e+000

4.52548339959385e+005,-1.76841818591603e+001,-7.80874120983501e+000

4.58865679365059e+005,-1.76846693176793e+001,-7.91759393528038e+000

4.65271205542494e+005,-1.76851704130738e+001,-8.02795970495586e+000

4.71766149533147e+005,-1.76856855249007e+001,-8.13985936659156e+000

4.78351759563174e+005,-1.76862150431712e+001,-8.25331404744692e+000

4.85029301283321e+005,-1.76867593686319e+001,-8.36834515773359e+000

4.91800058012158e+005,-1.76873189130545e+001,-8.48497439406606e+000

4.98665330982714e+005,-1.76878940995315e+001,-8.60322374294065e+000

5.05626439592555e+005,-1.76884853627802e+001,-8.72311548424025e+000

5.12684721657352e+005,-1.76890931494546e+001,-8.84467219476786e+000

5.19841533667984e+005,-1.76897179184647e+001,-8.96791675180468e+000

5.27098251051240e+005,-1.76903601413041e+001,-9.09287233669438e+000

5.34456268434150e+005,-1.76910203023859e+001,-9.21956243845258e+000

5.41916999912011e+005,-1.76916988993872e+001,-9.34801085740058e+000

