Freq.,VOut,OutRef

1.00000000000000e+004,-2.01674412453261e+001,-1.71045180357034e-001

1.01395947979003e+004,-2.01674415569857e+001,-1.73432879833818e-001

1.02811382665607e+004,-2.01674418774074e+001,-1.75853910256790e-001

1.04246576084112e+004,-2.01674422068373e+001,-1.78308736905125e-001

1.05701804056138e+004,-2.01674425455288e+001,-1.80797831551253e-001

1.07177346253629e+004,-2.01674428937421e+001,-1.83321672555966e-001

1.08673486252606e+004,-2.01674432517450e+001,-1.85880744954244e-001

1.10190511587661e+004,-2.01674436198126e+001,-1.88475540554112e-001

1.11728713807222e+004,-2.01674439982281e+001,-1.91106558026784e-001

1.13288388529580e+004,-2.01674443872820e+001,-1.93774303007436e-001

1.14869835499703e+004,-2.01674447872740e+001,-1.96479288184820e-001

1.16473358646846e+004,-2.01674451985112e+001,-1.99222033408948e-001

1.18099266142953e+004,-2.01674456213096e+001,-2.02003065784688e-001

1.19747870461893e+004,-2.01674460559947e+001,-2.04822919772829e-001

1.21419488439505e+004,-2.01674465029002e+001,-2.07682137298458e-001

1.23114441334492e+004,-2.01674469623700e+001,-2.10581267847467e-001

1.24833054890161e+004,-2.01674474347571e+001,-2.13520868579531e-001

1.26575659397028e+004,-2.01674479204248e+001,-2.16501504429704e-001

1.28342589756290e+004,-2.01674484197465e+001,-2.19523748217829e-001

1.30134185544193e+004,-2.01674489331059e+001,-2.22588180762763e-001

1.31950791077289e+004,-2.01674494608978e+001,-2.25695390988717e-001

1.33792755478611e+004,-2.01674500035278e+001,-2.28845976041761e-001

1.35660432744767e+004,-2.01674505614132e+001,-2.32040541402389e-001

1.37554181813974e+004,-2.01674511349827e+001,-2.35279701003653e-001

1.39474366635040e+004,-2.01674517246775e+001,-2.38564077347985e-001

1.41421356237309e+004,-2.01674523309507e+001,-2.41894301627412e-001

1.43395524801583e+004,-2.01674529542685e+001,-2.45271013844657e-001

1.45397251732031e+004,-2.01674535951101e+001,-2.48694862935974e-001

1.47426921729110e+004,-2.01674542539680e+001,-2.52166506896905e-001

1.49484924863494e+004,-2.01674549313489e+001,-2.55686612906334e-001

1.51571656651040e+004,-2.01674556277734e+001,-2.59255857456165e-001

1.53687518128801e+004,-2.01674563437770e+001,-2.62874926482242e-001

1.55832915932100e+004,-2.01674570799100e+001,-2.66544515495568e-001

1.58008262372675e+004,-2.01674578367385e+001,-2.70265329713017e-001

1.60213975517924e+004,-2.01674586148441e+001,-2.74038084198057e-001

1.62450479271247e+004,-2.01674594148251e+001,-2.77863503994404e-001

1.64718203453514e+004,-2.01674602372964e+001,-2.81742324266243e-001

1.67017583885674e+004,-2.01674610828904e+001,-2.85675290439282e-001

1.69349062472505e+004,-2.01674619522572e+001,-2.89663158344853e-001

1.71713087287550e+004,-2.01674628460649e+001,-2.93706694364449e-001

1.74110112659224e+004,-2.01674637650009e+001,-2.97806675576522e-001

1.76540599258131e+004,-2.01674647097714e+001,-3.01963889907394e-001

1.79005014185594e+004,-2.01674656811028e+001,-3.06179136281125e-001

1.81503831063432e+004,-2.01674666797418e+001,-3.10453224772563e-001

1.84037530124975e+004,-2.01674677064562e+001,-3.14786976764657e-001

1.86606598307361e+004,-2.01674687620351e+001,-3.19181225106508e-001

1.89211529345119e+004,-2.01674698472901e+001,-3.23636814269969e-001

1.91852823865052e+004,-2.01674709630556e+001,-3.28154600516091e-001

1.94530989482457e+004,-2.01674721101891e+001,-3.32735452057837e-001

1.97246540898671e+004,-2.01674732895727e+001,-3.37380249225750e-001

1.99999999999999e+004,-2.01674745021128e+001,-3.42089884638650e-001

2.02791895958005e+004,-2.01674757487418e+001,-3.46865263374951e-001

2.05622765331213e+004,-2.01674770304179e+001,-3.51707303145423e-001

2.08493152168224e+004,-2.01674783481264e+001,-3.56616934471825e-001

2.11403608112276e+004,-2.01674797028803e+001,-3.61595100862167e-001

2.14354692507258e+004,-2.01674810957210e+001,-3.66642758995274e-001

2.17346972505211e+004,-2.01674825277194e+001,-3.71760878902070e-001

2.20381023175322e+004,-2.01674839999762e+001,-3.76950444154468e-001

2.23457427614443e+004,-2.01674855136233e+001,-3.82212452052120e-001

2.26576777059159e+004,-2.01674870698242e+001,-3.87547913814629e-001

2.29739670999406e+004,-2.01674886697752e+001,-3.92957854776031e-001

2.32946717293690e+004,-2.01674903147065e+001,-3.98443314581351e-001

2.36198532285905e+004,-2.01674920058823e+001,-4.04005347387688e-001

2.39495740923785e+004,-2.01674937446028e+001,-4.09645022064424e-001

2.42838976879009e+004,-2.01674955322047e+001,-4.15363422400260e-001

2.46228882668982e+004,-2.01674973700621e+001,-4.21161647310643e-001

2.49666109780322e+004,-2.01674992595878e+001,-4.27040811048773e-001

2.53151318794055e+004,-2.01675012022346e+001,-4.33002043420115e-001

2.56685179512580e+004,-2.01675031994956e+001,-4.39046490000053e-001

2.60268371088386e+004,-2.01675052529062e+001,-4.45175312351516e-001

2.63901582154578e+004,-2.01675073640452e+001,-4.51389688249765e-001

2.67585510957221e+004,-2.01675095345351e+001,-4.57690811910220e-001

2.71320865489533e+004,-2.01675117660447e+001,-4.64079894213150e-001

2.75108363627948e+004,-2.01675140602893e+001,-4.70558162941450e-001

2.78948733270080e+004,-2.01675164190326e+001,-4.77126863012618e-001

2.82842712474618e+004,-2.01675188440878e+001,-4.83787256719843e-001

2.86791049603164e+004,-2.01675213373192e+001,-4.90540623973630e-001

2.90794503464061e+004,-2.01675239006433e+001,-4.97388262547482e-001

2.94853843458219e+004,-2.01675265360307e+001,-5.04331488328272e-001

2.98969849726987e+004,-2.01675292455071e+001,-5.11371635567421e-001

3.03143313302078e+004,-2.01675320311556e+001,-5.18510057136961e-001

3.07375036257601e+004,-2.01675348951172e+001,-5.25748124791910e-001

3.11665831864199e+004,-2.01675378395938e+001,-5.33087229430438e-001

3.16016524745350e+004,-2.01675408668488e+001,-5.40528781362707e-001

3.20427951035848e+004,-2.01675439792092e+001,-5.48074210580610e-001

3.24900958542493e+004,-2.01675471790676e+001,-5.55724967034169e-001

3.29436406907028e+004,-2.01675504688837e+001,-5.63482520908012e-001

3.34035167771346e+004,-2.01675538511865e+001,-5.71348362904058e-001

3.38698124945009e+004,-2.01675573285759e+001,-5.79324004528887e-001

3.43426174575100e+004,-2.01675609037252e+001,-5.87410978381292e-001

3.48220225318448e+004,-2.01675645793822e+001,-5.95610838450746e-001

3.53081198516260e+004,-2.01675683583729e+001,-6.03925160410341e-001

3.58010028371187e+004,-2.01675722436018e+001,-6.12355541923769e-001

3.63007662126863e+004,-2.01675762380557e+001,-6.20903602950408e-001

3.68075060249948e+004,-2.01675803448050e+001,-6.29570986054738e-001

3.73213196614721e+004,-2.01675845670066e+001,-6.38359356723865e-001

3.78423058690237e+004,-2.01675889079061e+001,-6.47270403686225e-001

3.83705647730104e+004,-2.01675933708401e+001,-6.56305839235803e-001

3.89061978964912e+004,-2.01675979592395e+001,-6.65467399560548e-001

3.94493081797342e+004,-2.01676026766311e+001,-6.74756845075683e-001

3.99999999999998e+004,-2.01676075266411e+001,-6.84175960761224e-001

4.05583791916010e+004,-2.01676125129976e+001,-6.93726556505924e-001

4.11245530662425e+004,-2.01676176395336e+001,-7.03410467451465e-001

4.16986304336447e+004,-2.01676229101897e+001,-7.13229554348793e-001

4.22807216224550e+004,-2.01676283290172e+001,-7.23185703910905e-001

4.28709385014515e+004,-2.01676339001814e+001,-7.33280829178297e-001

4.34693945010421e+004,-2.01676396279647e+001,-7.43516869883510e-001

4.40762046350642e+004,-2.01676455167698e+001,-7.53895792824332e-001

4.46914855228886e+004,-2.01676515711232e+001,-7.64419592241507e-001

4.53153554118317e+004,-2.01676577956786e+001,-7.75090290200209e-001

4.59479341998812e+004,-2.01676641952205e+001,-7.85909936978449e-001

4.65893434587380e+004,-2.01676707746679e+001,-7.96880611459726e-001

4.72397064571810e+004,-2.01676775390780e+001,-8.08004421533612e-001

4.78991481847569e+004,-2.01676844936503e+001,-8.19283504496956e-001

4.85677953758016e+004,-2.01676916437304e+001,-8.30720027466129e-001

4.92457765337964e+004,-2.01676989948139e+001,-8.42316187792365e-001

4.99332219560642e+004,-2.01677065525511e+001,-8.54074213481788e-001

5.06302637588109e+004,-2.01677143227512e+001,-8.65996363622967e-001

5.13370359025159e+004,-2.01677223113863e+001,-8.78084928821733e-001

5.20536742176771e+004,-2.01677305245970e+001,-8.90342231636774e-001

5.27803164309155e+004,-2.01677389686956e+001,-9.02770627029319e-001

5.35171021914442e+004,-2.01677476501726e+001,-9.15372502810485e-001

5.42641730979066e+004,-2.01677565757006e+001,-9.28150280100966e-001

5.50216727255895e+004,-2.01677657521396e+001,-9.41106413795368e-001

5.57897466540159e+004,-2.01677751865426e+001,-9.54243393030520e-001

5.65685424949235e+004,-2.01677848861609e+001,-9.67563741664636e-001

5.73582099206328e+004,-2.01677948584493e+001,-9.81070018760295e-001

5.81589006928121e+004,-2.01678051110723e+001,-9.94764819073474e-001

5.89707686916437e+004,-2.01678156519098e+001,-1.00865077355296e+000

5.97939699453972e+004,-2.01678264890633e+001,-1.02273054984062e+000

6.06286626604156e+004,-2.01678376308615e+001,-1.03700685278703e+000

6.14750072515201e+004,-2.01678490858678e+001,-1.05148242496539e+000

6.23331663728396e+004,-2.01678608628856e+001,-1.06616004719910e+000

6.32033049490698e+004,-2.01678729709663e+001,-1.08104253909304e+000

6.40855902071694e+004,-2.01678854194153e+001,-1.09613275957327e+000

6.49801917084985e+004,-2.01678982177994e+001,-1.11143360743605e+000

6.58872813814055e+004,-2.01679113759548e+001,-1.12694802190009e+000

6.68070335542691e+004,-2.01679249039935e+001,-1.14267898317080e+000

6.77396249890018e+004,-2.01679388123120e+001,-1.15862951301059e+000

6.86852349150199e+004,-2.01679531115987e+001,-1.17480267531590e+000

6.96440450636895e+004,-2.01679678128427e+001,-1.19120157670467e+000

7.06162397032520e+004,-2.01679829273415e+001,-1.20782936710965e+000

7.16020056742374e+004,-2.01679984667103e+001,-1.22468924038138e+000

7.26015324253724e+004,-2.01680144428906e+001,-1.24178443489843e+000

7.36150120499896e+004,-2.01680308681595e+001,-1.25911823418757e+000

7.46426393229441e+004,-2.01680477551389e+001,-1.27669396755031e+000

7.56846117380472e+004,-2.01680651168056e+001,-1.29451501070080e+000

7.67411295460207e+004,-2.01680829665007e+001,-1.31258478640892e+000

7.78123957929823e+004,-2.01681013179404e+001,-1.33090676515686e+000

7.88986163594682e+004,-2.01681201852261e+001,-1.34948446580041e+000

7.99999999999995e+004,-2.01681395828556e+001,-1.36832145624136e+000

8.11167583832018e+004,-2.01681595257338e+001,-1.38742135410993e+000

8.22491061324848e+004,-2.01681800291843e+001,-1.40678782745505e+000

8.33972608672892e+004,-2.01682011089616e+001,-1.42642459544408e+000

8.45614432449099e+004,-2.01682227812624e+001,-1.44633542907404e+000

8.57418770029029e+004,-2.01682450627385e+001,-1.46652415189064e+000

8.69387890020841e+004,-2.01682679705096e+001,-1.48699464071792e+000

8.81524092701283e+004,-2.01682915221763e+001,-1.50775082639783e+000

8.93829710457770e+004,-2.01683157358335e+001,-1.52879669454025e+000

9.06307108236633e+004,-2.01683406300845e+001,-1.55013628628346e+000

9.18958683997622e+004,-2.01683662240552e+001,-1.57177369906408e+000

9.31786869174758e+004,-2.01683925374086e+001,-1.59371308739745e+000

9.44794129143618e+004,-2.01684195903602e+001,-1.61595866367177e+000

9.57982963695136e+004,-2.01684474036930e+001,-1.63851469894794e+000

9.71355907516031e+004,-2.01684759987741e+001,-1.66138552377501e+000

9.84915530675926e+004,-2.01685053975705e+001,-1.68457552901379e+000

9.98664439121282e+004,-2.01685356226662e+001,-1.70808916667420e+000

1.01260527517622e+005,-2.01685666972795e+001,-1.73193095076078e+000

1.02674071805032e+005,-2.01685986452806e+001,-1.75610545813372e+000

1.04107348435354e+005,-2.01686314912103e+001,-1.78061732937768e+000

1.05560632861831e+005,-2.01686652602985e+001,-1.80547126968600e+000

1.07034204382888e+005,-2.01686999784834e+001,-1.83067204975363e+000

1.08528346195813e+005,-2.01687356724318e+001,-1.85622450668560e+000

1.10043345451179e+005,-2.01687723695591e+001,-1.88213354491435e+000

1.11579493308032e+005,-2.01688100980506e+001,-1.90840413713330e+000

1.13137084989847e+005,-2.01688488868830e+001,-1.93504132523954e+000

1.14716419841265e+005,-2.01688887658465e+001,-1.96205022129111e+000

1.16317801385624e+005,-2.01689297655676e+001,-1.98943600847800e+000

1.17941537383287e+005,-2.01689719175328e+001,-2.01720394210386e+000

1.19587939890794e+005,-2.01690152541124e+001,-2.04535935058389e+000

1.21257325320831e+005,-2.01690598085854e+001,-2.07390763645434e+000

1.22950014503040e+005,-2.01691056151650e+001,-2.10285427739534e+000

1.24666332745679e+005,-2.01691527090249e+001,-2.13220482726964e+000

1.26406609898139e+005,-2.01692011263259e+001,-2.16196491717309e+000

1.28171180414339e+005,-2.01692509042437e+001,-2.19214025650086e+000

1.29960383416997e+005,-2.01693020809977e+001,-2.22273663402657e+000

1.31774562762811e+005,-2.01693546958793e+001,-2.25375991899813e+000

1.33614067108538e+005,-2.01694087892832e+001,-2.28521606224533e+000

1.35479249978003e+005,-2.01694644027374e+001,-2.31711109730494e+000

1.37370469830040e+005,-2.01695215789349e+001,-2.34945114155961e+000

1.39288090127379e+005,-2.01695803617672e+001,-2.38224239739202e+000

1.41232479406504e+005,-2.01696407963566e+001,-2.41549115335510e+000

1.43204011348474e+005,-2.01697029290921e+001,-2.44920378535655e+000

1.45203064850745e+005,-2.01697668076634e+001,-2.48338675786148e+000

1.47230024099979e+005,-2.01698324810984e+001,-2.51804662510858e+000

1.49285278645888e+005,-2.01698999998002e+001,-2.55319003234358e+000

1.51369223476094e+005,-2.01699694155856e+001,-2.58882371706922e+000

1.53482259092041e+005,-2.01700407817248e+001,-2.62495451031246e+000

1.55624791585964e+005,-2.01701141529819e+001,-2.66158933790574e+000

1.57797232718936e+005,-2.01701895856568e+001,-2.69873522178934e+000

1.59999999999999e+005,-2.01702671376281e+001,-2.73639928132660e+000

1.62233516766403e+005,-2.01703468683973e+001,-2.77458873463978e+000

1.64498212264969e+005,-2.01704288391341e+001,-2.81331089996212e+000

1.66794521734578e+005,-2.01705131127232e+001,-2.85257319700731e+000

1.69122886489819e+005,-2.01705997538120e+001,-2.89238314835769e+000

1.71483754005805e+005,-2.01706888288601e+001,-2.93274838087026e+000

1.73877578004168e+005,-2.01707804061900e+001,-2.97367662710124e+000

1.76304818540256e+005,-2.01708745560386e+001,-3.01517572674909e+000

1.78765942091554e+005,-2.01709713506113e+001,-3.05725362811590e+000

1.81261421647326e+005,-2.01710708641369e+001,-3.09991838958832e+000

1.83791736799524e+005,-2.01711731729237e+001,-3.14317818113757e+000

1.86357373834951e+005,-2.01712783554180e+001,-3.18704128583859e+000

1.88958825828723e+005,-2.01713864922633e+001,-3.23151610140933e+000

1.91596592739027e+005,-2.01714976663623e+001,-3.27661114176869e+000

1.94271181503206e+005,-2.01716119629394e+001,-3.32233503861577e+000

1.96983106135185e+005,-2.01717294696055e+001,-3.36869654302845e+000

1.99732887824256e+005,-2.01718502764248e+001,-3.41570452708298e+000

2.02521055035243e+005,-2.01719744759831e+001,-3.46336798549362e+000

2.05348143610063e+005,-2.01721021634581e+001,-3.51169603727327e+000

2.08214696870707e+005,-2.01722334366915e+001,-3.56069792741592e+000

2.11121265723661e+005,-2.01723683962636e+001,-3.61038302859827e+000

2.14068408765776e+005,-2.01725071455690e+001,-3.66076084290545e+000

2.17056692391625e+005,-2.01726497908957e+001,-3.71184100357638e+000

2.20086690902357e+005,-2.01727964415050e+001,-3.76363327677141e+000

2.23158986616063e+005,-2.01729472097147e+001,-3.81614756336314e+000

2.26274169979693e+005,-2.01731022109840e+001,-3.86939390074705e+000

2.29432839682530e+005,-2.01732615640008e+001,-3.92338246467756e+000

2.32635602771247e+005,-2.01734253907716e+001,-3.97812357112354e+000

2.35883074766574e+005,-2.01735938167140e+001,-4.03362767814959e+000

2.39175879781588e+005,-2.01737669707510e+001,-4.08990538781821e+000

2.42514650641661e+005,-2.01739449854086e+001,-4.14696744811564e+000

2.45900029006080e+005,-2.01741279969161e+001,-4.20482475490213e+000

2.49332665491357e+005,-2.01743161453088e+001,-4.26348835388369e+000

2.52813219796278e+005,-2.01745095745334e+001,-4.32296944260961e+000

2.56342360828676e+005,-2.01747084325569e+001,-4.38327937249257e+000

2.59920766833993e+005,-2.01749128714779e+001,-4.44442965085317e+000

2.63549125525621e+005,-2.01751230476410e+001,-4.50643194298887e+000

2.67228134217075e+005,-2.01753391217548e+001,-4.56929807426640e+000

2.70958499956006e+005,-2.01755612590127e+001,-4.63304003224053e+000

2.74740939660078e+005,-2.01757896292169e+001,-4.69766996879512e+000

2.78576180254757e+005,-2.01760244069062e+001,-4.76320020231073e+000

2.82464958813007e+005,-2.01762657714868e+001,-4.82964321985626e+000

2.86408022696948e+005,-2.01765139073672e+001,-4.89701167940643e+000

2.90406129701488e+005,-2.01767690040963e+001,-4.96531841208343e+000

2.94460048199957e+005,-2.01770312565054e+001,-5.03457642442499e+000

2.98570557291775e+005,-2.01773008648540e+001,-5.10479890067639e+000

3.02738446952187e+005,-2.01775780349801e+001,-5.17599920510938e+000

3.06964518184081e+005,-2.01778629784532e+001,-5.24819088436581e+000

3.11249583171928e+005,-2.01781559127333e+001,-5.32138766982747e+000

3.15594465437872e+005,-2.01784570613325e+001,-5.39560348001081e+000

3.19999999999997e+005,-2.01787666539819e+001,-5.47085242298834e+000

3.24467033532806e+005,-2.01790849268031e+001,-5.54714879883529e+000

3.28996424529938e+005,-2.01794121224834e+001,-5.62450710210220e+000

3.33589043469155e+005,-2.01797484904566e+001,-5.70294202431307e+000

3.38245772979638e+005,-2.01800942870885e+001,-5.78246845649043e+000

3.42967508011610e+005,-2.01804497758668e+001,-5.86310149170491e+000

3.47755156008335e+005,-2.01808152275968e+001,-5.94485642765109e+000

3.52609637080511e+005,-2.01811909206021e+001,-6.02774876924955e+000

3.57531884183106e+005,-2.01815771409302e+001,-6.11179423127450e+000

3.62522843294651e+005,-2.01819741825644e+001,-6.19700874100621e+000

3.67583473599047e+005,-2.01823823476404e+001,-6.28340844091034e+000

3.72714747669902e+005,-2.01828019466696e+001,-6.37100969134134e+000

3.77917651657445e+005,-2.01832332987676e+001,-6.45982907327231e+000

3.83193185478053e+005,-2.01836767318892e+001,-6.54988339104907e+000

3.88542363006410e+005,-2.01841325830690e+001,-6.64118967516980e+000

3.93966212270369e+005,-2.01846011986693e+001,-6.73376518508910e+000

3.99465775648511e+005,-2.01850829346337e+001,-6.82762741204678e+000

4.05042110070485e+005,-2.01855781567474e+001,-6.92279408192087e+000

4.10696287220124e+005,-2.01860872409052e+001,-7.01928315810412e+000

4.16429393741414e+005,-2.01866105733851e+001,-7.11711284440548e+000

4.22242531447321e+005,-2.01871485511306e+001,-7.21630158797309e+000

4.28136817531551e+005,-2.01877015820389e+001,-7.31686808224214e+000

4.34113384783250e+005,-2.01882700852576e+001,-7.41883126990382e+000

4.40173381804713e+005,-2.01888544914886e+001,-7.52221034589708e+000

4.46317973232124e+005,-2.01894552433001e+001,-7.62702476042230e+000

4.52548339959385e+005,-2.01900727954465e+001,-7.73329422197544e+000

4.58865679365059e+005,-2.01907076151965e+001,-7.84103870040350e+000

4.65271205542494e+005,-2.01913601826698e+001,-7.95027842997931e+000

4.71766149533147e+005,-2.01920309911823e+001,-8.06103391249643e+000

4.78351759563174e+005,-2.01927205475999e+001,-8.17332592038220e+000

4.85029301283321e+005,-2.01934293727017e+001,-8.28717549982957e+000

4.91800058012158e+005,-2.01941580015523e+001,-8.40260397394503e+000

4.98665330982714e+005,-2.01949069838831e+001,-8.51963294591395e+000

5.05626439592555e+005,-2.01956768844838e+001,-8.63828430218174e+000

5.12684721657352e+005,-2.01964682836032e+001,-8.75858021564816e+000

5.19841533667984e+005,-2.01972817773607e+001,-8.88054314887709e+000

5.27098251051240e+005,-2.01981179781671e+001,-9.00419585731794e+000

5.34456268434150e+005,-2.01989775151567e+001,-9.12956139253916e+000

5.41916999912011e+005,-2.01998610346298e+001,-9.25666310547140e+000

