Freq.,VOut,OutRef

1.00000000000000e+004,-1.00757088518887e+001,-5.39412811759185e-002

1.01395947979003e+004,-1.00757088350490e+001,-5.46942734535411e-002

1.02811382665607e+004,-1.00757088177358e+001,-5.54577771147418e-002

1.04246576084112e+004,-1.00757087999358e+001,-5.62319388923923e-002

1.05701804056138e+004,-1.00757087816354e+001,-5.70169075679676e-002

1.07177346253629e+004,-1.00757087628207e+001,-5.78128339996072e-002

1.08673486252606e+004,-1.00757087434767e+001,-5.86198711548567e-002

1.10190511587661e+004,-1.00757087235892e+001,-5.94381741295211e-002

1.11728713807222e+004,-1.00757087031424e+001,-6.02679001922801e-002

1.13288388529580e+004,-1.00757086821206e+001,-6.11092088035696e-002

1.14869835499703e+004,-1.00757086605080e+001,-6.19622616472302e-002

1.16473358646846e+004,-1.00757086382880e+001,-6.28272226667765e-002

1.18099266142953e+004,-1.00757086154429e+001,-6.37042580985484e-002

1.19747870461893e+004,-1.00757085919558e+001,-6.45935364896702e-002

1.21419488439505e+004,-1.00757085678081e+001,-6.54952287508453e-002

1.23114441334492e+004,-1.00757085429820e+001,-6.64095081682523e-002

1.24833054890161e+004,-1.00757085174574e+001,-6.73365504572497e-002

1.26575659397028e+004,-1.00757084912156e+001,-6.82765337768439e-002

1.28342589756290e+004,-1.00757084642360e+001,-6.92296387788816e-002

1.30134185544193e+004,-1.00757084364977e+001,-7.01960486368976e-002

1.31950791077289e+004,-1.00757084079798e+001,-7.11759490779571e-002

1.33792755478611e+004,-1.00757083786600e+001,-7.21695284242691e-002

1.35660432744767e+004,-1.00757083485159e+001,-7.31769776276331e-002

1.37554181813974e+004,-1.00757083175244e+001,-7.41984903019924e-002

1.39474366635040e+004,-1.00757082856617e+001,-7.52342627679104e-002

1.41421356237309e+004,-1.00757082529031e+001,-7.62844940846157e-002

1.43395524801583e+004,-1.00757082192234e+001,-7.73493860915596e-002

1.45397251732031e+004,-1.00757081845970e+001,-7.84291434422951e-002

1.47426921729110e+004,-1.00757081489971e+001,-7.95239736511367e-002

1.49484924863494e+004,-1.00757081123964e+001,-8.06340871267954e-002

1.51571656651040e+004,-1.00757080747666e+001,-8.17596972167530e-002

1.53687518128801e+004,-1.00757080360789e+001,-8.29010202456427e-002

1.55832915932100e+004,-1.00757079963038e+001,-8.40582755567137e-002

1.58008262372675e+004,-1.00757079554102e+001,-8.52316855598653e-002

1.60213975517924e+004,-1.00757079133669e+001,-8.64214757655917e-002

1.62450479271247e+004,-1.00757078701417e+001,-8.76278748312690e-002

1.64718203453514e+004,-1.00757078257014e+001,-8.88511146095838e-002

1.67017583885674e+004,-1.00757077800114e+001,-9.00914301903982e-002

1.69349062472505e+004,-1.00757077330372e+001,-9.13490599399305e-002

1.71713087287550e+004,-1.00757076847423e+001,-9.26242455574059e-002

1.74110112659224e+004,-1.00757076350895e+001,-9.39172321145114e-002

1.76540599258131e+004,-1.00757075840408e+001,-9.52282681036887e-002

1.79005014185594e+004,-1.00757075315569e+001,-9.65576054847504e-002

1.81503831063432e+004,-1.00757074775977e+001,-9.79054997355530e-002

1.84037530124975e+004,-1.00757074221214e+001,-9.92722099024658e-002

1.86606598307361e+004,-1.00757073650853e+001,-1.00657998647602e-001

1.89211529345119e+004,-1.00757073064457e+001,-1.02063132295903e-001

1.91852823865052e+004,-1.00757072461579e+001,-1.03487880892624e-001

1.94530989482457e+004,-1.00757071841748e+001,-1.04932518255801e-001

1.97246540898671e+004,-1.00757071204492e+001,-1.06397322021010e-001

1.99999999999999e+004,-1.00757070549321e+001,-1.07882573700988e-001

2.02791895958005e+004,-1.00757069875730e+001,-1.09388558739980e-001

2.05622765331213e+004,-1.00757069183201e+001,-1.10915566564987e-001

2.08493152168224e+004,-1.00757068471205e+001,-1.12463890642871e-001

2.11403608112276e+004,-1.00757067739190e+001,-1.14033828540398e-001

2.14354692507258e+004,-1.00757066986595e+001,-1.15625681975383e-001

2.17346972505211e+004,-1.00757066212843e+001,-1.17239756877288e-001

2.20381023175322e+004,-1.00757065417338e+001,-1.18876363447175e-001

2.23457427614443e+004,-1.00757064599468e+001,-1.20535816217415e-001

2.26576777059159e+004,-1.00757063758604e+001,-1.22218434109655e-001

2.29739670999406e+004,-1.00757062894100e+001,-1.23924540498151e-001

2.32946717293690e+004,-1.00757062005293e+001,-1.25654463269981e-001

2.36198532285905e+004,-1.00757061091497e+001,-1.27408534892440e-001

2.39495740923785e+004,-1.00757060152011e+001,-1.29187092471220e-001

2.42838976879009e+004,-1.00757059186113e+001,-1.30990477818158e-001

2.46228882668982e+004,-1.00757058193060e+001,-1.32819037518027e-001

2.49666109780322e+004,-1.00757057172087e+001,-1.34673122993509e-001

2.53151318794055e+004,-1.00757056122411e+001,-1.36553090571820e-001

2.56685179512580e+004,-1.00757055043226e+001,-1.38459301554514e-001

2.60268371088386e+004,-1.00757053933701e+001,-1.40392122287597e-001

2.63901582154578e+004,-1.00757052792981e+001,-1.42351924232967e-001

2.67585510957221e+004,-1.00757051620193e+001,-1.44339084033429e-001

2.71320865489533e+004,-1.00757050414433e+001,-1.46353983592943e-001

2.75108363627948e+004,-1.00757049174776e+001,-1.48397010145601e-001

2.78948733270080e+004,-1.00757047900266e+001,-1.50468556332481e-001

2.82842712474618e+004,-1.00757046589925e+001,-1.52569020274352e-001

2.86791049603164e+004,-1.00757045242744e+001,-1.54698805650251e-001

2.90794503464061e+004,-1.00757043857691e+001,-1.56858321772629e-001

2.94853843458219e+004,-1.00757042433697e+001,-1.59047983671723e-001

2.98969849726987e+004,-1.00757040969671e+001,-1.61268212167646e-001

3.03143313302078e+004,-1.00757039464485e+001,-1.63519433957174e-001

3.07375036257601e+004,-1.00757037916981e+001,-1.65802081693899e-001

3.11665831864199e+004,-1.00757036325973e+001,-1.68116594068185e-001

3.16016524745350e+004,-1.00757034690236e+001,-1.70463415897299e-001

3.20427951035848e+004,-1.00757033008511e+001,-1.72842998208650e-001

3.24900958542493e+004,-1.00757031279507e+001,-1.75255798323178e-001

3.29436406907028e+004,-1.00757029501894e+001,-1.77702279947955e-001

3.34035167771346e+004,-1.00757027674306e+001,-1.80182913261550e-001

3.38698124945009e+004,-1.00757025795338e+001,-1.82698175006965e-001

3.43426174575100e+004,-1.00757023863544e+001,-1.85248548584344e-001

3.48220225318448e+004,-1.00757021877440e+001,-1.87834524139165e-001

3.53081198516260e+004,-1.00757019835502e+001,-1.90456598659133e-001

3.58010028371187e+004,-1.00757017736155e+001,-1.93115276072766e-001

3.63007662126863e+004,-1.00757015577787e+001,-1.95811067341450e-001

3.68075060249948e+004,-1.00757013358742e+001,-1.98544490557483e-001

3.73213196614721e+004,-1.00757011077310e+001,-2.01316071050047e-001

3.78423058690237e+004,-1.00757008731738e+001,-2.04126341478828e-001

3.83705647730104e+004,-1.00757006320224e+001,-2.06975841939507e-001

3.89061978964912e+004,-1.00757003840913e+001,-2.09865120068756e-001

3.94493081797342e+004,-1.00757001291898e+001,-2.12794731147258e-001

3.99999999999998e+004,-1.00756998671224e+001,-2.15765238206227e-001

4.05583791916010e+004,-1.00756995976871e+001,-2.18777212140031e-001

4.11245530662425e+004,-1.00756993206770e+001,-2.21831231809355e-001

4.16986304336447e+004,-1.00756990358792e+001,-2.24927884157206e-001

4.22807216224550e+004,-1.00756987430746e+001,-2.28067764320611e-001

4.28709385014515e+004,-1.00756984420382e+001,-2.31251475743400e-001

4.34693945010421e+004,-1.00756981325388e+001,-2.34479630293584e-001

4.40762046350642e+004,-1.00756978143379e+001,-2.37752848384108e-001

4.46914855228886e+004,-1.00756974871914e+001,-2.41071759083546e-001

4.53153554118317e+004,-1.00756971508476e+001,-2.44437000245789e-001

4.59479341998812e+004,-1.00756968050479e+001,-2.47849218629096e-001

4.65893434587380e+004,-1.00756964495266e+001,-2.51309070018477e-001

4.72397064571810e+004,-1.00756960840102e+001,-2.54817219356274e-001

4.78991481847569e+004,-1.00756957082179e+001,-2.58374340864518e-001

4.85677953758016e+004,-1.00756953218607e+001,-2.61981118180477e-001

4.92457765337964e+004,-1.00756949246415e+001,-2.65638244483926e-001

4.99332219560642e+004,-1.00756945162552e+001,-2.69346422628829e-001

5.06302637588109e+004,-1.00756940963876e+001,-2.73106365285959e-001

5.13370359025159e+004,-1.00756936647161e+001,-2.76918795071494e-001

5.20536742176771e+004,-1.00756932209086e+001,-2.80784444691739e-001

5.27803164309155e+004,-1.00756927646242e+001,-2.84704057078699e-001

5.35171021914442e+004,-1.00756922955120e+001,-2.88678385538448e-001

5.42641730979066e+004,-1.00756918132113e+001,-2.92708193893106e-001

5.50216727255895e+004,-1.00756913173516e+001,-2.96794256626634e-001

5.57897466540159e+004,-1.00756908075513e+001,-3.00937359036627e-001

5.65685424949235e+004,-1.00756902834188e+001,-3.05138297382465e-001

5.73582099206328e+004,-1.00756897445511e+001,-3.09397879039710e-001

5.81589006928121e+004,-1.00756891905339e+001,-3.13716922655454e-001

5.89707686916437e+004,-1.00756886209413e+001,-3.18096258305809e-001

5.97939699453972e+004,-1.00756880353356e+001,-3.22536727653287e-001

6.06286626604156e+004,-1.00756874332664e+001,-3.27039184113483e-001

6.14750072515201e+004,-1.00756868142708e+001,-3.31604493012985e-001

6.23331663728396e+004,-1.00756861778733e+001,-3.36233531759464e-001

6.32033049490698e+004,-1.00756855235843e+001,-3.40927190011931e-001

6.40855902071694e+004,-1.00756848509010e+001,-3.45686369845928e-001

6.49801917084985e+004,-1.00756841593063e+001,-3.50511985932302e-001

6.58872813814055e+004,-1.00756834482684e+001,-3.55404965712595e-001

6.68070335542691e+004,-1.00756827172409e+001,-3.60366249573101e-001

6.77396249890018e+004,-1.00756819656616e+001,-3.65396791030642e-001

6.86852349150199e+004,-1.00756811929529e+001,-3.70497556912121e-001

6.96440450636895e+004,-1.00756803985207e+001,-3.75669527544383e-001

7.06162397032520e+004,-1.00756795817543e+001,-3.80913696938288e-001

7.16020056742374e+004,-1.00756787420260e+001,-3.86231072981721e-001

7.26015324253724e+004,-1.00756778786900e+001,-3.91622677635308e-001

7.36150120499896e+004,-1.00756769910827e+001,-3.97089547125861e-001

7.46426393229441e+004,-1.00756760785219e+001,-4.02632732147066e-001

7.56846117380472e+004,-1.00756751403059e+001,-4.08253298060677e-001

7.67411295460207e+004,-1.00756741757136e+001,-4.13952325103226e-001

7.78123957929823e+004,-1.00756731840034e+001,-4.19730908591506e-001

7.88986163594682e+004,-1.00756721644130e+001,-4.25590159133576e-001

7.99999999999995e+004,-1.00756711161585e+001,-4.31531202844988e-001

8.11167583832018e+004,-1.00756700384343e+001,-4.37555181560248e-001

8.22491061324848e+004,-1.00756689304117e+001,-4.43663253057195e-001

8.33972608672892e+004,-1.00756677912391e+001,-4.49856591276884e-001

8.45614432449099e+004,-1.00756666200407e+001,-4.56136386550588e-001

8.57418770029029e+004,-1.00756654159161e+001,-4.62503845827789e-001

8.69387890020841e+004,-1.00756641779399e+001,-4.68960192908780e-001

8.81524092701283e+004,-1.00756629051602e+001,-4.75506668679715e-001

8.93829710457770e+004,-1.00756615965987e+001,-4.82144531351861e-001

9.06307108236633e+004,-1.00756602512495e+001,-4.88875056702697e-001

9.18958683997622e+004,-1.00756588680784e+001,-4.95699538321127e-001

9.31786869174758e+004,-1.00756574460221e+001,-5.02619287857945e-001

9.44794129143618e+004,-1.00756559839876e+001,-5.09635635275077e-001

9.57982963695136e+004,-1.00756544808507e+001,-5.16749929105471e-001

9.71355907516031e+004,-1.00756529354563e+001,-5.23963536707432e-001

9.84915530675926e+004,-1.00756513466162e+001,-5.31277844532838e-001

9.98664439121282e+004,-1.00756497131091e+001,-5.38694258389257e-001

1.01260527517622e+005,-1.00756480336794e+001,-5.46214203712761e-001

1.02674071805032e+005,-1.00756463070360e+001,-5.53839125841677e-001

1.04107348435354e+005,-1.00756445318518e+001,-5.61570490294632e-001

1.05560632861831e+005,-1.00756427067621e+001,-5.69409783052335e-001

1.07034204382888e+005,-1.00756408303640e+001,-5.77358510842716e-001

1.08528346195813e+005,-1.00756389012150e+001,-5.85418201432083e-001

1.10043345451179e+005,-1.00756369178325e+001,-5.93590403916697e-001

1.11579493308032e+005,-1.00756348786915e+001,-6.01876689024621e-001

1.13137084989847e+005,-1.00756327822248e+001,-6.10278649413508e-001

1.14716419841265e+005,-1.00756306268210e+001,-6.18797899979100e-001

1.16317801385624e+005,-1.00756284108230e+001,-6.27436078168065e-001

1.17941537383287e+005,-1.00756261325276e+001,-6.36194844287057e-001

1.19587939890794e+005,-1.00756237901835e+001,-6.45075881829166e-001

1.21257325320831e+005,-1.00756213819901e+001,-6.54080897792057e-001

1.22950014503040e+005,-1.00756189060964e+001,-6.63211623009965e-001

1.24666332745679e+005,-1.00756163605993e+001,-6.72469812484333e-001

1.26406609898139e+005,-1.00756137435422e+001,-6.81857245723912e-001

1.28171180414339e+005,-1.00756110529133e+001,-6.91375727085117e-001

1.29960383416997e+005,-1.00756082866446e+001,-7.01027086119386e-001

1.31774562762811e+005,-1.00756054426097e+001,-7.10813177927377e-001

1.33614067108538e+005,-1.00756025186227e+001,-7.20735883512118e-001

1.35479249978003e+005,-1.00755995124358e+001,-7.30797110145153e-001

1.37370469830040e+005,-1.00755964217387e+001,-7.40998791730222e-001

1.39288090127379e+005,-1.00755932441554e+001,-7.51342889177723e-001

1.41232479406504e+005,-1.00755899772438e+001,-7.61831390780644e-001

1.43204011348474e+005,-1.00755866184927e+001,-7.72466312597854e-001

1.45203064850745e+005,-1.00755831653205e+001,-7.83249698842662e-001

1.47230024099979e+005,-1.00755796150731e+001,-7.94183622274156e-001

1.49285278645888e+005,-1.00755759650216e+001,-8.05270184599783e-001

1.51369223476094e+005,-1.00755722123605e+001,-8.16511516876770e-001

1.53482259092041e+005,-1.00755683542057e+001,-8.27909779922497e-001

1.55624791585964e+005,-1.00755643875916e+001,-8.39467164733203e-001

1.57797232718936e+005,-1.00755603094697e+001,-8.51185892902569e-001

1.59999999999999e+005,-1.00755561167052e+001,-8.63068217052236e-001

1.62233516766403e+005,-1.00755518060759e+001,-8.75116421263185e-001

1.64498212264969e+005,-1.00755473742686e+001,-8.87332821516842e-001

1.66794521734578e+005,-1.00755428178772e+001,-8.99719766140318e-001

1.69122886489819e+005,-1.00755381333997e+001,-9.12279636260371e-001

1.71483754005805e+005,-1.00755333172358e+001,-9.25014846259413e-001

1.73877578004168e+005,-1.00755283656839e+001,-9.37927844242201e-001

1.76304818540256e+005,-1.00755232749387e+001,-9.51021112506335e-001

1.78765942091554e+005,-1.00755180410875e+001,-9.64297168022252e-001

1.81261421647326e+005,-1.00755126601079e+001,-9.77758562915728e-001

1.83791736799524e+005,-1.00755071278644e+001,-9.91407884961026e-001

1.86357373834951e+005,-1.00755014401054e+001,-1.00524775807907e+000

1.88958825828723e+005,-1.00754955924597e+001,-1.01928084284230e+000

1.91596592739027e+005,-1.00754895804333e+001,-1.03350983698898e+000

1.94271181503206e+005,-1.00754833994059e+001,-1.04793747594118e+000

1.96983106135185e+005,-1.00754770446274e+001,-1.06256653333325e+000

1.99732887824256e+005,-1.00754705112142e+001,-1.07739982154550e+000

2.02521055035243e+005,-1.00754637941454e+001,-1.09244019224722e+000

2.05348143610063e+005,-1.00754568882592e+001,-1.10769053694505e+000

2.08214696870707e+005,-1.00754497882486e+001,-1.12315378754192e+000

2.11121265723661e+005,-1.00754424886574e+001,-1.13883291690095e+000

2.14068408765776e+005,-1.00754349838765e+001,-1.15473093941905e+000

2.17056692391625e+005,-1.00754272681387e+001,-1.17085091160882e+000

2.20086690902357e+005,-1.00754193355150e+001,-1.18719593268701e+000

2.23158986616063e+005,-1.00754111799099e+001,-1.20376914517281e+000

2.26274169979693e+005,-1.00754027950565e+001,-1.22057373549403e+000

2.29432839682530e+005,-1.00753941745118e+001,-1.23761293460160e+000

2.32635602771247e+005,-1.00753853116519e+001,-1.25489001859237e+000

2.35883074766574e+005,-1.00753761996667e+001,-1.27240830934179e+000

2.39175879781588e+005,-1.00753668315548e+001,-1.29017117514562e+000

2.42514650641661e+005,-1.00753572001182e+001,-1.30818203136823e+000

2.45900029006080e+005,-1.00753472979565e+001,-1.32644434110267e+000

2.49332665491357e+005,-1.00753371174617e+001,-1.34496161583997e+000

2.52813219796278e+005,-1.00753266508117e+001,-1.36373741614519e+000

2.56342360828676e+005,-1.00753158899651e+001,-1.38277535234646e+000

2.59920766833993e+005,-1.00753048266541e+001,-1.40207908523176e+000

2.63549125525621e+005,-1.00752934523791e+001,-1.42165232675569e+000

2.67228134217075e+005,-1.00752817584017e+001,-1.44149884075572e+000

2.70958499956006e+005,-1.00752697357376e+001,-1.46162244368141e+000

2.74740939660078e+005,-1.00752573751508e+001,-1.48202700532930e+000

2.78576180254757e+005,-1.00752446671455e+001,-1.50271644959246e+000

2.82464958813007e+005,-1.00752316019592e+001,-1.52369475521803e+000

2.86408022696948e+005,-1.00752181695553e+001,-1.54496595657647e+000

2.90406129701488e+005,-1.00752043596153e+001,-1.56653414444190e+000

2.94460048199957e+005,-1.00751901615311e+001,-1.58840346678183e+000

2.98570557291775e+005,-1.00751755643963e+001,-1.61057812956177e+000

3.02738446952187e+005,-1.00751605569986e+001,-1.63306239755584e+000

3.06964518184081e+005,-1.00751451278106e+001,-1.65586059517372e+000

3.11249583171928e+005,-1.00751292649814e+001,-1.67897710729772e+000

3.15594465437872e+005,-1.00751129563271e+001,-1.70241638012977e+000

3.19999999999997e+005,-1.00750961893218e+001,-1.72618292205330e+000

3.24467033532806e+005,-1.00750789510881e+001,-1.75028130450586e+000

3.28996424529938e+005,-1.00750612283867e+001,-1.77471616286442e+000

3.33589043469155e+005,-1.00750430076069e+001,-1.79949219734249e+000

3.38245772979638e+005,-1.00750242747557e+001,-1.82461417390238e+000

3.42967508011610e+005,-1.00750050154474e+001,-1.85008692517688e+000

3.47755156008335e+005,-1.00749852148922e+001,-1.87591535140732e+000

3.52609637080511e+005,-1.00749648578855e+001,-1.90210442139281e+000

3.57531884183106e+005,-1.00749439287956e+001,-1.92865917345395e+000

3.62522843294651e+005,-1.00749224115524e+001,-1.95558471640980e+000

3.67583473599047e+005,-1.00749002896344e+001,-1.98288623057051e+000

3.72714747669902e+005,-1.00748775460565e+001,-2.01056896874060e+000

3.77917651657445e+005,-1.00748541633570e+001,-2.03863825723998e+000

3.83193185478053e+005,-1.00748301235842e+001,-2.06709949693754e+000

3.88542363006410e+005,-1.00748054082826e+001,-2.09595816430062e+000

3.93966212270369e+005,-1.00747799984787e+001,-2.12521981245884e+000

3.99465775648511e+005,-1.00747538746667e+001,-2.15489007228360e+000

4.05042110070485e+005,-1.00747270167938e+001,-2.18497465348163e+000

4.10696287220124e+005,-1.00746994042441e+001,-2.21547934570699e+000

4.16429393741414e+005,-1.00746710158238e+001,-2.24641001968631e+000

4.22242531447321e+005,-1.00746418297442e+001,-2.27777262836133e+000

4.28136817531551e+005,-1.00746118236057e+001,-2.30957320804847e+000

4.34113384783250e+005,-1.00745809743803e+001,-2.34181787961295e+000

4.40173381804713e+005,-1.00745492583941e+001,-2.37451284966231e+000

4.46317973232124e+005,-1.00745166513093e+001,-2.40766441175580e+000

4.52548339959385e+005,-1.00744831281056e+001,-2.44127894763097e+000

4.58865679365059e+005,-1.00744486630611e+001,-2.47536292844910e+000

4.65271205542494e+005,-1.00744132297327e+001,-2.50992291605594e+000

4.71766149533147e+005,-1.00743768009358e+001,-2.54496556426563e+000

4.78351759563174e+005,-1.00743393487238e+001,-2.58049762015714e+000

4.85029301283321e+005,-1.00743008443667e+001,-2.61652592539408e+000

4.91800058012158e+005,-1.00742612583292e+001,-2.65305741756088e+000

4.98665330982714e+005,-1.00742205602479e+001,-2.69009913152116e+000

5.05626439592555e+005,-1.00741787189089e+001,-2.72765820079175e+000

5.12684721657352e+005,-1.00741357022233e+001,-2.76574185894095e+000

5.19841533667984e+005,-1.00740914772031e+001,-2.80435744100416e+000

5.27098251051240e+005,-1.00740460099362e+001,-2.84351238492123e+000

5.34456268434150e+005,-1.00739992655600e+001,-2.88321423299493e+000

5.41916999912011e+005,-1.00739512082360e+001,-2.92347063336995e+000

