Freq.,VOut,OutRef

1.00000000000000e+004,-1.42729503665551e+001,-1.67488457218958e-001

1.01395947979003e+004,-1.42729504400413e+001,-1.69826508668387e-001

1.02811382665607e+004,-1.42729505155936e+001,-1.72197198087529e-001

1.04246576084112e+004,-1.42729505932700e+001,-1.74600981085030e-001

1.05701804056138e+004,-1.42729506731301e+001,-1.77038319629333e-001

1.07177346253629e+004,-1.42729507552355e+001,-1.79509682137720e-001

1.08673486252606e+004,-1.42729508396490e+001,-1.82015543568004e-001

1.10190511587661e+004,-1.42729509264359e+001,-1.84556385504567e-001

1.11728713807222e+004,-1.42729510156626e+001,-1.87132696257217e-001

1.13288388529580e+004,-1.42729511073978e+001,-1.89744970952314e-001

1.14869835499703e+004,-1.42729512017121e+001,-1.92393711625536e-001

1.16473358646846e+004,-1.42729512986779e+001,-1.95079427323336e-001

1.18099266142953e+004,-1.42729513983697e+001,-1.97802634196862e-001

1.19747870461893e+004,-1.42729515008643e+001,-2.00563855602961e-001

1.21419488439505e+004,-1.42729516062403e+001,-2.03363622203541e-001

1.23114441334492e+004,-1.42729517145789e+001,-2.06202472068754e-001

1.24833054890161e+004,-1.42729518259634e+001,-2.09080950778987e-001

1.26575659397028e+004,-1.42729519404792e+001,-2.11999611532373e-001

1.28342589756290e+004,-1.42729520582146e+001,-2.14959015247910e-001

1.30134185544193e+004,-1.42729521792599e+001,-2.17959730675559e-001

1.31950791077289e+004,-1.42729523037083e+001,-2.21002334503792e-001

1.33792755478611e+004,-1.42729524316554e+001,-2.24087411472162e-001

1.35660432744767e+004,-1.42729525631994e+001,-2.27215554483257e-001

1.37554181813974e+004,-1.42729526984419e+001,-2.30387364712985e-001

1.39474366635040e+004,-1.42729528374863e+001,-2.33603451734863e-001

1.41421356237309e+004,-1.42729529804400e+001,-2.36864433625705e-001

1.43395524801583e+004,-1.42729531274126e+001,-2.40170937095609e-001

1.45397251732031e+004,-1.42729532785171e+001,-2.43523597599168e-001

1.47426921729110e+004,-1.42729534338698e+001,-2.46923059463795e-001

1.49484924863494e+004,-1.42729535935901e+001,-2.50369976009869e-001

1.51571656651040e+004,-1.42729537578006e+001,-2.53865009680260e-001

1.53687518128801e+004,-1.42729539266278e+001,-2.57408832161549e-001

1.55832915932100e+004,-1.42729541002014e+001,-2.61002124518761e-001

1.58008262372675e+004,-1.42729542786547e+001,-2.64645577324742e-001

1.60213975517924e+004,-1.42729544621250e+001,-2.68339890790750e-001

1.62450479271247e+004,-1.42729546507534e+001,-2.72085774902693e-001

1.64718203453514e+004,-1.42729548446849e+001,-2.75883949559142e-001

1.67017583885674e+004,-1.42729550440685e+001,-2.79735144705560e-001

1.69349062472505e+004,-1.42729552490575e+001,-2.83640100479390e-001

1.71713087287550e+004,-1.42729554598096e+001,-2.87599567347679e-001

1.74110112659224e+004,-1.42729556764866e+001,-2.91614306255478e-001

1.76540599258131e+004,-1.42729558992553e+001,-2.95685088768888e-001

1.79005014185594e+004,-1.42729561282869e+001,-2.99812697224195e-001

1.81503831063432e+004,-1.42729563637575e+001,-3.03997924879584e-001

1.84037530124975e+004,-1.42729566058480e+001,-3.08241576067160e-001

1.86606598307361e+004,-1.42729568547445e+001,-3.12544466345442e-001

1.89211529345119e+004,-1.42729571106385e+001,-3.16907422658262e-001

1.91852823865052e+004,-1.42729573737267e+001,-3.21331283492844e-001

1.94530989482457e+004,-1.42729576442112e+001,-3.25816899041772e-001

1.97246540898671e+004,-1.42729579223002e+001,-3.30365131364823e-001

1.99999999999999e+004,-1.42729582082072e+001,-3.34976854555984e-001

2.02791895958005e+004,-1.42729585021522e+001,-3.39652954911474e-001

2.05622765331213e+004,-1.42729588043611e+001,-3.44394331098310e-001

2.08493152168224e+004,-1.42729591150662e+001,-3.49201894329419e-001

2.11403608112276e+004,-1.42729594345064e+001,-3.54076568537714e-001

2.14354692507258e+004,-1.42729597629272e+001,-3.59019290552408e-001

2.17346972505211e+004,-1.42729601005813e+001,-3.64031010281057e-001

2.20381023175322e+004,-1.42729604477281e+001,-3.69112690890329e-001

2.23457427614443e+004,-1.42729608046344e+001,-3.74265308994161e-001

2.26576777059159e+004,-1.42729611715748e+001,-3.79489854836831e-001

2.29739670999406e+004,-1.42729615488312e+001,-3.84787332486790e-001

2.32946717293690e+004,-1.42729619366938e+001,-3.90158760027850e-001

2.36198532285905e+004,-1.42729623354606e+001,-3.95605169756982e-001

2.39495740923785e+004,-1.42729627454383e+001,-4.01127608380061e-001

2.42838976879009e+004,-1.42729631669419e+001,-4.06727137214234e-001

2.46228882668982e+004,-1.42729636002957e+001,-4.12404832392074e-001

2.49666109780322e+004,-1.42729640458326e+001,-4.18161785068052e-001

2.53151318794055e+004,-1.42729645038953e+001,-4.23999101627901e-001

2.56685179512580e+004,-1.42729649748358e+001,-4.29917903902498e-001

2.60268371088386e+004,-1.42729654590161e+001,-4.35919329382088e-001

2.63901582154578e+004,-1.42729659568088e+001,-4.42004531434360e-001

2.67585510957221e+004,-1.42729664685962e+001,-4.48174679528816e-001

2.71320865489533e+004,-1.42729669947718e+001,-4.54430959459233e-001

2.75108363627948e+004,-1.42729675357401e+001,-4.60774573571583e-001

2.78948733270080e+004,-1.42729680919172e+001,-4.67206740995320e-001

2.82842712474618e+004,-1.42729686637305e+001,-4.73728697878826e-001

2.86791049603164e+004,-1.42729692516196e+001,-4.80341697624714e-001

2.90794503464061e+004,-1.42729698560364e+001,-4.87047011134480e-001

2.94853843458219e+004,-1.42729704774457e+001,-4.93845927047184e-001

2.98969849726987e+004,-1.42729711163252e+001,-5.00739751992020e-001

3.03143313302078e+004,-1.42729717731659e+001,-5.07729810837288e-001

3.07375036257601e+004,-1.42729724484729e+001,-5.14817446944485e-001

3.11665831864199e+004,-1.42729731427652e+001,-5.22004022428729e-001

3.16016524745350e+004,-1.42729738565766e+001,-5.29290918417049e-001

3.20427951035848e+004,-1.42729745904561e+001,-5.36679535316440e-001

3.24900958542493e+004,-1.42729753449676e+001,-5.44171293083407e-001

3.29436406907028e+004,-1.42729761206912e+001,-5.51767631494092e-001

3.34035167771346e+004,-1.42729769182232e+001,-5.59470010422740e-001

3.38698124945009e+004,-1.42729777381769e+001,-5.67279910122299e-001

3.43426174575100e+004,-1.42729785811825e+001,-5.75198831508843e-001

3.48220225318448e+004,-1.42729794478881e+001,-5.83228296449047e-001

3.53081198516260e+004,-1.42729803389600e+001,-5.91369848053163e-001

3.58010028371187e+004,-1.42729812550832e+001,-5.99625050972607e-001

3.63007662126863e+004,-1.42729821969621e+001,-6.07995491698006e-001

3.68075060249948e+004,-1.42729831653207e+001,-6.16482778867385e-001

3.73213196614721e+004,-1.42729841609034e+001,-6.25088543572535e-001

3.78423058690237e+004,-1.42729851844755e+001,-6.33814439673817e-001

3.83705647730104e+004,-1.42729862368241e+001,-6.42662144117177e-001

3.89061978964912e+004,-1.42729873187581e+001,-6.51633357257173e-001

3.94493081797342e+004,-1.42729884311091e+001,-6.60729803183581e-001

3.99999999999998e+004,-1.42729895747325e+001,-6.69953230050966e-001

4.05583791916010e+004,-1.42729907505073e+001,-6.79305410417723e-001

4.11245530662425e+004,-1.42729919593374e+001,-6.88788141584227e-001

4.16986304336447e+004,-1.42729932021523e+001,-6.98403245938176e-001

4.22807216224550e+004,-1.42729944799071e+001,-7.08152571307474e-001

4.28709385014515e+004,-1.42729957935842e+001,-7.18037991310935e-001

4.34693945010421e+004,-1.42729971441937e+001,-7.28061405722029e-001

4.40762046350642e+004,-1.42729985327736e+001,-7.38224740831895e-001

4.46914855228886e+004,-1.42729999603916e+001,-7.48529949820642e-001

4.53153554118317e+004,-1.42730014281452e+001,-7.58979013130907e-001

4.59479341998812e+004,-1.42730029371625e+001,-7.69573938851559e-001

4.65893434587380e+004,-1.42730044886039e+001,-7.80316763098804e-001

4.72397064571810e+004,-1.42730060836618e+001,-7.91209550412357e-001

4.78991481847569e+004,-1.42730077235624e+001,-8.02254394148700e-001

4.85677953758016e+004,-1.42730094095667e+001,-8.13453416884096e-001

4.92457765337964e+004,-1.42730111429706e+001,-8.24808770823122e-001

4.99332219560642e+004,-1.42730129251066e+001,-8.36322638211883e-001

5.06302637588109e+004,-1.42730147573449e+001,-8.47997231756530e-001

5.13370359025159e+004,-1.42730166410939e+001,-8.59834795050150e-001

5.20536742176771e+004,-1.42730185778018e+001,-8.71837603001390e-001

5.27803164309155e+004,-1.42730205689575e+001,-8.84007962272482e-001

5.35171021914442e+004,-1.42730226160916e+001,-8.96348211724039e-001

5.42641730979066e+004,-1.42730247207778e+001,-9.08860722861835e-001

5.50216727255895e+004,-1.42730268846343e+001,-9.21547900294204e-001

5.57897466540159e+004,-1.42730291093243e+001,-9.34412182192967e-001

5.65685424949235e+004,-1.42730313965582e+001,-9.47456040762414e-001

5.73582099206328e+004,-1.42730337480943e+001,-9.60681982713839e-001

5.81589006928121e+004,-1.42730361657402e+001,-9.74092549748052e-001

5.89707686916437e+004,-1.42730386513546e+001,-9.87690319041229e-001

5.97939699453972e+004,-1.42730412068483e+001,-1.00147790374339e+000

6.06286626604156e+004,-1.42730438341857e+001,-1.01545795347812e+000

6.14750072515201e+004,-1.42730465353867e+001,-1.02963315485157e+000

6.23331663728396e+004,-1.42730493125278e+001,-1.04400623196933e+000

6.32033049490698e+004,-1.42730521677438e+001,-1.05857994695968e+000

6.40855902071694e+004,-1.42730551032297e+001,-1.07335710050397e+000

6.49801917084985e+004,-1.42730581212421e+001,-1.08834053237401e+000

6.58872813814055e+004,-1.42730612241011e+001,-1.10353312197852e+000

6.68070335542691e+004,-1.42730644141919e+001,-1.11893778891567e+000

6.77396249890018e+004,-1.42730676939670e+001,-1.13455749353346e+000

6.86852349150199e+004,-1.42730710659476e+001,-1.15039523750010e+000

6.96440450636895e+004,-1.42730745327259e+001,-1.16645406437771e+000

7.06162397032520e+004,-1.42730780969669e+001,-1.18273706020979e+000

7.16020056742374e+004,-1.42730817614105e+001,-1.19924735411187e+000

7.26015324253724e+004,-1.42730855288737e+001,-1.21598811887309e+000

7.36150120499896e+004,-1.42730894022528e+001,-1.23296257156659e+000

7.46426393229441e+004,-1.42730933845252e+001,-1.25017397416590e+000

7.56846117380472e+004,-1.42730974787523e+001,-1.26762563417184e+000

7.67411295460207e+004,-1.42731016880814e+001,-1.28532090524862e+000

7.78123957929823e+004,-1.42731060157483e+001,-1.30326318786611e+000

7.88986163594682e+004,-1.42731104650800e+001,-1.32145592995453e+000

7.99999999999995e+004,-1.42731150394965e+001,-1.33990262756632e+000

8.11167583832018e+004,-1.42731197425143e+001,-1.35860682554669e+000

8.22491061324848e+004,-1.42731245777489e+001,-1.37757211821423e+000

8.33972608672892e+004,-1.42731295489171e+001,-1.39680215005310e+000

8.45614432449099e+004,-1.42731346598404e+001,-1.41630061640974e+000

8.57418770029029e+004,-1.42731399144476e+001,-1.43607126420554e+000

8.69387890020841e+004,-1.42731453167780e+001,-1.45611789265378e+000

8.81524092701283e+004,-1.42731508709844e+001,-1.47644435399056e+000

8.93829710457770e+004,-1.42731565813365e+001,-1.49705455421427e+000

9.06307108236633e+004,-1.42731624522237e+001,-1.51795245383495e+000

9.18958683997622e+004,-1.42731684881593e+001,-1.53914206863462e+000

9.31786869174758e+004,-1.42731746937829e+001,-1.56062747043940e+000

9.44794129143618e+004,-1.42731810738648e+001,-1.58241278790011e+000

9.57982963695136e+004,-1.42731876333095e+001,-1.60450220728494e+000

9.71355907516031e+004,-1.42731943771592e+001,-1.62689997328317e+000

9.84915530675926e+004,-1.42732013105979e+001,-1.64961038982075e+000

9.98664439121282e+004,-1.42732084389552e+001,-1.67263782088539e+000

1.01260527517622e+005,-1.42732157677108e+001,-1.69598669136450e+000

1.02674071805032e+005,-1.42732233024981e+001,-1.71966148789511e+000

1.04107348435354e+005,-1.42732310491090e+001,-1.74366675972414e+000

1.05560632861831e+005,-1.42732390134983e+001,-1.76800711958222e+000

1.07034204382888e+005,-1.42732472017881e+001,-1.79268724456823e+000

1.08528346195813e+005,-1.42732556202725e+001,-1.81771187704787e+000

1.10043345451179e+005,-1.42732642754227e+001,-1.84308582556293e+000

1.11579493308032e+005,-1.42732731738917e+001,-1.86881396575417e+000

1.13137084989847e+005,-1.42732823225195e+001,-1.89490124129752e+000

1.14716419841265e+005,-1.42732917283383e+001,-1.92135266485159e+000

1.16317801385624e+005,-1.42733013985782e+001,-1.94817331902032e+000

1.17941537383287e+005,-1.42733113406722e+001,-1.97536835732828e+000

1.19587939890794e+005,-1.42733215622625e+001,-2.00294300520821e+000

1.21257325320831e+005,-1.42733320712060e+001,-2.03090256100497e+000

1.22950014503040e+005,-1.42733428755806e+001,-2.05925239699078e+000

1.24666332745679e+005,-1.42733539836908e+001,-2.08799796039676e+000

1.26406609898139e+005,-1.42733654040750e+001,-2.11714477445652e+000

1.28171180414339e+005,-1.42733771455115e+001,-2.14669843946704e+000

1.29960383416997e+005,-1.42733892170251e+001,-2.17666463386167e+000

1.31774562762811e+005,-1.42734016278945e+001,-2.20704911529922e+000

1.33614067108538e+005,-1.42734143876590e+001,-2.23785772176927e+000

1.35479249978003e+005,-1.42734275061263e+001,-2.26909637270976e+000

1.37370469830040e+005,-1.42734409933795e+001,-2.30077107014366e+000

1.39288090127379e+005,-1.42734548597852e+001,-2.33288789982924e+000

1.41232479406504e+005,-1.42734691160013e+001,-2.36545303242684e+000

1.43204011348474e+005,-1.42734837729854e+001,-2.39847272468107e+000

1.45203064850745e+005,-1.42734988420030e+001,-2.43195332062175e+000

1.47230024099979e+005,-1.42735143346361e+001,-2.46590125277905e+000

1.49285278645888e+005,-1.42735302627923e+001,-2.50032304341602e+000

1.51369223476094e+005,-1.42735466387140e+001,-2.53522530577970e+000

1.53482259092041e+005,-1.42735634749874e+001,-2.57061474536735e+000

1.55624791585964e+005,-1.42735807845527e+001,-2.60649816121268e+000

1.57797232718936e+005,-1.42735985807136e+001,-2.64288244718675e+000

1.59999999999999e+005,-1.42736168771478e+001,-2.67977459332096e+000

1.62233516766403e+005,-1.42736356879173e+001,-2.71718168714446e+000

1.64498212264969e+005,-1.42736550274792e+001,-2.75511091504273e+000

1.66794521734578e+005,-1.42736749106972e+001,-2.79356956363338e+000

1.69122886489819e+005,-1.42736953528524e+001,-2.83256502116295e+000

1.71483754005805e+005,-1.42737163696555e+001,-2.87210477891991e+000

1.73877578004168e+005,-1.42737379772587e+001,-2.91219643267128e+000

1.76304818540256e+005,-1.42737601922680e+001,-2.95284768411496e+000

1.78765942091554e+005,-1.42737830317563e+001,-2.99406634235567e+000

1.81261421647326e+005,-1.42738065132759e+001,-3.03586032539899e+000

1.83791736799524e+005,-1.42738306548725e+001,-3.07823766166738e+000

1.86357373834951e+005,-1.42738554750992e+001,-3.12120649153587e+000

1.88958825828723e+005,-1.42738809930299e+001,-3.16477506889107e+000

1.91596592739027e+005,-1.42739072282749e+001,-3.20895176270909e+000

1.94271181503206e+005,-1.42739342009953e+001,-3.25374505865755e+000

1.96983106135185e+005,-1.42739619319187e+001,-3.29916356071867e+000

1.99732887824256e+005,-1.42739904423554e+001,-3.34521599283394e+000

2.02521055035243e+005,-1.42740197542141e+001,-3.39191120057438e+000

2.05348143610063e+005,-1.42740498900193e+001,-3.43925815282929e+000

2.08214696870707e+005,-1.42740808729283e+001,-3.48726594352336e+000

2.11121265723661e+005,-1.42741127267491e+001,-3.53594379335389e+000

2.14068408765776e+005,-1.42741454759587e+001,-3.58530105155263e+000

2.17056692391625e+005,-1.42741791457214e+001,-3.63534719767357e+000

2.20086690902357e+005,-1.42742137619090e+001,-3.68609184340300e+000

2.23158986616063e+005,-1.42742493511199e+001,-3.73754473439642e+000

2.26274169979693e+005,-1.42742859406997e+001,-3.78971575213972e+000

2.29432839682530e+005,-1.42743235587623e+001,-3.84261491583600e+000

2.32635602771247e+005,-1.42743622342116e+001,-3.89625238431879e+000

2.35883074766574e+005,-1.42744019967632e+001,-3.95063845799135e+000

2.39175879781588e+005,-1.42744428769676e+001,-4.00578358079226e+000

2.42514650641661e+005,-1.42744849062334e+001,-4.06169834218927e+000

2.45900029006080e+005,-1.42745281168515e+001,-4.11839347919837e+000

2.49332665491357e+005,-1.42745725420201e+001,-4.17587987843247e+000

2.52813219796278e+005,-1.42746182158696e+001,-4.23416857817792e+000

2.56342360828676e+005,-1.42746651734891e+001,-4.29327077049827e+000

2.59920766833993e+005,-1.42747134509534e+001,-4.35319780336833e+000

2.63549125525621e+005,-1.42747630853505e+001,-4.41396118283655e+000

2.67228134217075e+005,-1.42748141148101e+001,-4.47557257521720e+000

2.70958499956006e+005,-1.42748665785326e+001,-4.53804380931297e+000

2.74740939660078e+005,-1.42749205168195e+001,-4.60138687866704e+000

2.78576180254757e+005,-1.42749759711041e+001,-4.66561394384747e+000

2.82464958813007e+005,-1.42750329839832e+001,-4.73073733476022e+000

2.86408022696948e+005,-1.42750915992500e+001,-4.79676955299708e+000

2.90406129701488e+005,-1.42751518619272e+001,-4.86372327421265e+000

2.94460048199957e+005,-1.42752138183018e+001,-4.93161135053528e+000

2.98570557291775e+005,-1.42752775159608e+001,-5.00044681301070e+000

3.02738446952187e+005,-1.42753430038269e+001,-5.07024287407866e+000

3.06964518184081e+005,-1.42754103321967e+001,-5.14101293008279e+000

3.11249583171928e+005,-1.42754795527790e+001,-5.21277056381590e+000

3.15594465437872e+005,-1.42755507187342e+001,-5.28552954709825e+000

3.19999999999997e+005,-1.42756238847152e+001,-5.35930384339202e+000

3.24467033532806e+005,-1.42756991069090e+001,-5.43410761045079e+000

3.28996424529938e+005,-1.42757764430801e+001,-5.50995520300451e+000

3.33589043469155e+005,-1.42758559526143e+001,-5.58686117548202e+000

3.38245772979638e+005,-1.42759376965645e+001,-5.66484028476844e+000

3.42967508011610e+005,-1.42760217376971e+001,-5.74390749300177e+000

3.47755156008335e+005,-1.42761081405403e+001,-5.82407797040599e+000

3.52609637080511e+005,-1.42761969714330e+001,-5.90536709816336e+000

3.57531884183106e+005,-1.42762882985763e+001,-5.98779047132355e+000

3.62522843294651e+005,-1.42763821920848e+001,-6.07136390175487e+000

3.67583473599047e+005,-1.42764787240408e+001,-6.15610342113193e+000

3.72714747669902e+005,-1.42765779685492e+001,-6.24202528396612e+000

3.77917651657445e+005,-1.42766800017940e+001,-6.32914597067466e+000

3.83193185478053e+005,-1.42767849020970e+001,-6.41748219069225e+000

3.88542363006410e+005,-1.42768927499769e+001,-6.50705088562342e+000

3.93966212270369e+005,-1.42770036282114e+001,-6.59786923243757e+000

3.99465775648511e+005,-1.42771176219004e+001,-6.68995464670661e+000

4.05042110070485e+005,-1.42772348185305e+001,-6.78332478588484e+000

4.10696287220124e+005,-1.42773553080424e+001,-6.87799755263366e+000

4.16429393741414e+005,-1.42774791828991e+001,-6.97399109819033e+000

4.22242531447321e+005,-1.42776065381566e+001,-7.07132382578037e+000

4.28136817531551e+005,-1.42777374715368e+001,-7.17001439407614e+000

4.34113384783250e+005,-1.42778720835013e+001,-7.27008172070142e+000

4.40173381804713e+005,-1.42780104773286e+001,-7.37154498578113e+000

4.46317973232124e+005,-1.42781527591928e+001,-7.47442363553878e+000

4.52548339959385e+005,-1.42782990382442e+001,-7.57873738594091e+000

4.58865679365059e+005,-1.42784494266929e+001,-7.68450622638982e+000

4.65271205542494e+005,-1.42786040398940e+001,-7.79175042346385e+000

4.71766149533147e+005,-1.42787629964356e+001,-7.90049052470787e+000

4.78351759563174e+005,-1.42789264182291e+001,-8.01074736247217e+000

4.85029301283321e+005,-1.42790944306019e+001,-8.12254205780212e+000

4.91800058012158e+005,-1.42792671623931e+001,-8.23589602437759e+000

4.98665330982714e+005,-1.42794447460511e+001,-8.35083097250511e+000

5.05626439592555e+005,-1.42796273177346e+001,-8.46736891316007e+000

5.12684721657352e+005,-1.42798150174161e+001,-8.58553216208207e+000

5.19841533667984e+005,-1.42800079889885e+001,-8.70534334392267e+000

5.27098251051240e+005,-1.42802063803740e+001,-8.82682539644710e+000

5.34456268434150e+005,-1.42804103436369e+001,-8.95000157478909e+000

5.41916999912011e+005,-1.42806200350986e+001,-9.07489545576111e+000

