Freq.,VOut,OutRef

1.00000000000000e+004,-1.13473930933390e+001,-1.75543687481081e-001

1.01395947979003e+004,-1.13473929919836e+001,-1.77994187249063e-001

1.02811382665607e+004,-1.13473928877787e+001,-1.80478894770294e-001

1.04246576084112e+004,-1.13473927806444e+001,-1.82998287569062e-001

1.05701804056138e+004,-1.13473926704980e+001,-1.85552849836854e-001

1.07177346253629e+004,-1.13473925572550e+001,-1.88143072522938e-001

1.08673486252606e+004,-1.13473924408284e+001,-1.90769453430926e-001

1.10190511587661e+004,-1.13473923211286e+001,-1.93432497313407e-001

1.11728713807222e+004,-1.13473921980634e+001,-1.96132715969540e-001

1.13288388529580e+004,-1.13473920715387e+001,-1.98870628341353e-001

1.14869835499703e+004,-1.13473919414566e+001,-2.01646760618527e-001

1.16473358646846e+004,-1.13473918077177e+001,-2.04461646331840e-001

1.18099266142953e+004,-1.13473916702187e+001,-2.07315826463491e-001

1.19747870461893e+004,-1.13473915288542e+001,-2.10209849546162e-001

1.21419488439505e+004,-1.13473913835155e+001,-2.13144271769967e-001

1.23114441334492e+004,-1.13473912340907e+001,-2.16119657090021e-001

1.24833054890161e+004,-1.13473910804650e+001,-2.19136577333893e-001

1.26575659397028e+004,-1.13473909225204e+001,-2.22195612309681e-001

1.28342589756290e+004,-1.13473907601353e+001,-2.25297349923156e-001

1.30134185544193e+004,-1.13473905931851e+001,-2.28442386284239e-001

1.31950791077289e+004,-1.13473904215413e+001,-2.31631325825037e-001

1.33792755478611e+004,-1.13473902450720e+001,-2.34864781416075e-001

1.35660432744767e+004,-1.13473900636414e+001,-2.38143374483572e-001

1.37554181813974e+004,-1.13473898771102e+001,-2.41467735127398e-001

1.39474366635040e+004,-1.13473896853349e+001,-2.44838502245043e-001

1.41421356237309e+004,-1.13473894881682e+001,-2.48256323651740e-001

1.43395524801583e+004,-1.13473892854583e+001,-2.51721856207130e-001

1.45397251732031e+004,-1.13473890770496e+001,-2.55235765939011e-001

1.47426921729110e+004,-1.13473888627818e+001,-2.58798728174175e-001

1.49484924863494e+004,-1.13473886424901e+001,-2.62411427667076e-001

1.51571656651040e+004,-1.13473884160053e+001,-2.66074558729864e-001

1.53687518128801e+004,-1.13473881831531e+001,-2.69788825368775e-001

1.55832915932100e+004,-1.13473879437547e+001,-2.73554941416022e-001

1.58008262372675e+004,-1.13473876976258e+001,-2.77373630671554e-001

1.60213975517924e+004,-1.13473874445776e+001,-2.81245627035976e-001

1.62450479271247e+004,-1.13473871844152e+001,-2.85171674658623e-001

1.64718203453514e+004,-1.13473869169387e+001,-2.89152528074695e-001

1.67017583885674e+004,-1.13473866419426e+001,-2.93188952354275e-001

1.69349062472505e+004,-1.13473863592153e+001,-2.97281723246174e-001

1.71713087287550e+004,-1.13473860685396e+001,-3.01431627330546e-001

1.74110112659224e+004,-1.13473857696920e+001,-3.05639462166539e-001

1.76540599258131e+004,-1.13473854624428e+001,-3.09906036447354e-001

1.79005014185594e+004,-1.13473851465557e+001,-3.14232170157399e-001

1.81503831063432e+004,-1.13473848217879e+001,-3.18618694726885e-001

1.84037530124975e+004,-1.13473844878899e+001,-3.23066453190859e-001

1.86606598307361e+004,-1.13473841446048e+001,-3.27576300357190e-001

1.89211529345119e+004,-1.13473837916689e+001,-3.32149102963562e-001

1.91852823865052e+004,-1.13473834288107e+001,-3.36785739849985e-001

1.94530989482457e+004,-1.13473830557513e+001,-3.41487102123126e-001

1.97246540898671e+004,-1.13473826722040e+001,-3.46254093331107e-001

1.99999999999999e+004,-1.13473822778738e+001,-3.51087629634882e-001

2.02791895958005e+004,-1.13473818724578e+001,-3.55988639984691e-001

2.05622765331213e+004,-1.13473814556441e+001,-3.60958066300640e-001

2.08493152168224e+004,-1.13473810271124e+001,-3.65996863651639e-001

2.11403608112276e+004,-1.13473805865334e+001,-3.71106000438798e-001

2.14354692507258e+004,-1.13473801335682e+001,-3.76286458583529e-001

2.17346972505211e+004,-1.13473796678687e+001,-3.81539233714061e-001

2.20381023175322e+004,-1.13473791890768e+001,-3.86865335359430e-001

2.23457427614443e+004,-1.13473786968246e+001,-3.92265787140703e-001

2.26576777059159e+004,-1.13473781907336e+001,-3.97741626969150e-001

2.29739670999406e+004,-1.13473776704148e+001,-4.03293907246020e-001

2.32946717293690e+004,-1.13473771354681e+001,-4.08923695065145e-001

2.36198532285905e+004,-1.13473765854824e+001,-4.14632072416627e-001

2.39495740923785e+004,-1.13473760200349e+001,-4.20420136396319e-001

2.42838976879009e+004,-1.13473754386909e+001,-4.26288999414781e-001

2.46228882668982e+004,-1.13473748410035e+001,-4.32239789413413e-001

2.49666109780322e+004,-1.13473742265133e+001,-4.38273650081146e-001

2.53151318794055e+004,-1.13473735947479e+001,-4.44391741071664e-001

2.56685179512580e+004,-1.13473729452217e+001,-4.50595238229326e-001

2.60268371088386e+004,-1.13473722774353e+001,-4.56885333814090e-001

2.63901582154578e+004,-1.13473715908755e+001,-4.63263236729990e-001

2.67585510957221e+004,-1.13473708850144e+001,-4.69730172758382e-001

2.71320865489533e+004,-1.13473701593095e+001,-4.76287384794048e-001

2.75108363627948e+004,-1.13473694132030e+001,-4.82936133082612e-001

2.78948733270080e+004,-1.13473686461213e+001,-4.89677695464889e-001

2.82842712474618e+004,-1.13473678574746e+001,-4.96513367621254e-001

2.86791049603164e+004,-1.13473670466569e+001,-5.03444463320141e-001

2.90794503464061e+004,-1.13473662130448e+001,-5.10472314671638e-001

2.94853843458219e+004,-1.13473653559976e+001,-5.17598272384254e-001

2.98969849726987e+004,-1.13473644748565e+001,-5.24823706022691e-001

3.03143313302078e+004,-1.13473635689441e+001,-5.32150004273316e-001

3.07375036257601e+004,-1.13473626375641e+001,-5.39578575209120e-001

3.11665831864199e+004,-1.13473616800005e+001,-5.47110846562364e-001

3.16016524745350e+004,-1.13473606955172e+001,-5.54748265997713e-001

3.20427951035848e+004,-1.13473596833577e+001,-5.62492301390311e-001

3.24900958542493e+004,-1.13473586427437e+001,-5.70344441110300e-001

3.29436406907028e+004,-1.13473575728755e+001,-5.78306194305903e-001

3.34035167771346e+004,-1.13473564729306e+001,-5.86379091197173e-001

3.38698124945009e+004,-1.13473553420636e+001,-5.94564683365987e-001

3.43426174575100e+004,-1.13473541794053e+001,-6.02864544058240e-001

3.48220225318448e+004,-1.13473529840618e+001,-6.11280268484787e-001

3.53081198516260e+004,-1.13473517551145e+001,-6.19813474127279e-001

3.58010028371187e+004,-1.13473504916187e+001,-6.28465801050819e-001

3.63007662126863e+004,-1.13473491926032e+001,-6.37238912219047e-001

3.68075060249948e+004,-1.13473478570696e+001,-6.46134493812858e-001

3.73213196614721e+004,-1.13473464839913e+001,-6.55154255555803e-001

3.78423058690237e+004,-1.13473450723128e+001,-6.64299931042647e-001

3.83705647730104e+004,-1.13473436209492e+001,-6.73573278072768e-001

3.89061978964912e+004,-1.13473421287849e+001,-6.82976078987605e-001

3.94493081797342e+004,-1.13473405946730e+001,-6.92510141014055e-001

3.99999999999998e+004,-1.13473390174342e+001,-7.02177296612869e-001

4.05583791916010e+004,-1.13473373958565e+001,-7.11979403828665e-001

4.11245530662425e+004,-1.13473357286932e+001,-7.21918346650993e-001

4.16986304336447e+004,-1.13473340146633e+001,-7.31996035372209e-001

4.22807216224550e+004,-1.13473322524490e+001,-7.42214406959088e-001

4.28709385014515e+004,-1.13473304406961e+001,-7.52575425423030e-001

4.34693945010421e+004,-1.13473285780120e+001,-7.63081082197975e-001

4.40762046350642e+004,-1.13473266629652e+001,-7.73733396524534e-001

4.46914855228886e+004,-1.13473246940838e+001,-7.84534415838062e-001

4.53153554118317e+004,-1.13473226698544e+001,-7.95486216161901e-001

4.59479341998812e+004,-1.13473205887214e+001,-8.06590902507073e-001

4.65893434587380e+004,-1.13473184490852e+001,-8.17850609277911e-001

4.72397064571810e+004,-1.13473162493016e+001,-8.29267500681550e-001

4.78991481847569e+004,-1.13473139876797e+001,-8.40843771145741e-001

4.85677953758016e+004,-1.13473116624815e+001,-8.52581645739724e-001

4.92457765337964e+004,-1.13473092719198e+001,-8.64483380603445e-001

4.99332219560642e+004,-1.13473068141576e+001,-8.76551263380205e-001

5.06302637588109e+004,-1.13473042873059e+001,-8.88787613659004e-001

5.13370359025159e+004,-1.13473016894229e+001,-9.01194783418330e-001

5.20536742176771e+004,-1.13472990185120e+001,-9.13775157481259e-001

5.27803164309155e+004,-1.13472962725205e+001,-9.26531153973115e-001

5.35171021914442e+004,-1.13472934493383e+001,-9.39465224786371e-001

5.42641730979066e+004,-1.13472905467958e+001,-9.52579856054343e-001

5.50216727255895e+004,-1.13472875626623e+001,-9.65877568626826e-001

5.57897466540159e+004,-1.13472844946447e+001,-9.79360918558738e-001

5.65685424949235e+004,-1.13472813403854e+001,-9.93032497599326e-001

5.73582099206328e+004,-1.13472780974603e+001,-1.00689493369262e+000

5.81589006928121e+004,-1.13472747633774e+001,-1.02095089148264e+000

5.89707686916437e+004,-1.13472713355749e+001,-1.03520307282611e+000

5.97939699453972e+004,-1.13472678114187e+001,-1.04965421731362e+000

6.06286626604156e+004,-1.13472641882006e+001,-1.06430710279641e+000

6.14750072515201e+004,-1.13472604631367e+001,-1.07916454592094e+000

6.23331663728396e+004,-1.13472566333645e+001,-1.09422940267241e+000

6.32033049490698e+004,-1.13472526959413e+001,-1.10950456892279e+000

6.40855902071694e+004,-1.13472486478418e+001,-1.12499298099032e+000

6.49801917084985e+004,-1.13472444859555e+001,-1.14069761620380e+000

6.58872813814055e+004,-1.13472402070846e+001,-1.15662149347675e+000

6.68070335542691e+004,-1.13472358079414e+001,-1.17276767388875e+000

6.77396249890018e+004,-1.13472312851459e+001,-1.18913926127406e+000

6.86852349150199e+004,-1.13472266352233e+001,-1.20573940282095e+000

6.96440450636895e+004,-1.13472218546011e+001,-1.22257128967684e+000

7.06162397032520e+004,-1.13472169396062e+001,-1.23963815756372e+000

7.16020056742374e+004,-1.13472118864625e+001,-1.25694328740148e+000

7.26015324253724e+004,-1.13472066912881e+001,-1.27449000593984e+000

7.36150120499896e+004,-1.13472013500916e+001,-1.29228168639985e+000

7.46426393229441e+004,-1.13471958587697e+001,-1.31032174912293e+000

7.56846117380472e+004,-1.13471902131040e+001,-1.32861366223075e+000

7.67411295460207e+004,-1.13471844087575e+001,-1.34716094229385e+000

7.78123957929823e+004,-1.13471784412712e+001,-1.36596715501006e+000

7.88986163594682e+004,-1.13471723060612e+001,-1.38503591588899e+000

7.99999999999995e+004,-1.13471659984146e+001,-1.40437089095301e+000

8.11167583832018e+004,-1.13471595134864e+001,-1.42397579744123e+000

8.22491061324848e+004,-1.13471528462954e+001,-1.44385440452667e+000

8.33972608672892e+004,-1.13471459917204e+001,-1.46401053404425e+000

8.45614432449099e+004,-1.13471389444966e+001,-1.48444806122697e+000

8.57418770029029e+004,-1.13471316992114e+001,-1.50517091545358e+000

8.69387890020841e+004,-1.13471242503000e+001,-1.52618308100610e+000

8.81524092701283e+004,-1.13471165920415e+001,-1.54748859783866e+000

8.93829710457770e+004,-1.13471087185544e+001,-1.56909156235795e+000

9.06307108236633e+004,-1.13471006237920e+001,-1.59099612821180e+000

9.18958683997622e+004,-1.13470923015379e+001,-1.61320650709179e+000

9.31786869174758e+004,-1.13470837454012e+001,-1.63572696954629e+000

9.44794129143618e+004,-1.13470749488115e+001,-1.65856184580404e+000

9.57982963695136e+004,-1.13470659050141e+001,-1.68171552661081e+000

9.71355907516031e+004,-1.13470566070646e+001,-1.70519246407649e+000

9.84915530675926e+004,-1.13470470478238e+001,-1.72899717253492e+000

9.98664439121282e+004,-1.13470372199520e+001,-1.75313422941619e+000

1.01260527517622e+005,-1.13470271159035e+001,-1.77760827612973e+000

1.02674071805032e+005,-1.13470167279209e+001,-1.80242401896235e+000

1.04107348435354e+005,-1.13470060480293e+001,-1.82758622998550e+000

1.05560632861831e+005,-1.13469950680296e+001,-1.85309974797909e+000

1.07034204382888e+005,-1.13469837794929e+001,-1.87896947936610e+000

1.08528346195813e+005,-1.13469721737538e+001,-1.90520039916072e+000

1.10043345451179e+005,-1.13469602419037e+001,-1.93179755192968e+000

1.11579493308032e+005,-1.13469479747842e+001,-1.95876605276881e+000

1.13137084989847e+005,-1.13469353629798e+001,-1.98611108829116e+000

1.14716419841265e+005,-1.13469223968109e+001,-2.01383791763063e+000

1.16317801385624e+005,-1.13469090663267e+001,-2.04195187345895e+000

1.17941537383287e+005,-1.13468953612968e+001,-2.07045836301814e+000

1.19587939890794e+005,-1.13468812712042e+001,-2.09936286916602e+000

1.21257325320831e+005,-1.13468667852369e+001,-2.12867095143865e+000

1.22950014503040e+005,-1.13468518922798e+001,-2.15838824712501e+000

1.24666332745679e+005,-1.13468365809060e+001,-2.18852047236030e+000

1.26406609898139e+005,-1.13468208393681e+001,-2.21907342323172e+000

1.28171180414339e+005,-1.13468046555896e+001,-2.25005297690250e+000

1.29960383416997e+005,-1.13467880171553e+001,-2.28146509274895e+000

1.31774562762811e+005,-1.13467709113021e+001,-2.31331581351725e+000

1.33614067108538e+005,-1.13467533249090e+001,-2.34561126649347e+000

1.35479249978003e+005,-1.13467352444875e+001,-2.37835766469244e+000

1.37370469830040e+005,-1.13467166561707e+001,-2.41156130806269e+000

1.39288090127379e+005,-1.13466975457034e+001,-2.44522858470810e+000

1.41232479406504e+005,-1.13466778984311e+001,-2.47936597212756e+000

1.43204011348474e+005,-1.13466576992885e+001,-2.51398003847301e+000

1.45203064850745e+005,-1.13466369327883e+001,-2.54907744382402e+000

1.47230024099979e+005,-1.13466155830094e+001,-2.58466494148093e+000

1.49285278645888e+005,-1.13465936335849e+001,-2.62074937927705e+000

1.51369223476094e+005,-1.13465710676893e+001,-2.65733770091041e+000

1.53482259092041e+005,-1.13465478680262e+001,-2.69443694729121e+000

1.55624791585964e+005,-1.13465240168147e+001,-2.73205425791317e+000

1.57797232718936e+005,-1.13464994957762e+001,-2.77019687224063e+000

1.59999999999999e+005,-1.13464742861207e+001,-2.80887213111792e+000

1.62233516766403e+005,-1.13464483685318e+001,-2.84808747819784e+000

1.64498212264969e+005,-1.13464217231528e+001,-2.88785046139131e+000

1.66794521734578e+005,-1.13463943295714e+001,-2.92816873433690e+000

1.69122886489819e+005,-1.13463661668041e+001,-2.96905005789334e+000

1.71483754005805e+005,-1.13463372132805e+001,-3.01050230165024e+000

1.73877578004168e+005,-1.13463074468268e+001,-3.05253344546500e+000

1.76304818540256e+005,-1.13462768446490e+001,-3.09515158101821e+000

1.78765942091554e+005,-1.13462453833159e+001,-3.13836491339236e+000

1.81261421647326e+005,-1.13462130387412e+001,-3.18218176267529e+000

1.83791736799524e+005,-1.13461797861651e+001,-3.22661056558434e+000

1.86357373834951e+005,-1.13461456001360e+001,-3.27165987711479e+000

1.88958825828723e+005,-1.13461104544911e+001,-3.31733837221319e+000

1.91596592739027e+005,-1.13460743223364e+001,-3.36365484747371e+000

1.94271181503206e+005,-1.13460371760269e+001,-3.41061822286008e+000

1.96983106135185e+005,-1.13459989871452e+001,-3.45823754345084e+000

1.99732887824256e+005,-1.13459597264807e+001,-3.50652198121273e+000

2.02521055035243e+005,-1.13459193640070e+001,-3.55548083679729e+000

2.05348143610063e+005,-1.13458778688597e+001,-3.60512354136485e+000

2.08214696870707e+005,-1.13458352093130e+001,-3.65545965843610e+000

2.11121265723661e+005,-1.13457913527559e+001,-3.70649888576783e+000

2.14068408765776e+005,-1.13457462656676e+001,-3.75825105725956e+000

2.17056692391625e+005,-1.13456999135926e+001,-3.81072614488579e+000

2.20086690902357e+005,-1.13456522611146e+001,-3.86393426065663e+000

2.23158986616063e+005,-1.13456032718300e+001,-3.91788565860947e+000

2.26274169979693e+005,-1.13455529083205e+001,-3.97259073682688e+000

2.29432839682530e+005,-1.13455011321253e+001,-4.02806003948625e+000

2.32635602771247e+005,-1.13454479037124e+001,-4.08430425893966e+000

2.35883074766574e+005,-1.13453931824486e+001,-4.14133423782267e+000

2.39175879781588e+005,-1.13453369265696e+001,-4.19916097119688e+000

2.42514650641661e+005,-1.13452790931486e+001,-4.25779560872196e+000

2.45900029006080e+005,-1.13452196380644e+001,-4.31724945686089e+000

2.49332665491357e+005,-1.13451585159683e+001,-4.37753398111863e+000

2.52813219796278e+005,-1.13450956802507e+001,-4.43866080831300e+000

2.56342360828676e+005,-1.13450310830060e+001,-4.50064172887984e+000

2.59920766833993e+005,-1.13449646749975e+001,-4.56348869921234e+000

2.63549125525621e+005,-1.13448964056204e+001,-4.62721384403559e+000

2.67228134217075e+005,-1.13448262228645e+001,-4.69182945881789e+000

2.70958499956006e+005,-1.13447540732758e+001,-4.75734801221532e+000

2.74740939660078e+005,-1.13446799019164e+001,-4.82378214855623e+000

2.78576180254757e+005,-1.13446036523247e+001,-4.89114469036117e+000

2.82464958813007e+005,-1.13445252664729e+001,-4.95944864090192e+000

2.86408022696948e+005,-1.13444446847248e+001,-5.02870718679854e+000

2.90406129701488e+005,-1.13443618457917e+001,-5.09893370065625e+000

2.94460048199957e+005,-1.13442766866871e+001,-5.17014174374218e+000

2.98570557291775e+005,-1.13441891426806e+001,-5.24234506870282e+000

3.02738446952187e+005,-1.13440991472504e+001,-5.31555762232343e+000

3.06964518184081e+005,-1.13440066320348e+001,-5.38979354832855e+000

3.11249583171928e+005,-1.13439115267814e+001,-5.46506719022697e+000

3.15594465437872e+005,-1.13438137592969e+001,-5.54139309419881e+000

3.19999999999997e+005,-1.13437132553933e+001,-5.61878601202832e+000

3.24467033532806e+005,-1.13436099388345e+001,-5.69726090408162e+000

3.28996424529938e+005,-1.13435037312810e+001,-5.77683294232919e+000

3.33589043469155e+005,-1.13433945522324e+001,-5.85751751341805e+000

3.38245772979638e+005,-1.13432823189694e+001,-5.93933022178896e+000

3.42967508011610e+005,-1.13431669464941e+001,-6.02228689284371e+000

3.47755156008335e+005,-1.13430483474682e+001,-6.10640357616191e+000

3.52609637080511e+005,-1.13429264321504e+001,-6.19169654876704e+000

3.57531884183106e+005,-1.13428011083316e+001,-6.27818231844541e+000

3.62522843294651e+005,-1.13426722812686e+001,-6.36587762711696e+000

3.67583473599047e+005,-1.13425398536162e+001,-6.45479945425820e+000

3.72714747669902e+005,-1.13424037253581e+001,-6.54496502038125e+000

3.77917651657445e+005,-1.13422637937344e+001,-6.63639179056737e+000

3.83193185478053e+005,-1.13421199531696e+001,-6.72909747805606e+000

3.88542363006410e+005,-1.13419720951968e+001,-6.82310004789325e+000

3.93966212270369e+005,-1.13418201083810e+001,-6.91841772063687e+000

3.99465775648511e+005,-1.13416638782404e+001,-7.01506897612281e+000

4.05042110070485e+005,-1.13415032871654e+001,-7.11307255729104e+000

4.10696287220124e+005,-1.13413382143361e+001,-7.21244747407447e+000

4.16429393741414e+005,-1.13411685356375e+001,-7.31321300735057e+000

4.22242531447321e+005,-1.13409941235723e+001,-7.41538871295814e+000

4.28136817531551e+005,-1.13408148471723e+001,-7.51899442577933e+000

4.34113384783250e+005,-1.13406305719070e+001,-7.62405026388844e+000

4.40173381804713e+005,-1.13404411595904e+001,-7.73057663277096e+000

4.46317973232124e+005,-1.13402464682855e+001,-7.83859422961003e+000

4.52548339959385e+005,-1.13400463522063e+001,-7.94812404764658e+000

4.58865679365059e+005,-1.13398406616178e+001,-8.05918738061022e+000

4.65271205542494e+005,-1.13396292427332e+001,-8.17180582722567e+000

4.71766149533147e+005,-1.13394119376093e+001,-8.28600129579519e+000

4.78351759563174e+005,-1.13391885840390e+001,-8.40179600885690e+000

4.85029301283321e+005,-1.13389590154415e+001,-8.51921250792373e+000

4.91800058012158e+005,-1.13387230607497e+001,-8.63827365830245e+000

4.98665330982714e+005,-1.13384805442958e+001,-8.75900265399488e+000

5.05626439592555e+005,-1.13382312856932e+001,-8.88142302268359e+000

5.12684721657352e+005,-1.13379750997168e+001,-9.00555863080380e+000

5.19841533667984e+005,-1.13377117961799e+001,-9.13143368870238e+000

5.27098251051240e+005,-1.13374411798091e+001,-9.25907275588767e+000

5.34456268434150e+005,-1.13371630501155e+001,-9.38850074636990e+000

5.41916999912011e+005,-1.13368772012639e+001,-9.51974293409626e+000

