Freq.,VOut,OutRef

1.00000000000000e+004,-1.16100635577621e+001,-8.64628658434449e-002

1.01395947979003e+004,-1.16100635372015e+001,-8.76698426007817e-002

1.02811382665607e+004,-1.16100635160632e+001,-8.88936681289435e-002

1.04246576084112e+004,-1.16100634943302e+001,-9.01345776330734e-002

1.05701804056138e+004,-1.16100634719866e+001,-9.13928095917538e-002

1.07177346253629e+004,-1.16100634490146e+001,-9.26686058219494e-002

1.08673486252606e+004,-1.16100634253971e+001,-9.39622115083798e-002

1.10190511587661e+004,-1.16100634011153e+001,-9.52738752654703e-002

1.11728713807222e+004,-1.16100633761509e+001,-9.66038491729598e-002

1.13288388529580e+004,-1.16100633504847e+001,-9.79523888317572e-002

1.14869835499703e+004,-1.16100633240969e+001,-9.93197534096363e-002

1.16473358646846e+004,-1.16100632969673e+001,-1.00706205693751e-001

1.18099266142953e+004,-1.16100632690749e+001,-1.02112012139754e-001

1.19747870461893e+004,-1.16100632403985e+001,-1.03537442919308e-001

1.21419488439505e+004,-1.16100632109158e+001,-1.04982771980748e-001

1.23114441334492e+004,-1.16100631806041e+001,-1.06448277093895e-001

1.24833054890161e+004,-1.16100631494403e+001,-1.07934239905288e-001

1.26575659397028e+004,-1.16100631174005e+001,-1.09440945994377e-001

1.28342589756290e+004,-1.16100630844598e+001,-1.10968684927670e-001

1.30134185544193e+004,-1.16100630505930e+001,-1.12517750313034e-001

1.31950791077289e+004,-1.16100630157742e+001,-1.14088439856359e-001

1.33792755478611e+004,-1.16100629799765e+001,-1.15681055420067e-001

1.35660432744767e+004,-1.16100629431723e+001,-1.17295903081868e-001

1.37554181813974e+004,-1.16100629053335e+001,-1.18933293189162e-001

1.39474366635040e+004,-1.16100628664308e+001,-1.20593540424826e-001

1.41421356237309e+004,-1.16100628264345e+001,-1.22276963861454e-001

1.43395524801583e+004,-1.16100627853137e+001,-1.23983887029161e-001

1.45397251732031e+004,-1.16100627430367e+001,-1.25714637972231e-001

1.47426921729110e+004,-1.16100626995714e+001,-1.27469549312462e-001

1.49484924863494e+004,-1.16100626548840e+001,-1.29248958319879e-001

1.51571656651040e+004,-1.16100626089402e+001,-1.31053206968698e-001

1.53687518128801e+004,-1.16100625617049e+001,-1.32882642007655e-001

1.55832915932100e+004,-1.16100625131415e+001,-1.34737615027900e-001

1.58008262372675e+004,-1.16100624632129e+001,-1.36618482525146e-001

1.60213975517924e+004,-1.16100624118804e+001,-1.38525605976417e-001

1.62450479271247e+004,-1.16100623591051e+001,-1.40459351898096e-001

1.64718203453514e+004,-1.16100623048459e+001,-1.42420091930839e-001

1.67017583885674e+004,-1.16100622490613e+001,-1.44408202897147e-001

1.69349062472505e+004,-1.16100621917083e+001,-1.46424066883144e-001

1.71713087287550e+004,-1.16100621327431e+001,-1.48468071305908e-001

1.74110112659224e+004,-1.16100620721200e+001,-1.50540608994112e-001

1.76540599258131e+004,-1.16100620097925e+001,-1.52642078258484e-001

1.79005014185594e+004,-1.16100619457129e+001,-1.54772882968258e-001

1.81503831063432e+004,-1.16100618798318e+001,-1.56933432633101e-001

1.84037530124975e+004,-1.16100618120983e+001,-1.59124142479447e-001

1.86606598307361e+004,-1.16100617424608e+001,-1.61345433527178e-001

1.89211529345119e+004,-1.16100616708653e+001,-1.63597732677300e-001

1.91852823865052e+004,-1.16100615972573e+001,-1.65881472785667e-001

1.94530989482457e+004,-1.16100615215796e+001,-1.68197092756139e-001

1.97246540898671e+004,-1.16100614437746e+001,-1.70545037614031e-001

1.99999999999999e+004,-1.16100613637820e+001,-1.72925758601425e-001

2.02791895958005e+004,-1.16100612815406e+001,-1.75339713256899e-001

2.05622765331213e+004,-1.16100611969870e+001,-1.77787365507339e-001

2.08493152168224e+004,-1.16100611100565e+001,-1.80269185753484e-001

2.11403608112276e+004,-1.16100610206818e+001,-1.82785650968413e-001

2.14354692507258e+004,-1.16100609287946e+001,-1.85337244776719e-001

2.17346972505211e+004,-1.16100608343241e+001,-1.87924457558893e-001

2.20381023175322e+004,-1.16100607371977e+001,-1.90547786538920e-001

2.23457427614443e+004,-1.16100606373407e+001,-1.93207735883301e-001

2.26576777059159e+004,-1.16100605346763e+001,-1.95904816794338e-001

2.29739670999406e+004,-1.16100604291257e+001,-1.98639547612248e-001

2.32946717293690e+004,-1.16100603206076e+001,-2.01412453913374e-001

2.36198532285905e+004,-1.16100602090388e+001,-2.04224068609285e-001

2.39495740923785e+004,-1.16100600943334e+001,-2.07074932052073e-001

2.42838976879009e+004,-1.16100599764032e+001,-2.09965592137445e-001

2.46228882668982e+004,-1.16100598551574e+001,-2.12896604408831e-001

2.49666109780322e+004,-1.16100597305031e+001,-2.15868532163921e-001

2.53151318794055e+004,-1.16100596023442e+001,-2.18881946566435e-001

2.56685179512580e+004,-1.16100594705824e+001,-2.21937426749893e-001

2.60268371088386e+004,-1.16100593351162e+001,-2.25035559935890e-001

2.63901582154578e+004,-1.16100591958416e+001,-2.28176941541043e-001

2.67585510957221e+004,-1.16100590526515e+001,-2.31362175295113e-001

2.71320865489533e+004,-1.16100589054358e+001,-2.34591873355255e-001

2.75108363627948e+004,-1.16100587540813e+001,-2.37866656424221e-001

2.78948733270080e+004,-1.16100585984717e+001,-2.41187153869880e-001

2.82842712474618e+004,-1.16100584384875e+001,-2.44554003844703e-001

2.86791049603164e+004,-1.16100582740054e+001,-2.47967853412035e-001

2.90794503464061e+004,-1.16100581048992e+001,-2.51429358666677e-001

2.94853843458219e+004,-1.16100579310387e+001,-2.54939184862394e-001

2.98969849726987e+004,-1.16100577522905e+001,-2.58498006538276e-001

3.03143313302078e+004,-1.16100575685171e+001,-2.62106507653045e-001

3.07375036257601e+004,-1.16100573795770e+001,-2.65765381711714e-001

3.11665831864199e+004,-1.16100571853253e+001,-2.69475331900020e-001

3.16016524745350e+004,-1.16100569856124e+001,-2.73237071220671e-001

3.20427951035848e+004,-1.16100567802849e+001,-2.77051322629386e-001

3.24900958542493e+004,-1.16100565691849e+001,-2.80918819175568e-001

3.29436406907028e+004,-1.16100563521503e+001,-2.84840304138853e-001

3.34035167771346e+004,-1.16100561290140e+001,-2.88816531179402e-001

3.38698124945009e+004,-1.16100558996045e+001,-2.92848264475572e-001

3.43426174575100e+004,-1.16100556637456e+001,-2.96936278873174e-001

3.48220225318448e+004,-1.16100554212559e+001,-3.01081360035536e-001

3.53081198516260e+004,-1.16100551719489e+001,-3.05284304595525e-001

3.58010028371187e+004,-1.16100549156331e+001,-3.09545920304079e-001

3.63007662126863e+004,-1.16100546521114e+001,-3.13867026189428e-001

3.68075060249948e+004,-1.16100543811812e+001,-3.18248452714832e-001

3.73213196614721e+004,-1.16100541026342e+001,-3.22691041934819e-001

3.78423058690237e+004,-1.16100538162563e+001,-3.27195647660254e-001

3.83705647730104e+004,-1.16100535218274e+001,-3.31763135620196e-001

3.89061978964912e+004,-1.16100532191211e+001,-3.36394383630318e-001

3.94493081797342e+004,-1.16100529079047e+001,-3.41090281760315e-001

3.99999999999998e+004,-1.16100525879390e+001,-3.45851732504672e-001

4.05583791916010e+004,-1.16100522589780e+001,-3.50679650958432e-001

4.11245530662425e+004,-1.16100519207689e+001,-3.55574964989256e-001

4.16986304336447e+004,-1.16100515730516e+001,-3.60538615419785e-001

4.22807216224550e+004,-1.16100512155588e+001,-3.65571556206066e-001

4.28709385014515e+004,-1.16100508480156e+001,-3.70674754621542e-001

4.34693945010421e+004,-1.16100504701398e+001,-3.75849191441689e-001

4.40762046350642e+004,-1.16100500816405e+001,-3.81095861136806e-001

4.46914855228886e+004,-1.16100496822194e+001,-3.86415772056688e-001

4.53153554118317e+004,-1.16100492715693e+001,-3.91809946630700e-001

4.59479341998812e+004,-1.16100488493745e+001,-3.97279421560707e-001

4.65893434587380e+004,-1.16100484153105e+001,-4.02825248020380e-001

4.72397064571810e+004,-1.16100479690436e+001,-4.08448491859264e-001

4.78991481847569e+004,-1.16100475102308e+001,-4.14150233805386e-001

4.85677953758016e+004,-1.16100470385193e+001,-4.19931569676219e-001

4.92457765337964e+004,-1.16100465535466e+001,-4.25793610584497e-001

4.99332219560642e+004,-1.16100460549398e+001,-4.31737483157111e-001

5.06302637588109e+004,-1.16100455423157e+001,-4.37764329746393e-001

5.13370359025159e+004,-1.16100450152803e+001,-4.43875308655083e-001

5.20536742176771e+004,-1.16100444734282e+001,-4.50071594355402e-001

5.27803164309155e+004,-1.16100439163432e+001,-4.56354377714956e-001

5.35171021914442e+004,-1.16100433435968e+001,-4.62724866228157e-001

5.42641730979066e+004,-1.16100427547489e+001,-4.69184284244641e-001

5.50216727255895e+004,-1.16100421493469e+001,-4.75733873208972e-001

5.57897466540159e+004,-1.16100415269252e+001,-4.82374891896043e-001

5.65685424949235e+004,-1.16100408870056e+001,-4.89108616652973e-001

5.73582099206328e+004,-1.16100402290960e+001,-4.95936341647996e-001

5.81589006928121e+004,-1.16100395526908e+001,-5.02859379114621e-001

5.89707686916437e+004,-1.16100388572701e+001,-5.09879059607689e-001

5.97939699453972e+004,-1.16100381422992e+001,-5.16996732256748e-001

6.06286626604156e+004,-1.16100374072285e+001,-5.24213765027371e-001

6.14750072515201e+004,-1.16100366514931e+001,-5.31531544981400e-001

6.23331663728396e+004,-1.16100358745121e+001,-5.38951478546400e-001

6.32033049490698e+004,-1.16100350756881e+001,-5.46474991786146e-001

6.40855902071694e+004,-1.16100342544072e+001,-5.54103530671573e-001

6.49801917084985e+004,-1.16100334100380e+001,-5.61838561362699e-001

6.58872813814055e+004,-1.16100325419317e+001,-5.69681570486940e-001

6.68070335542691e+004,-1.16100316494207e+001,-5.77634065428705e-001

6.77396249890018e+004,-1.16100307318192e+001,-5.85697574615450e-001

6.86852349150199e+004,-1.16100297884218e+001,-5.93873647814944e-001

6.96440450636895e+004,-1.16100288185034e+001,-6.02163856430846e-001

7.06162397032520e+004,-1.16100278213183e+001,-6.10569793805997e-001

7.16020056742374e+004,-1.16100267961003e+001,-6.19093075527818e-001

7.26015324253724e+004,-1.16100257420613e+001,-6.27735339740158e-001

7.36150120499896e+004,-1.16100246583909e+001,-6.36498247458911e-001

7.46426393229441e+004,-1.16100235442564e+001,-6.45383482888664e-001

7.56846117380472e+004,-1.16100223988014e+001,-6.54392753748569e-001

7.67411295460207e+004,-1.16100212211454e+001,-6.63527791601116e-001

7.78123957929823e+004,-1.16100200103833e+001,-6.72790352183705e-001

7.88986163594682e+004,-1.16100187655845e+001,-6.82182215747554e-001

7.99999999999995e+004,-1.16100174857922e+001,-6.91705187399217e-001

8.11167583832018e+004,-1.16100161700228e+001,-7.01361097447500e-001

8.22491061324848e+004,-1.16100148172649e+001,-7.11151801757010e-001

8.33972608672892e+004,-1.16100134264789e+001,-7.21079182103379e-001

8.45614432449099e+004,-1.16100119965957e+001,-7.31145146536219e-001

8.57418770029029e+004,-1.16100105265164e+001,-7.41351629745699e-001

8.69387890020841e+004,-1.16100090151113e+001,-7.51700593433590e-001

8.81524092701283e+004,-1.16100074612184e+001,-7.62194026694220e-001

8.93829710457770e+004,-1.16100058636438e+001,-7.72833946391493e-001

9.06307108236633e+004,-1.16100042211594e+001,-7.83622397552578e-001

9.18958683997622e+004,-1.16100025325029e+001,-7.94561453756655e-001

9.31786869174758e+004,-1.16100007963767e+001,-8.05653217536126e-001

9.44794129143618e+004,-1.16099990114462e+001,-8.16899820782065e-001

9.57982963695136e+004,-1.16099971763398e+001,-8.28303425150746e-001

9.71355907516031e+004,-1.16099952896472e+001,-8.39866222483381e-001

9.84915530675926e+004,-1.16099933499183e+001,-8.51590435224554e-001

9.98664439121282e+004,-1.16099913556624e+001,-8.63478316853204e-001

1.01260527517622e+005,-1.16099893053469e+001,-8.75532152312449e-001

1.02674071805032e+005,-1.16099871973963e+001,-8.87754258451366e-001

1.04107348435354e+005,-1.16099850301905e+001,-9.00146984471454e-001

1.05560632861831e+005,-1.16099828020640e+001,-9.12712712376717e-001

1.07034204382888e+005,-1.16099805113045e+001,-9.25453857432921e-001

1.08528346195813e+005,-1.16099781561518e+001,-9.38372868631965e-001

1.10043345451179e+005,-1.16099757347958e+001,-9.51472229164509e-001

1.11579493308032e+005,-1.16099732453761e+001,-9.64754456895859e-001

1.13137084989847e+005,-1.16099706859795e+001,-9.78222104851530e-001

1.14716419841265e+005,-1.16099680546394e+001,-9.91877761708575e-001

1.16317801385624e+005,-1.16099653493337e+001,-1.00572405229411e+000

1.17941537383287e+005,-1.16099625679836e+001,-1.01976363808945e+000

1.19587939890794e+005,-1.16099597084520e+001,-1.03399921774313e+000

1.21257325320831e+005,-1.16099567685416e+001,-1.04843352759035e+000

1.22950014503040e+005,-1.16099537459934e+001,-1.06306934217915e+000

1.24666332745679e+005,-1.16099506384849e+001,-1.07790947480563e+000

1.26406609898139e+005,-1.16099474436286e+001,-1.09295677805401e+000

1.28171180414339e+005,-1.16099441589695e+001,-1.10821414434692e+000

1.29960383416997e+005,-1.16099407819839e+001,-1.12368450650205e+000

1.31774562762811e+005,-1.16099373100773e+001,-1.13937083829631e+000

1.33614067108538e+005,-1.16099337405822e+001,-1.15527615503849e+000

1.35479249978003e+005,-1.16099300707560e+001,-1.17140351415118e+000

1.37370469830040e+005,-1.16099262977793e+001,-1.18775601575741e+000

1.39288090127379e+005,-1.16099224187534e+001,-1.20433680327954e+000

1.41232479406504e+005,-1.16099184306982e+001,-1.22114906404260e+000

1.43204011348474e+005,-1.16099143305500e+001,-1.23819602989109e+000

1.45203064850745e+005,-1.16099101151587e+001,-1.25548097780865e+000

1.47230024099979e+005,-1.16099057812862e+001,-1.27300723054996e+000

1.49285278645888e+005,-1.16099013256031e+001,-1.29077815728243e+000

1.51369223476094e+005,-1.16098967446866e+001,-1.30879717423277e+000

1.53482259092041e+005,-1.16098920350179e+001,-1.32706774534772e+000

1.55624791585964e+005,-1.16098871929791e+001,-1.34559338295893e+000

1.57797232718936e+005,-1.16098822148510e+001,-1.36437764846170e+000

1.59999999999999e+005,-1.16098770968099e+001,-1.38342415299993e+000

1.62233516766403e+005,-1.16098718349245e+001,-1.40273655816289e+000

1.64498212264969e+005,-1.16098664251533e+001,-1.42231857669089e+000

1.66794521734578e+005,-1.16098608633413e+001,-1.44217397319023e+000

1.69122886489819e+005,-1.16098551452168e+001,-1.46230656485945e+000

1.71483754005805e+005,-1.16098492663882e+001,-1.48272022222487e+000

1.73877578004168e+005,-1.16098432223406e+001,-1.50341886988650e+000

1.76304818540256e+005,-1.16098370084323e+001,-1.52440648727578e+000

1.78765942091554e+005,-1.16098306198914e+001,-1.54568710942214e+000

1.81261421647326e+005,-1.16098240518119e+001,-1.56726482773089e+000

1.83791736799524e+005,-1.16098172991501e+001,-1.58914379077322e+000

1.86357373834951e+005,-1.16098103567209e+001,-1.61132820508516e+000

1.88958825828723e+005,-1.16098032191934e+001,-1.63382233598039e+000

1.91596592739027e+005,-1.16097958810873e+001,-1.65663050837178e+000

1.94271181503206e+005,-1.16097883367683e+001,-1.67975710760673e+000

1.96983106135185e+005,-1.16097805804441e+001,-1.70320658031354e+000

1.99732887824256e+005,-1.16097726061598e+001,-1.72698343525860e+000

2.02521055035243e+005,-1.16097644077935e+001,-1.75109224421691e+000

2.05348143610063e+005,-1.16097559790512e+001,-1.77553764285571e+000

2.08214696870707e+005,-1.16097473134627e+001,-1.80032433162758e+000

2.11121265723661e+005,-1.16097384043761e+001,-1.82545707667930e+000

2.14068408765776e+005,-1.16097292449526e+001,-1.85094071077196e+000

2.17056692391625e+005,-1.16097198281621e+001,-1.87678013421385e+000

2.20086690902357e+005,-1.16097101467766e+001,-1.90298031580793e+000

2.23158986616063e+005,-1.16097001933661e+001,-1.92954629381027e+000

2.26274169979693e+005,-1.16096899602915e+001,-1.95648317690449e+000

2.29432839682530e+005,-1.16096794397000e+001,-1.98379614518929e+000

2.32635602771247e+005,-1.16096686235182e+001,-2.01149045117856e+000

2.35883074766574e+005,-1.16096575034463e+001,-2.03957142081788e+000

2.39175879781588e+005,-1.16096460709521e+001,-2.06804445451274e+000

2.42514650641661e+005,-1.16096343172637e+001,-2.09691502817405e+000

2.45900029006080e+005,-1.16096222333635e+001,-2.12618869427681e+000

2.49332665491357e+005,-1.16096098099812e+001,-2.15587108293338e+000

2.52813219796278e+005,-1.16095970375863e+001,-2.18596790298412e+000

2.56342360828676e+005,-1.16095839063816e+001,-2.21648494310061e+000

2.59920766833993e+005,-1.16095704062947e+001,-2.24742807290711e+000

2.63549125525621e+005,-1.16095565269716e+001,-2.27880324411564e+000

2.67228134217075e+005,-1.16095422577674e+001,-2.31061649168012e+000

2.70958499956006e+005,-1.16095275877396e+001,-2.34287393496285e+000

2.74740939660078e+005,-1.16095125056386e+001,-2.37558177892144e+000

2.78576180254757e+005,-1.16094969998999e+001,-2.40874631530986e+000

2.82464958813007e+005,-1.16094810586350e+001,-2.44237392389905e+000

2.86408022696948e+005,-1.16094646696222e+001,-2.47647107371199e+000

2.90406129701488e+005,-1.16094478202980e+001,-2.51104432427834e+000

2.94460048199957e+005,-1.16094304977463e+001,-2.54610032690738e+000

2.98570557291775e+005,-1.16094126886901e+001,-2.58164582597668e+000

3.02738446952187e+005,-1.16093943794802e+001,-2.61768766024177e+000

3.06964518184081e+005,-1.16093755560853e+001,-2.65423276416293e+000

3.11249583171928e+005,-1.16093562040816e+001,-2.69128816925119e+000

3.15594465437872e+005,-1.16093363086414e+001,-2.72886100543343e+000

3.19999999999997e+005,-1.16093158545221e+001,-2.76695850243851e+000

3.24467033532806e+005,-1.16092948260545e+001,-2.80558799120034e+000

3.28996424529938e+005,-1.16092732071314e+001,-2.84475690528332e+000

3.33589043469155e+005,-1.16092509811944e+001,-2.88447278232801e+000

3.38245772979638e+005,-1.16092281312225e+001,-2.92474326551603e+000

3.42967508011610e+005,-1.16092046397184e+001,-2.96557610505768e+000

3.47755156008335e+005,-1.16091804886957e+001,-3.00697915969953e+000

3.52609637080511e+005,-1.16091556596652e+001,-3.04896039825476e+000

3.57531884183106e+005,-1.16091301336207e+001,-3.09152790115468e+000

3.62522843294651e+005,-1.16091038910249e+001,-3.13468986202341e+000

3.67583473599047e+005,-1.16090769117946e+001,-3.17845458927372e+000

3.72714747669902e+005,-1.16090491752854e+001,-3.22283050772763e+000

3.77917651657445e+005,-1.16090206602764e+001,-3.26782616025885e+000

3.83193185478053e+005,-1.16089913449539e+001,-3.31345020946083e+000

3.88542363006410e+005,-1.16089612068951e+001,-3.35971143933640e+000

3.93966212270369e+005,-1.16089302230512e+001,-3.40661875701317e+000

3.99465775648511e+005,-1.16088983697301e+001,-3.45418119448486e+000

4.05042110070485e+005,-1.16088656225786e+001,-3.50240791037566e+000

4.10696287220124e+005,-1.16088319565638e+001,-3.55130819173116e+000

4.16429393741414e+005,-1.16087973459548e+001,-3.60089145583560e+000

4.22242531447321e+005,-1.16087617643029e+001,-3.65116725205532e+000

4.28136817531551e+005,-1.16087251844220e+001,-3.70214526370847e+000

4.34113384783250e+005,-1.16086875783682e+001,-3.75383530996233e+000

4.40173381804713e+005,-1.16086489174188e+001,-3.80624734775896e+000

4.46317973232124e+005,-1.16086091720508e+001,-3.85939147376706e+000

4.52548339959385e+005,-1.16085683119190e+001,-3.91327792636511e+000

4.58865679365059e+005,-1.16085263058331e+001,-3.96791708764996e+000

4.65271205542494e+005,-1.16084831217343e+001,-4.02331948547866e+000

4.71766149533147e+005,-1.16084387266717e+001,-4.07949579553745e+000

4.78351759563174e+005,-1.16083930867776e+001,-4.13645684344173e+000

4.85029301283321e+005,-1.16083461672421e+001,-4.19421360686780e+000

4.91800058012158e+005,-1.16082979322873e+001,-4.25277721771523e+000

4.98665330982714e+005,-1.16082483451411e+001,-4.31215896430071e+000

5.05626439592555e+005,-1.16081973680090e+001,-4.37237029358554e+000

5.12684721657352e+005,-1.16081449620468e+001,-4.43342281343428e+000

5.19841533667984e+005,-1.16080910873315e+001,-4.49532829490922e+000

5.27098251051240e+005,-1.16080357028320e+001,-4.55809867459569e+000

5.34456268434150e+005,-1.16079787663780e+001,-4.62174605696532e+000

5.41916999912011e+005,-1.16079202346300e+001,-4.68628271677145e+000

