Freq.,VOut,OutRef

1.00000000000000e+004,-1.69644292686834e+001,-7.53824864095165e-002

1.01395947979003e+004,-1.69644293089186e+001,-7.64347865857134e-002

1.02811382665607e+004,-1.69644293502848e+001,-7.75017763204626e-002

1.04246576084112e+004,-1.69644293928140e+001,-7.85836606722193e-002

1.05701804056138e+004,-1.69644294365388e+001,-7.96806475607537e-002

1.07177346253629e+004,-1.69644294814930e+001,-8.07929478092395e-002

1.08673486252606e+004,-1.69644295277108e+001,-8.19207751862019e-002

1.10190511587661e+004,-1.69644295752282e+001,-8.30643464395170e-002

1.11728713807222e+004,-1.69644296240815e+001,-8.42238813456287e-002

1.13288388529580e+004,-1.69644296743082e+001,-8.53996027493560e-002

1.14869835499703e+004,-1.69644297259468e+001,-8.65917366060257e-002

1.16473358646846e+004,-1.69644297790372e+001,-8.78005120236270e-002

1.18099266142953e+004,-1.69644298336202e+001,-8.90261613095692e-002

1.19747870461893e+004,-1.69644298897380e+001,-9.02689200126549e-002

1.21419488439505e+004,-1.69644299474333e+001,-9.15290269735538e-002

1.23114441334492e+004,-1.69644300067505e+001,-9.28067243638108e-002

1.24833054890161e+004,-1.69644300677355e+001,-9.41022577352169e-002

1.26575659397028e+004,-1.69644301304349e+001,-9.54158760698193e-002

1.28342589756290e+004,-1.69644301948971e+001,-9.67478318232551e-002

1.30134185544193e+004,-1.69644302611715e+001,-9.80983809754524e-002

1.31950791077289e+004,-1.69644303293092e+001,-9.94677830808572e-002

1.33792755478611e+004,-1.69644303993627e+001,-1.00856301314945e-001

1.35660432744767e+004,-1.69644304713854e+001,-1.02264202530626e-001

1.37554181813974e+004,-1.69644305454329e+001,-1.03691757304153e-001

1.39474366635040e+004,-1.69644306215623e+001,-1.05139239985306e-001

1.41421356237309e+004,-1.69644306998320e+001,-1.06606928758848e-001

1.43395524801583e+004,-1.69644307803021e+001,-1.08095105690956e-001

1.45397251732031e+004,-1.69644308630344e+001,-1.09604056784819e-001

1.47426921729110e+004,-1.69644309480929e+001,-1.11134072034871e-001

1.49484924863494e+004,-1.69644310355424e+001,-1.12685445488035e-001

1.51571656651040e+004,-1.69644311254508e+001,-1.14258475289833e-001

1.53687518128801e+004,-1.69644312178866e+001,-1.15853463753209e-001

1.55832915932100e+004,-1.69644313129211e+001,-1.17470717409330e-001

1.58008262372675e+004,-1.69644314106274e+001,-1.19110547066312e-001

1.60213975517924e+004,-1.69644315110807e+001,-1.20773267872493e-001

1.62450479271247e+004,-1.69644316143582e+001,-1.22459199376110e-001

1.64718203453514e+004,-1.69644317205390e+001,-1.24168665586741e-001

1.67017583885674e+004,-1.69644318297052e+001,-1.25901995033921e-001

1.69349062472505e+004,-1.69644319419402e+001,-1.27659520836517e-001

1.71713087287550e+004,-1.69644320573308e+001,-1.29441580761100e-001

1.74110112659224e+004,-1.69644321759653e+001,-1.31248517291088e-001

1.76540599258131e+004,-1.69644322979351e+001,-1.33080677690033e-001

1.79005014185594e+004,-1.69644324233339e+001,-1.34938414067849e-001

1.81503831063432e+004,-1.69644325522583e+001,-1.36822083450964e-001

1.84037530124975e+004,-1.69644326848070e+001,-1.38732047850882e-001

1.86606598307361e+004,-1.69644328210824e+001,-1.40668674329213e-001

1.89211529345119e+004,-1.69644329611888e+001,-1.42632335075094e-001

1.91852823865052e+004,-1.69644331052342e+001,-1.44623407470294e-001

1.94530989482457e+004,-1.69644332533294e+001,-1.46642274165842e-001

1.97246540898671e+004,-1.69644334055879e+001,-1.48689323155631e-001

1.99999999999999e+004,-1.69644335621272e+001,-1.50764947845816e-001

2.02791895958005e+004,-1.69644337230672e+001,-1.52869547139575e-001

2.05622765331213e+004,-1.69644338885318e+001,-1.55003525504251e-001

2.08493152168224e+004,-1.69644340586485e+001,-1.57167293053772e-001

2.11403608112276e+004,-1.69644342335475e+001,-1.59361265630316e-001

2.14354692507258e+004,-1.69644344133638e+001,-1.61585864876281e-001

2.17346972505211e+004,-1.69644345982354e+001,-1.63841518322113e-001

2.20381023175322e+004,-1.69644347883043e+001,-1.66128659468459e-001

2.23457427614443e+004,-1.69644349837169e+001,-1.68447727862730e-001

2.26576777059159e+004,-1.69644351846232e+001,-1.70799169191750e-001

2.29739670999406e+004,-1.69644353911778e+001,-1.73183435361795e-001

2.32946717293690e+004,-1.69644356035394e+001,-1.75600984589042e-001

2.36198532285905e+004,-1.69644358218713e+001,-1.78052281484613e-001

2.39495740923785e+004,-1.69644360463412e+001,-1.80537797146900e-001

2.42838976879009e+004,-1.69644362771219e+001,-1.83058009247751e-001

2.46228882668982e+004,-1.69644365143908e+001,-1.85613402128779e-001

2.49666109780322e+004,-1.69644367583300e+001,-1.88204466894242e-001

2.53151318794055e+004,-1.69644370091274e+001,-1.90831701499591e-001

2.56685179512580e+004,-1.69644372669756e+001,-1.93495610855117e-001

2.60268371088386e+004,-1.69644375320730e+001,-1.96196706917717e-001

2.63901582154578e+004,-1.69644378046232e+001,-1.98935508790769e-001

2.67585510957221e+004,-1.69644380848357e+001,-2.01712542825269e-001

2.71320865489533e+004,-1.69644383729261e+001,-2.04528342717176e-001

2.75108363627948e+004,-1.69644386691158e+001,-2.07383449614196e-001

2.78948733270080e+004,-1.69644389736326e+001,-2.10278412217203e-001

2.82842712474618e+004,-1.69644392867104e+001,-2.13213786887630e-001

2.86791049603164e+004,-1.69644396085900e+001,-2.16190137752486e-001

2.90794503464061e+004,-1.69644399395189e+001,-2.19208036812296e-001

2.94853843458219e+004,-1.69644402797513e+001,-2.22268064054779e-001

2.98969849726987e+004,-1.69644406295490e+001,-2.25370807561691e-001

3.03143313302078e+004,-1.69644409891809e+001,-2.28516863624337e-001

3.07375036257601e+004,-1.69644413589232e+001,-2.31706836859133e-001

3.11665831864199e+004,-1.69644417390604e+001,-2.34941340319941e-001

3.16016524745350e+004,-1.69644421298847e+001,-2.38220995620302e-001

3.20427951035848e+004,-1.69644425316966e+001,-2.41546433049890e-001

3.24900958542493e+004,-1.69644429448048e+001,-2.44918291696892e-001

3.29436406907028e+004,-1.69644433695270e+001,-2.48337219571569e-001

3.34035167771346e+004,-1.69644438061897e+001,-2.51803873727718e-001

3.38698124945009e+004,-1.69644442551287e+001,-2.55318920391626e-001

3.43426174575100e+004,-1.69644447166890e+001,-2.58883035091468e-001

3.48220225318448e+004,-1.69644451912254e+001,-2.62496902782409e-001

3.53081198516260e+004,-1.69644456791029e+001,-2.66161217981672e-001

3.58010028371187e+004,-1.69644461806963e+001,-2.69876684902944e-001

3.63007662126863e+004,-1.69644466963914e+001,-2.73644017587791e-001

3.68075060249948e+004,-1.69644472265845e+001,-2.77463940045897e-001

3.73213196614721e+004,-1.69644477716834e+001,-2.81337186392776e-001

3.78423058690237e+004,-1.69644483321069e+001,-2.85264500993467e-001

3.83705647730104e+004,-1.69644489082861e+001,-2.89246638600228e-001

3.89061978964912e+004,-1.69644495006637e+001,-2.93284364503972e-001

3.94493081797342e+004,-1.69644501096952e+001,-2.97378454675808e-001

3.99999999999998e+004,-1.69644507358488e+001,-3.01529695920188e-001

4.05583791916010e+004,-1.69644513796059e+001,-3.05738886023261e-001

4.11245530662425e+004,-1.69644520414613e+001,-3.10006833908385e-001

4.16986304336447e+004,-1.69644527219239e+001,-3.14334359789527e-001

4.22807216224550e+004,-1.69644534215168e+001,-3.18722295330228e-001

4.28709385014515e+004,-1.69644541407777e+001,-3.23171483803355e-001

4.34693945010421e+004,-1.69644548802596e+001,-3.27682780252321e-001

4.40762046350642e+004,-1.69644556405311e+001,-3.32257051655820e-001

4.46914855228886e+004,-1.69644564221766e+001,-3.36895177094268e-001

4.53153554118317e+004,-1.69644572257969e+001,-3.41598047920034e-001

4.59479341998812e+004,-1.69644580520097e+001,-3.46366567926603e-001

4.65893434587380e+004,-1.69644589014505e+001,-3.51201653522780e-001

4.72397064571810e+004,-1.69644597747721e+001,-3.56104233909481e-001

4.78991481847569e+004,-1.69644606726458e+001,-3.61075251259153e-001

4.85677953758016e+004,-1.69644615957619e+001,-3.66115660893873e-001

4.92457765337964e+004,-1.69644625448302e+001,-3.71226431470856e-001

4.99332219560642e+004,-1.69644635205801e+001,-3.76408545169560e-001

5.06302637588109e+004,-1.69644645237618e+001,-3.81662997877941e-001

5.13370359025159e+004,-1.69644655551465e+001,-3.86990799385329e-001

5.20536742176771e+004,-1.69644666155270e+001,-3.92392973576655e-001

5.27803164309155e+004,-1.69644677057184e+001,-3.97870558627858e-001

5.35171021914442e+004,-1.69644688265591e+001,-4.03424607206149e-001

5.42641730979066e+004,-1.69644699789105e+001,-4.09056186671941e-001

5.50216727255895e+004,-1.69644711636585e+001,-4.14766379285964e-001

5.57897466540159e+004,-1.69644723817138e+001,-4.20556282413263e-001

5.65685424949235e+004,-1.69644736340130e+001,-4.26427008736677e-001

5.73582099206328e+004,-1.69644749215185e+001,-4.32379686471368e-001

5.81589006928121e+004,-1.69644762452203e+001,-4.38415459578185e-001

5.89707686916437e+004,-1.69644776061359e+001,-4.44535487986673e-001

5.97939699453972e+004,-1.69644790053115e+001,-4.50740947817514e-001

6.06286626604156e+004,-1.69644804438227e+001,-4.57033031605901e-001

6.14750072515201e+004,-1.69644819227752e+001,-4.63412948534264e-001

6.23331663728396e+004,-1.69644834433063e+001,-4.69881924660670e-001

6.32033049490698e+004,-1.69644850065844e+001,-4.76441203158531e-001

6.40855902071694e+004,-1.69644866138117e+001,-4.83092044551468e-001

6.49801917084985e+004,-1.69644882662235e+001,-4.89835726958434e-001

6.58872813814055e+004,-1.69644899650900e+001,-4.96673546338166e-001

6.68070335542691e+004,-1.69644917117174e+001,-5.03606816736541e-001

6.77396249890018e+004,-1.69644935074482e+001,-5.10636870542188e-001

6.86852349150199e+004,-1.69644953536629e+001,-5.17765058739402e-001

6.96440450636895e+004,-1.69644972517808e+001,-5.24992751169990e-001

7.06162397032520e+004,-1.69644992032609e+001,-5.32321336794270e-001

7.16020056742374e+004,-1.69645012096035e+001,-5.39752223959948e-001

7.26015324253724e+004,-1.69645032723507e+001,-5.47286840670941e-001

7.36150120499896e+004,-1.69645053930886e+001,-5.54926634861436e-001

7.46426393229441e+004,-1.69645075734470e+001,-5.62673074677273e-001

7.56846117380472e+004,-1.69645098151024e+001,-5.70527648753050e-001

7.67411295460207e+004,-1.69645121197777e+001,-5.78491866501657e-001

7.78123957929823e+004,-1.69645144892446e+001,-5.86567258403315e-001

7.88986163594682e+004,-1.69645169253247e+001,-5.94755376297532e-001

7.99999999999995e+004,-1.69645194298905e+001,-6.03057793684846e-001

8.11167583832018e+004,-1.69645220048674e+001,-6.11476106025377e-001

8.22491061324848e+004,-1.69645246522347e+001,-6.20011931047646e-001

8.33972608672892e+004,-1.69645273740277e+001,-6.28666909057294e-001

8.45614432449099e+004,-1.69645301723383e+001,-6.37442703255054e-001

8.57418770029029e+004,-1.69645330493179e+001,-6.46341000051945e-001

8.69387890020841e+004,-1.69645360071779e+001,-6.55363509397082e-001

8.81524092701283e+004,-1.69645390481920e+001,-6.64511965103621e-001

8.93829710457770e+004,-1.69645421746980e+001,-6.73788125181911e-001

9.06307108236633e+004,-1.69645453890990e+001,-6.83193772178334e-001

9.18958683997622e+004,-1.69645486938661e+001,-6.92730713516312e-001

9.31786869174758e+004,-1.69645520915396e+001,-7.02400781843883e-001

9.44794129143618e+004,-1.69645555847312e+001,-7.12205835385233e-001

9.57982963695136e+004,-1.69645591761262e+001,-7.22147758297477e-001

9.71355907516031e+004,-1.69645628684852e+001,-7.32228461033440e-001

9.84915530675926e+004,-1.69645666646464e+001,-7.42449880706025e-001

9.98664439121282e+004,-1.69645705675279e+001,-7.52813981462841e-001

1.01260527517622e+005,-1.69645745801299e+001,-7.63322754861409e-001

1.02674071805032e+005,-1.69645787055366e+001,-7.73978220252018e-001

1.04107348435354e+005,-1.69645829469192e+001,-7.84782425166267e-001

1.05560632861831e+005,-1.69645873075379e+001,-7.95737445707330e-001

1.07034204382888e+005,-1.69645917907447e+001,-8.06845386951991e-001

1.08528346195813e+005,-1.69645963999855e+001,-8.18108383352147e-001

1.10043345451179e+005,-1.69646011388033e+001,-8.29528599145956e-001

1.11579493308032e+005,-1.69646060108408e+001,-8.41108228771247e-001

1.13137084989847e+005,-1.69646110198428e+001,-8.52849497289009e-001

1.14716419841265e+005,-1.69646161696595e+001,-8.64754660809408e-001

1.16317801385624e+005,-1.69646214642493e+001,-8.76826006924136e-001

1.17941537383287e+005,-1.69646269076820e+001,-8.89065855145465e-001

1.19587939890794e+005,-1.69646325041415e+001,-9.01476557352831e-001

1.21257325320831e+005,-1.69646382579296e+001,-9.14060498242221e-001

1.22950014503040e+005,-1.69646441734687e+001,-9.26820095784334e-001

1.24666332745679e+005,-1.69646502553059e+001,-9.39757801688983e-001

1.26406609898139e+005,-1.69646565081157e+001,-9.52876101874502e-001

1.28171180414339e+005,-1.69646629367042e+001,-9.66177516946393e-001

1.29960383416997e+005,-1.69646695460127e+001,-9.79664602677975e-001

1.31774562762811e+005,-1.69646763411210e+001,-9.93339950503430e-001

1.33614067108538e+005,-1.69646833272520e+001,-1.00720618801287e+000

1.35479249978003e+005,-1.69646905097754e+001,-1.02126597945777e+000

1.37370469830040e+005,-1.69646978942115e+001,-1.03552202626098e+000

1.39288090127379e+005,-1.69647054862361e+001,-1.04997706753487e+000

1.41232479406504e+005,-1.69647132916844e+001,-1.06463388060688e+000

1.43204011348474e+005,-1.69647213165554e+001,-1.07949528155173e+000

1.45203064850745e+005,-1.69647295670171e+001,-1.09456412573202e+000

1.47230024099979e+005,-1.69647380494104e+001,-1.10984330834440e+000

1.49285278645888e+005,-1.69647467702549e+001,-1.12533576497570e+000

1.51369223476094e+005,-1.69647557362528e+001,-1.14104447216629e+000

1.53482259092041e+005,-1.69647649542953e+001,-1.15697244797811e+000

1.55624791585964e+005,-1.69647744314669e+001,-1.17312275257548e+000

1.57797232718936e+005,-1.69647841750512e+001,-1.18949848881120e+000

1.59999999999999e+005,-1.69647941925366e+001,-1.20610280281993e+000

1.62233516766403e+005,-1.69648044916218e+001,-1.22293888462251e+000

1.64498212264969e+005,-1.69648150802221e+001,-1.24000996873631e+000

1.66794521734578e+005,-1.69648259664749e+001,-1.25731933479576e+000

1.69122886489819e+005,-1.69648371587465e+001,-1.27487030817901e+000

1.71483754005805e+005,-1.69648486656383e+001,-1.29266626064679e+000

1.73877578004168e+005,-1.69648604959933e+001,-1.31071061098719e+000

1.76304818540256e+005,-1.69648726589031e+001,-1.32900682567108e+000

1.78765942091554e+005,-1.69648851637146e+001,-1.34755841951492e+000

1.81261421647326e+005,-1.69648980200375e+001,-1.36636895635445e+000

1.83791736799524e+005,-1.69649112377514e+001,-1.38544204972773e+000

1.86357373834951e+005,-1.69649248270137e+001,-1.40478136356496e+000

1.88958825828723e+005,-1.69649387982669e+001,-1.42439061289238e+000

1.91596592739027e+005,-1.69649531622472e+001,-1.44427356454069e+000

1.94271181503206e+005,-1.69649679299924e+001,-1.46443403786826e+000

1.96983106135185e+005,-1.69649831128502e+001,-1.48487590549027e+000

1.99732887824256e+005,-1.69649987224874e+001,-1.50560309402104e+000

2.02521055035243e+005,-1.69650147708985e+001,-1.52661958482327e+000

2.05348143610063e+005,-1.69650312704148e+001,-1.54792941477278e+000

2.08214696870707e+005,-1.69650482337144e+001,-1.56953667702677e+000

2.11121265723661e+005,-1.69650656738312e+001,-1.59144552180969e+000

2.14068408765776e+005,-1.69650836041656e+001,-1.61366015720516e+000

2.17056692391625e+005,-1.69651020384943e+001,-1.63618484996051e+000

2.20086690902357e+005,-1.69651209909810e+001,-1.65902392630342e+000

2.23158986616063e+005,-1.69651404761872e+001,-1.68218177276752e+000

2.26274169979693e+005,-1.69651605090838e+001,-1.70566283703150e+000

2.29432839682530e+005,-1.69651811050619e+001,-1.72947162876780e+000

2.32635602771247e+005,-1.69652022799450e+001,-1.75361272050605e+000

2.35883074766574e+005,-1.69652240500011e+001,-1.77809074850384e+000

2.39175879781588e+005,-1.69652464319552e+001,-1.80291041363404e+000

2.42514650641661e+005,-1.69652694430021e+001,-1.82807648228147e+000

2.45900029006080e+005,-1.69652931008193e+001,-1.85359378725345e+000

2.49332665491357e+005,-1.69653174235812e+001,-1.87946722870072e+000

2.52813219796278e+005,-1.69653424299722e+001,-1.90570177505431e+000

2.56342360828676e+005,-1.69653681392017e+001,-1.93230246397220e+000

2.59920766833993e+005,-1.69653945710186e+001,-1.95927440330007e+000

2.63549125525621e+005,-1.69654217457262e+001,-1.98662277204701e+000

2.67228134217075e+005,-1.69654496841983e+001,-2.01435282137056e+000

2.70958499956006e+005,-1.69654784078946e+001,-2.04246987557943e+000

2.74740939660078e+005,-1.69655079388773e+001,-2.07097933314801e+000

2.78576180254757e+005,-1.69655382998285e+001,-2.09988666774343e+000

2.82464958813007e+005,-1.69655695140668e+001,-2.12919742927023e+000

2.86408022696948e+005,-1.69656016055657e+001,-2.15891724492594e+000

2.90406129701488e+005,-1.69656345989718e+001,-2.18905182027277e+000

2.94460048199957e+005,-1.69656685196236e+001,-2.21960694032335e+000

2.98570557291775e+005,-1.69657033935709e+001,-2.25058847064201e+000

3.02738446952187e+005,-1.69657392475950e+001,-2.28200235845994e+000

3.06964518184081e+005,-1.69657761092289e+001,-2.31385463380652e+000

3.11249583171928e+005,-1.69658140067784e+001,-2.34615141065597e+000

3.15594465437872e+005,-1.69658529693440e+001,-2.37889888808892e+000

3.19999999999997e+005,-1.69658930268428e+001,-2.41210335146999e+000

3.24467033532806e+005,-1.69659342100318e+001,-2.44577117364251e+000

3.28996424529938e+005,-1.69659765505312e+001,-2.47990881613770e+000

3.33589043469155e+005,-1.69660200808485e+001,-2.51452283040152e+000

3.38245772979638e+005,-1.69660648344034e+001,-2.54961985903769e+000

3.42967508011610e+005,-1.69661108455536e+001,-2.58520663706772e+000

3.47755156008335e+005,-1.69661581496208e+001,-2.62128999320737e+000

3.52609637080511e+005,-1.69662067829179e+001,-2.65787685116160e+000

3.57531884183106e+005,-1.69662567827764e+001,-2.69497423093585e+000

3.62522843294651e+005,-1.69663081875753e+001,-2.73258925016565e+000

3.67583473599047e+005,-1.69663610367704e+001,-2.77072912546401e+000

3.72714747669902e+005,-1.69664153709242e+001,-2.80940117378659e+000

3.77917651657445e+005,-1.69664712317369e+001,-2.84861281381648e+000

3.83193185478053e+005,-1.69665286620785e+001,-2.88837156736547e+000

3.88542363006410e+005,-1.69665877060214e+001,-2.92868506079632e+000

3.93966212270369e+005,-1.69666484088739e+001,-2.96956102646277e+000

3.99465775648511e+005,-1.69667108172150e+001,-3.01100730416943e+000

4.05042110070485e+005,-1.69667749789297e+001,-3.05303184265125e+000

4.10696287220124e+005,-1.69668409432458e+001,-3.09564270107164e+000

4.16429393741414e+005,-1.69669087607712e+001,-3.13884805054240e+000

4.22242531447321e+005,-1.69669784835326e+001,-3.18265617566259e+000

4.28136817531551e+005,-1.69670501650152e+001,-3.22707547607895e+000

4.34113384783250e+005,-1.69671238602035e+001,-3.27211446806484e+000

4.40173381804713e+005,-1.69671996256228e+001,-3.31778178612361e+000

4.46317973232124e+005,-1.69672775193830e+001,-3.36408618461035e+000

4.52548339959385e+005,-1.69673576012219e+001,-3.41103653937598e+000

4.58865679365059e+005,-1.69674399325518e+001,-3.45864184943381e+000

4.65271205542494e+005,-1.69675245765050e+001,-3.50691123864718e+000

4.71766149533147e+005,-1.69676115979831e+001,-3.55585395743917e+000

4.78351759563174e+005,-1.69677010637053e+001,-3.60547938452628e+000

4.85029301283321e+005,-1.69677930422598e+001,-3.65579702867254e+000

4.91800058012158e+005,-1.69678876041558e+001,-3.70681653046958e+000

4.98665330982714e+005,-1.69679848218767e+001,-3.75854766413669e+000

5.05626439592555e+005,-1.69680847699358e+001,-3.81100033934676e+000

5.12684721657352e+005,-1.69681875249326e+001,-3.86418460307586e+000

5.19841533667984e+005,-1.69682931656107e+001,-3.91811064147490e+000

5.27098251051240e+005,-1.69684017729180e+001,-3.97278878176819e+000

5.34456268434150e+005,-1.69685134300679e+001,-4.02822949417480e+000

5.41916999912011e+005,-1.69686282226024e+001,-4.08444339385535e+000

