Freq.,VOut,OutRef

1.00000000000000e+004,-1.50191933028722e+001,-1.13670150429754e-001

1.01395947979003e+004,-1.50191933543681e+001,-1.15256926411496e-001

1.02811382665607e+004,-1.50191934073117e+001,-1.16865852952991e-001

1.04246576084112e+004,-1.50191934617438e+001,-1.18497239263326e-001

1.05701804056138e+004,-1.50191935177063e+001,-1.20151398868640e-001

1.07177346253629e+004,-1.50191935752419e+001,-1.21828649674412e-001

1.08673486252606e+004,-1.50191936343953e+001,-1.23529314017716e-001

1.10190511587661e+004,-1.50191936952116e+001,-1.25253718741364e-001

1.11728713807222e+004,-1.50191937577377e+001,-1.27002195248137e-001

1.13288388529580e+004,-1.50191938220216e+001,-1.28775079566659e-001

1.14869835499703e+004,-1.50191938881128e+001,-1.30572712416983e-001

1.16473358646846e+004,-1.50191939560620e+001,-1.32395439275910e-001

1.18099266142953e+004,-1.50191940259216e+001,-1.34243610440926e-001

1.19747870461893e+004,-1.50191940977452e+001,-1.36117581101078e-001

1.21419488439505e+004,-1.50191941715880e+001,-1.38017711404471e-001

1.23114441334492e+004,-1.50191942475069e+001,-1.39944366524594e-001

1.24833054890161e+004,-1.50191943255601e+001,-1.41897916733720e-001

1.26575659397028e+004,-1.50191944058076e+001,-1.43878737473508e-001

1.28342589756290e+004,-1.50191944883113e+001,-1.45887209423708e-001

1.30134185544193e+004,-1.50191945731345e+001,-1.47923718582199e-001

1.31950791077289e+004,-1.50191946603422e+001,-1.49988656332812e-001

1.33792755478611e+004,-1.50191947500018e+001,-1.52082419522683e-001

1.35660432744767e+004,-1.50191948421820e+001,-1.54205410539231e-001

1.37554181813974e+004,-1.50191949369538e+001,-1.56358037386780e-001

1.39474366635040e+004,-1.50191950343900e+001,-1.58540713765574e-001

1.41421356237309e+004,-1.50191951345654e+001,-1.60753859151189e-001

1.43395524801583e+004,-1.50191952375572e+001,-1.62997898873395e-001

1.45397251732031e+004,-1.50191953434445e+001,-1.65273264200487e-001

1.47426921729110e+004,-1.50191954523087e+001,-1.67580392419685e-001

1.49484924863494e+004,-1.50191955642336e+001,-1.69919726924664e-001

1.51571656651040e+004,-1.50191956793049e+001,-1.72291717297826e-001

1.53687518128801e+004,-1.50191957976114e+001,-1.74696819395969e-001

1.55832915932100e+004,-1.50191959192439e+001,-1.77135495440853e-001

1.58008262372675e+004,-1.50191960442960e+001,-1.79608214106230e-001

1.60213975517924e+004,-1.50191961728637e+001,-1.82115450607543e-001

1.62450479271247e+004,-1.50191963050460e+001,-1.84657686795352e-001

1.64718203453514e+004,-1.50191964409446e+001,-1.87235411244300e-001

1.67017583885674e+004,-1.50191965806636e+001,-1.89849119352894e-001

1.69349062472505e+004,-1.50191967243106e+001,-1.92499313431296e-001

1.71713087287550e+004,-1.50191968719963e+001,-1.95186502803312e-001

1.74110112659224e+004,-1.50191970238337e+001,-1.97911203903807e-001

1.76540599258131e+004,-1.50191971799399e+001,-2.00673940373563e-001

1.79005014185594e+004,-1.50191973404350e+001,-2.03475243165470e-001

1.81503831063432e+004,-1.50191975054422e+001,-2.06315650643338e-001

1.84037530124975e+004,-1.50191976750882e+001,-2.09195708687230e-001

1.86606598307361e+004,-1.50191978495037e+001,-2.12115970795970e-001

1.89211529345119e+004,-1.50191980288227e+001,-2.15076998195431e-001

1.91852823865052e+004,-1.50191982131830e+001,-2.18079359945185e-001

1.94530989482457e+004,-1.50191984027264e+001,-2.21123633050120e-001

1.97246540898671e+004,-1.50191985975986e+001,-2.24210402567336e-001

1.99999999999999e+004,-1.50191987979493e+001,-2.27340261724009e-001

2.02791895958005e+004,-1.50191990039326e+001,-2.30513812025713e-001

2.05622765331213e+004,-1.50191992157069e+001,-2.33731663375712e-001

2.08493152168224e+004,-1.50191994334351e+001,-2.36994434189800e-001

2.11403608112276e+004,-1.50191996572843e+001,-2.40302751519137e-001

2.14354692507258e+004,-1.50191998874268e+001,-2.43657251165658e-001

2.17346972505211e+004,-1.50192001240394e+001,-2.47058577808205e-001

2.20381023175322e+004,-1.50192003673041e+001,-2.50507385123034e-001

2.23457427614443e+004,-1.50192006174080e+001,-2.54004335912178e-001

2.26576777059159e+004,-1.50192008745432e+001,-2.57550102231226e-001

2.29739670999406e+004,-1.50192011389074e+001,-2.61145365515738e-001

2.32946717293690e+004,-1.50192014107038e+001,-2.64790816713237e-001

2.36198532285905e+004,-1.50192016901415e+001,-2.68487156417158e-001

2.39495740923785e+004,-1.50192019774353e+001,-2.72235095000802e-001

2.42838976879009e+004,-1.50192022728058e+001,-2.76035352753849e-001

2.46228882668982e+004,-1.50192025764805e+001,-2.79888660018576e-001

2.49666109780322e+004,-1.50192028886926e+001,-2.83795757335764e-001

2.53151318794055e+004,-1.50192032096819e+001,-2.87757395581800e-001

2.56685179512580e+004,-1.50192035396957e+001,-2.91774336112878e-001

2.60268371088386e+004,-1.50192038789873e+001,-2.95847350916131e-001

2.63901582154578e+004,-1.50192042278176e+001,-2.99977222754252e-001

2.67585510957221e+004,-1.50192045864548e+001,-3.04164745315818e-001

2.71320865489533e+004,-1.50192049551747e+001,-3.08410723368147e-001

2.75108363627948e+004,-1.50192053342606e+001,-3.12715972914501e-001

2.78948733270080e+004,-1.50192057240042e+001,-3.17081321346583e-001

2.82842712474618e+004,-1.50192061247048e+001,-3.21507607607757e-001

2.86791049603164e+004,-1.50192065366705e+001,-3.25995682351186e-001

2.90794503464061e+004,-1.50192069602183e+001,-3.30546408104435e-001

2.94853843458219e+004,-1.50192073956733e+001,-3.35160659436206e-001

2.98969849726987e+004,-1.50192078433708e+001,-3.39839323121314e-001

3.03143313302078e+004,-1.50192083036546e+001,-3.44583298315511e-001

3.07375036257601e+004,-1.50192087768787e+001,-3.49393496724994e-001

3.11665831864199e+004,-1.50192092634069e+001,-3.54270842781434e-001

3.16016524745350e+004,-1.50192097636132e+001,-3.59216273821879e-001

3.20427951035848e+004,-1.50192102778820e+001,-3.64230740268984e-001

3.24900958542493e+004,-1.50192108066090e+001,-3.69315205809093e-001

3.29436406907028e+004,-1.50192113502003e+001,-3.74470647583843e-001

3.34035167771346e+004,-1.50192119090740e+001,-3.79698056372931e-001

3.38698124945009e+004,-1.50192124836596e+001,-3.84998436787173e-001

3.43426174575100e+004,-1.50192130743990e+001,-3.90372807459939e-001

3.48220225318448e+004,-1.50192136817462e+001,-3.95822201245064e-001

3.53081198516260e+004,-1.50192143061681e+001,-4.01347665412851e-001

3.58010028371187e+004,-1.50192149481447e+001,-4.06950261852603e-001

3.63007662126863e+004,-1.50192156081698e+001,-4.12631067276217e-001

3.68075060249948e+004,-1.50192162867504e+001,-4.18391173426330e-001

3.73213196614721e+004,-1.50192169844085e+001,-4.24231687283856e-001

3.78423058690237e+004,-1.50192177016801e+001,-4.30153731283372e-001

3.83705647730104e+004,-1.50192184391170e+001,-4.36158443525151e-001

3.89061978964912e+004,-1.50192191972858e+001,-4.42246977998745e-001

3.94493081797342e+004,-1.50192199767694e+001,-4.48420504800282e-001

3.99999999999998e+004,-1.50192207781672e+001,-4.54680210359036e-001

4.05583791916010e+004,-1.50192216020950e+001,-4.61027297666629e-001

4.11245530662425e+004,-1.50192224491864e+001,-4.67462986505816e-001

4.16986304336447e+004,-1.50192233200926e+001,-4.73988513686363e-001

4.22807216224550e+004,-1.50192242154831e+001,-4.80605133282573e-001

4.28709385014515e+004,-1.50192251360462e+001,-4.87314116873647e-001

4.34693945010421e+004,-1.50192260824894e+001,-4.94116753789553e-001

4.40762046350642e+004,-1.50192270555408e+001,-5.01014351354712e-001

4.46914855228886e+004,-1.50192280559478e+001,-5.08008235145860e-001

4.53153554118317e+004,-1.50192290844798e+001,-5.15099749240463e-001

4.59479341998812e+004,-1.50192301419275e+001,-5.22290256477574e-001

4.65893434587380e+004,-1.50192312291038e+001,-5.29581138720428e-001

4.72397064571810e+004,-1.50192323468443e+001,-5.36973797120722e-001

4.78991481847569e+004,-1.50192334960085e+001,-5.44469652387969e-001

4.85677953758016e+004,-1.50192346774796e+001,-5.52070145062770e-001

4.92457765337964e+004,-1.50192358921659e+001,-5.59776735794285e-001

4.99332219560642e+004,-1.50192371410013e+001,-5.67590905618577e-001

5.06302637588109e+004,-1.50192384249457e+001,-5.75514156245409e-001

5.13370359025159e+004,-1.50192397449862e+001,-5.83548010346562e-001

5.20536742176771e+004,-1.50192411021376e+001,-5.91694011846555e-001

5.27803164309155e+004,-1.50192424974431e+001,-5.99953726221417e-001

5.35171021914442e+004,-1.50192439319753e+001,-6.08328740798909e-001

5.42641730979066e+004,-1.50192454068371e+001,-6.16820665062070e-001

5.50216727255895e+004,-1.50192469231621e+001,-6.25431130960323e-001

5.57897466540159e+004,-1.50192484821163e+001,-6.34161793221009e-001

5.65685424949235e+004,-1.50192500848977e+001,-6.43014329670320e-001

5.73582099206328e+004,-1.50192517327387e+001,-6.51990441552412e-001

5.81589006928121e+004,-1.50192534269060e+001,-6.61091853857248e-001

5.89707686916437e+004,-1.50192551687019e+001,-6.70320315653270e-001

5.97939699453972e+004,-1.50192569594653e+001,-6.79677600422106e-001

6.06286626604156e+004,-1.50192588005730e+001,-6.89165506399066e-001

6.14750072515201e+004,-1.50192606934402e+001,-6.98785856920151e-001

6.23331663728396e+004,-1.50192626395220e+001,-7.08540500769873e-001

6.32033049490698e+004,-1.50192646403145e+001,-7.18431312539250e-001

6.40855902071694e+004,-1.50192666973556e+001,-7.28460192982960e-001

6.49801917084985e+004,-1.50192688122267e+001,-7.38629069387230e-001

6.58872813814055e+004,-1.50192709865534e+001,-7.48939895938277e-001

6.68070335542691e+004,-1.50192732220074e+001,-7.59394654097313e-001

6.77396249890018e+004,-1.50192755203070e+001,-7.69995352983533e-001

6.86852349150199e+004,-1.50192778832188e+001,-7.80744029757458e-001

6.96440450636895e+004,-1.50192803125594e+001,-7.91642750013251e-001

7.06162397032520e+004,-1.50192828101963e+001,-8.02693608175217e-001

7.16020056742374e+004,-1.50192853780493e+001,-8.13898727901691e-001

7.26015324253724e+004,-1.50192880180923e+001,-8.25260262490337e-001

7.36150120499896e+004,-1.50192907323549e+001,-8.36780395293009e-001

7.46426393229441e+004,-1.50192935229235e+001,-8.48461340134926e-001

7.56846117380472e+004,-1.50192963919433e+001,-8.60305341740115e-001

7.67411295460207e+004,-1.50192993416196e+001,-8.72314676163110e-001

7.78123957929823e+004,-1.50193023742197e+001,-8.84491651224733e-001

7.88986163594682e+004,-1.50193054920751e+001,-8.96838606954638e-001

7.99999999999995e+004,-1.50193086975822e+001,-9.09357916043780e-001

8.11167583832018e+004,-1.50193119932051e+001,-9.22051984297411e-001

8.22491061324848e+004,-1.50193153814772e+001,-9.34923251097491e-001

8.33972608672892e+004,-1.50193188650030e+001,-9.47974189872229e-001

8.45614432449099e+004,-1.50193224464603e+001,-9.61207308569883e-001

8.57418770029029e+004,-1.50193261286019e+001,-9.74625150140956e-001

8.69387890020841e+004,-1.50193299142584e+001,-9.88230293026333e-001

8.81524092701283e+004,-1.50193338063397e+001,-1.00202535165135e+000

8.93829710457770e+004,-1.50193378078374e+001,-1.01601297693078e+000

9.06307108236633e+004,-1.50193419218276e+001,-1.03019585677369e+000

9.18958683997622e+004,-1.50193461514725e+001,-1.04457671660308e+000

9.31786869174758e+004,-1.50193505000233e+001,-1.05915831987673e+000

9.44794129143618e+004,-1.50193549708226e+001,-1.07394346861945e+000

9.57982963695136e+004,-1.50193595673067e+001,-1.08893500396000e+000

9.71355907516031e+004,-1.50193642930090e+001,-1.10413580667645e+000

9.84915530675926e+004,-1.50193691515620e+001,-1.11954879774963e+000

9.98664439121282e+004,-1.50193741466999e+001,-1.13517693892422e+000

1.01260527517622e+005,-1.50193792822625e+001,-1.15102323327615e+000

1.02674071805032e+005,-1.50193845621971e+001,-1.16709072579034e+000

1.04107348435354e+005,-1.50193899905622e+001,-1.18338250394377e+000

1.05560632861831e+005,-1.50193955715301e+001,-1.19990169829901e+000

1.07034204382888e+005,-1.50194013093905e+001,-1.21665148310574e+000

1.08528346195813e+005,-1.50194072085538e+001,-1.23363507690799e+000

1.10043345451179e+005,-1.50194132735542e+001,-1.25085574316340e+000

1.11579493308032e+005,-1.50194195090535e+001,-1.26831679086886e+000

1.13137084989847e+005,-1.50194259198443e+001,-1.28602157519583e+000

1.14716419841265e+005,-1.50194325108540e+001,-1.30397349813439e+000

1.16317801385624e+005,-1.50194392871485e+001,-1.32217600914537e+000

1.17941537383287e+005,-1.50194462539362e+001,-1.34063260582144e+000

1.19587939890794e+005,-1.50194534165717e+001,-1.35934683456098e+000

1.21257325320831e+005,-1.50194607805602e+001,-1.37832229124607e+000

1.22950014503040e+005,-1.50194683515615e+001,-1.39756262193260e+000

1.24666332745679e+005,-1.50194761353947e+001,-1.41707152355039e+000

1.26406609898139e+005,-1.50194841380421e+001,-1.43685274461257e+000

1.28171180414339e+005,-1.50194923656544e+001,-1.45691008593385e+000

1.29960383416997e+005,-1.50195008245552e+001,-1.47724740135959e+000

1.31774562762811e+005,-1.50195095212454e+001,-1.49786859850578e+000

1.33614067108538e+005,-1.50195184624092e+001,-1.51877763950777e+000

1.35479249978003e+005,-1.50195276549182e+001,-1.53997854177971e+000

1.37370469830040e+005,-1.50195371058372e+001,-1.56147537878683e+000

1.39288090127379e+005,-1.50195468224297e+001,-1.58327228082384e+000

1.41232479406504e+005,-1.50195568121631e+001,-1.60537343580900e+000

1.43204011348474e+005,-1.50195670827147e+001,-1.62778309008641e+000

1.45203064850745e+005,-1.50195776419777e+001,-1.65050554923978e+000

1.47230024099979e+005,-1.50195884980670e+001,-1.67354517891801e+000

1.49285278645888e+005,-1.50195996593254e+001,-1.69690640567251e+000

1.51369223476094e+005,-1.50196111343303e+001,-1.72059371780438e+000

1.53482259092041e+005,-1.50196229319002e+001,-1.74461166622663e+000

1.55624791585964e+005,-1.50196350611011e+001,-1.76896486533433e+000

1.57797232718936e+005,-1.50196475312541e+001,-1.79365799389022e+000

1.59999999999999e+005,-1.50196603519418e+001,-1.81869579592086e+000

1.62233516766403e+005,-1.50196735330166e+001,-1.84408308162488e+000

1.64498212264969e+005,-1.50196870846072e+001,-1.86982472829546e+000

1.66794521734578e+005,-1.50197010171271e+001,-1.89592568125510e+000

1.69122886489819e+005,-1.50197153412824e+001,-1.92239095480121e+000

1.71483754005805e+005,-1.50197300680802e+001,-1.94922563316740e+000

1.73877578004168e+005,-1.50197452088363e+001,-1.97643487149780e+000

1.76304818540256e+005,-1.50197607751850e+001,-2.00402389683306e+000

1.78765942091554e+005,-1.50197767790872e+001,-2.03199800911252e+000

1.81261421647326e+005,-1.50197932328398e+001,-2.06036258218693e+000

1.83791736799524e+005,-1.50198101490852e+001,-2.08912306484999e+000

1.86357373834951e+005,-1.50198275408211e+001,-2.11828498187840e+000

1.88958825828723e+005,-1.50198454214102e+001,-2.14785393509121e+000

1.91596592739027e+005,-1.50198638045906e+001,-2.17783560442116e+000

1.94271181503206e+005,-1.50198827044863e+001,-2.20823574900147e+000

1.96983106135185e+005,-1.50199021356181e+001,-2.23906020826816e+000

1.99732887824256e+005,-1.50199221129147e+001,-2.27031490307608e+000

2.02521055035243e+005,-1.50199426517241e+001,-2.30200583683232e+000

2.05348143610063e+005,-1.50199637678255e+001,-2.33413909664438e+000

2.08214696870707e+005,-1.50199854774411e+001,-2.36672085448396e+000

2.11121265723661e+005,-1.50200077972489e+001,-2.39975736836651e+000

2.14068408765776e+005,-1.50200307443954e+001,-2.43325498354809e+000

2.17056692391625e+005,-1.50200543365084e+001,-2.46722013373827e+000

2.20086690902357e+005,-1.50200785917111e+001,-2.50165934232908e+000

2.23158986616063e+005,-1.50201035286354e+001,-2.53657922364237e+000

2.26274169979693e+005,-1.50201291664366e+001,-2.57198648419242e+000

2.29432839682530e+005,-1.50201555248079e+001,-2.60788792396803e+000

2.32635602771247e+005,-1.50201826239955e+001,-2.64429043773041e+000

2.35883074766574e+005,-1.50202104848141e+001,-2.68120101633011e+000

2.39175879781588e+005,-1.50202391286629e+001,-2.71862674804109e+000

2.42514650641661e+005,-1.50202685775421e+001,-2.75657481991520e+000

2.45900029006080e+005,-1.50202988540693e+001,-2.79505251915157e+000

2.49332665491357e+005,-1.50203299814974e+001,-2.83406723448937e+000

2.52813219796278e+005,-1.50203619837320e+001,-2.87362645761497e+000

2.56342360828676e+005,-1.50203948853500e+001,-2.91373778459318e+000

2.59920766833993e+005,-1.50204287116181e+001,-2.95440891731388e+000

2.63549125525621e+005,-1.50204634885124e+001,-2.99564766496087e+000

2.67228134217075e+005,-1.50204992427380e+001,-3.03746194550059e+000

2.70958499956006e+005,-1.50205360017499e+001,-3.07985978719055e+000

2.74740939660078e+005,-1.50205737937735e+001,-3.12284933010951e+000

2.78576180254757e+005,-1.50206126478265e+001,-3.16643882770647e+000

2.82464958813007e+005,-1.50206525937411e+001,-3.21063664837356e+000

2.86408022696948e+005,-1.50206936621865e+001,-3.25545127703849e+000

2.90406129701488e+005,-1.50207358846929e+001,-3.30089131677928e+000

2.94460048199957e+005,-1.50207792936751e+001,-3.34696549046134e+000

2.98570557291775e+005,-1.50208239224576e+001,-3.39368264239615e+000

3.02738446952187e+005,-1.50208698052997e+001,-3.44105174002402e+000

3.06964518184081e+005,-1.50209169774223e+001,-3.48908187561729e+000

3.11249583171928e+005,-1.50209654750342e+001,-3.53778226800940e+000

3.15594465437872e+005,-1.50210153353601e+001,-3.58716226434574e+000

3.19999999999997e+005,-1.50210665966690e+001,-3.63723134185854e+000

3.24467033532806e+005,-1.50211192983033e+001,-3.68799910966664e+000

3.28996424529938e+005,-1.50211734807091e+001,-3.73947531059849e+000

3.33589043469155e+005,-1.50212291854667e+001,-3.79166982304157e+000

3.38245772979638e+005,-1.50212864553225e+001,-3.84459266281461e+000

3.42967508011610e+005,-1.50213453342220e+001,-3.89825398506678e+000

3.47755156008335e+005,-1.50214058673428e+001,-3.95266408620235e+000

3.52609637080511e+005,-1.50214681011291e+001,-4.00783340583101e+000

3.57531884183106e+005,-1.50215320833276e+001,-4.06377252874439e+000

3.62522843294651e+005,-1.50215978630234e+001,-4.12049218691923e+000

3.67583473599047e+005,-1.50216654906777e+001,-4.17800326154868e+000

3.72714747669902e+005,-1.50217350181662e+001,-4.23631678509901e+000

3.77917651657445e+005,-1.50218064988185e+001,-4.29544394339515e+000

3.83193185478053e+005,-1.50218799874588e+001,-4.35539607773473e+000

3.88542363006410e+005,-1.50219555404480e+001,-4.41618468702842e+000

3.93966212270369e+005,-1.50220332157259e+001,-4.47782142997134e+000

3.99465775648511e+005,-1.50221130728560e+001,-4.54031812724223e+000

4.05042110070485e+005,-1.50221951730703e+001,-4.60368676373213e+000

4.10696287220124e+005,-1.50222795793163e+001,-4.66793949080235e+000

4.16429393741414e+005,-1.50223663563045e+001,-4.73308862857449e+000

4.22242531447321e+005,-1.50224555705580e+001,-4.79914666824753e+000

4.28136817531551e+005,-1.50225472904626e+001,-4.86612627444969e+000

4.34113384783250e+005,-1.50226415863193e+001,-4.93404028761789e+000

4.40173381804713e+005,-1.50227385303971e+001,-5.00290172641142e+000

4.46317973232124e+005,-1.50228381969884e+001,-5.07272379015610e+000

4.52548339959385e+005,-1.50229406624650e+001,-5.14351986132091e+000

4.58865679365059e+005,-1.50230460053363e+001,-5.21530350802813e+000

4.65271205542494e+005,-1.50231543063089e+001,-5.28808848659501e+000

4.71766149533147e+005,-1.50232656483473e+001,-5.36188874411028e+000

4.78351759563174e+005,-1.50233801167375e+001,-5.43671842104386e+000

4.85029301283321e+005,-1.50234977991511e+001,-5.51259185389090e+000

4.91800058012158e+005,-1.50236187857118e+001,-5.58952357785003e+000

4.98665330982714e+005,-1.50237431690636e+001,-5.66752832953686e+000

5.05626439592555e+005,-1.50238710444411e+001,-5.74662104973267e+000

5.12684721657352e+005,-1.50240025097414e+001,-5.82681688616940e+000

5.19841533667984e+005,-1.50241376655978e+001,-5.90813119635001e+000

5.27098251051240e+005,-1.50242766154564e+001,-5.99057955040493e+000

5.34456268434150e+005,-1.50244194656539e+001,-6.07417773398683e+000

5.41916999912011e+005,-1.50245663254978e+001,-6.15894175120203e+000

