Freq.,VOut,OutRef

1.00000000000000e+004,-2.51390223771733e+001,-2.68668155969874e-001

1.01395947979003e+004,-2.51390233435347e+001,-2.72418612273572e-001

1.02811382665607e+004,-2.51390243370642e+001,-2.76221422511908e-001

1.04246576084112e+004,-2.51390253585252e+001,-2.80077317499548e-001

1.05701804056138e+004,-2.51390264087033e+001,-2.83987038248723e-001

1.07177346253629e+004,-2.51390274884056e+001,-2.87951336118320e-001

1.08673486252606e+004,-2.51390285984623e+001,-2.91970972952197e-001

1.10190511587661e+004,-2.51390297397266e+001,-2.96046721230119e-001

1.11728713807222e+004,-2.51390309130760e+001,-3.00179364213066e-001

1.13288388529580e+004,-2.51390321194123e+001,-3.04369696094895e-001

1.14869835499703e+004,-2.51390333596631e+001,-3.08618522155631e-001

1.16473358646846e+004,-2.51390346347818e+001,-3.12926658914094e-001

1.18099266142953e+004,-2.51390359457485e+001,-3.17294934287728e-001

1.19747870461893e+004,-2.51390372935712e+001,-3.21724187748828e-001

1.21419488439505e+004,-2.51390386792859e+001,-3.26215270487690e-001

1.23114441334492e+004,-2.51390401039580e+001,-3.30769045574616e-001

1.24833054890161e+004,-2.51390415686826e+001,-3.35386388126604e-001

1.26575659397028e+004,-2.51390430745858e+001,-3.40068185476380e-001

1.28342589756290e+004,-2.51390446228251e+001,-3.44815337340825e-001

1.30134185544193e+004,-2.51390462145909e+001,-3.49628755994300e-001

1.31950791077289e+004,-2.51390478511067e+001,-3.54509366446415e-001

1.33792755478611e+004,-2.51390495336307e+001,-3.59458106615112e-001

1.35660432744767e+004,-2.51390512634562e+001,-3.64475927511433e-001

1.37554181813974e+004,-2.51390530419131e+001,-3.69563793418529e-001

1.39474366635040e+004,-2.51390548703686e+001,-3.74722682079105e-001

1.41421356237309e+004,-2.51390567502282e+001,-3.79953584883035e-001

1.43395524801583e+004,-2.51390586829371e+001,-3.85257507056390e-001

1.45397251732031e+004,-2.51390606699810e+001,-3.90635467856194e-001

1.47426921729110e+004,-2.51390627128874e+001,-3.96088500765293e-001

1.49484924863494e+004,-2.51390648132269e+001,-4.01617653689999e-001

1.51571656651040e+004,-2.51390669726140e+001,-4.07223989163547e-001

1.53687518128801e+004,-2.51390691927087e+001,-4.12908584547905e-001

1.55832915932100e+004,-2.51390714752176e+001,-4.18672532242627e-001

1.58008262372675e+004,-2.51390738218955e+001,-4.24516939893002e-001

1.60213975517924e+004,-2.51390762345463e+001,-4.30442930603594e-001

1.62450479271247e+004,-2.51390787150247e+001,-4.36451643152933e-001

1.64718203453514e+004,-2.51390812652375e+001,-4.42544232215055e-001

1.67017583885674e+004,-2.51390838871451e+001,-4.48721868577690e-001

1.69349062472505e+004,-2.51390865827630e+001,-4.54985739368613e-001

1.71713087287550e+004,-2.51390893541635e+001,-4.61337048283532e-001

1.74110112659224e+004,-2.51390922034770e+001,-4.67777015818537e-001

1.76540599258131e+004,-2.51390951328938e+001,-4.74306879500582e-001

1.79005014185594e+004,-2.51390981446659e+001,-4.80927894130338e-001

1.81503831063432e+004,-2.51391012411084e+001,-4.87641332018491e-001

1.84037530124975e+004,-2.51391044246017e+001,-4.94448483233149e-001

1.86606598307361e+004,-2.51391076975930e+001,-5.01350655845028e-001

1.89211529345119e+004,-2.51391110625981e+001,-5.08349176182024e-001

1.91852823865052e+004,-2.51391145222041e+001,-5.15445389078450e-001

1.94530989482457e+004,-2.51391180790702e+001,-5.22640658139422e-001

1.97246540898671e+004,-2.51391217359305e+001,-5.29936365998478e-001

1.99999999999999e+004,-2.51391254955965e+001,-5.37333914582640e-001

2.02791895958005e+004,-2.51391293609578e+001,-5.44834725385549e-001

2.05622765331213e+004,-2.51391333349861e+001,-5.52440239735409e-001

2.08493152168224e+004,-2.51391374207359e+001,-5.60151919076051e-001

2.11403608112276e+004,-2.51391416213483e+001,-5.67971245243334e-001

2.14354692507258e+004,-2.51391459400520e+001,-5.75899720753039e-001

2.17346972505211e+004,-2.51391503801670e+001,-5.83938869086488e-001

2.20381023175322e+004,-2.51391549451063e+001,-5.92090234985325e-001

2.23457427614443e+004,-2.51391596383790e+001,-6.00355384745655e-001

2.26576777059159e+004,-2.51391644635928e+001,-6.08735906520005e-001

2.29739670999406e+004,-2.51391694244566e+001,-6.17233410622643e-001

2.32946717293690e+004,-2.51391745247839e+001,-6.25849529835846e-001

2.36198532285905e+004,-2.51391797684953e+001,-6.34585919726468e-001

2.39495740923785e+004,-2.51391851596215e+001,-6.43444258961411e-001

2.42838976879009e+004,-2.51391907023066e+001,-6.52426249630604e-001

2.46228882668982e+004,-2.51391964008111e+001,-6.61533617572917e-001

2.49666109780322e+004,-2.51392022595151e+001,-6.70768112708262e-001

2.53151318794055e+004,-2.51392082829223e+001,-6.80131509371613e-001

2.56685179512580e+004,-2.51392144756627e+001,-6.89625606654287e-001

2.60268371088386e+004,-2.51392208424962e+001,-6.99252228750447e-001

2.63901582154578e+004,-2.51392273883171e+001,-7.09013225302684e-001

2.67585510957221e+004,-2.51392341181566e+001,-7.18910471762861e-001

2.71320865489533e+004,-2.51392410371878e+001,-7.28945869745849e-001

2.75108363627948e+004,-2.51392481507290e+001,-7.39121347397888e-001

2.78948733270080e+004,-2.51392554642480e+001,-7.49438859764756e-001

2.82842712474618e+004,-2.51392629833664e+001,-7.59900389166604e-001

2.86791049603164e+004,-2.51392707138636e+001,-7.70507945579225e-001

2.90794503464061e+004,-2.51392786616816e+001,-7.81263567017526e-001

2.94853843458219e+004,-2.51392868329295e+001,-7.92169319928244e-001

2.98969849726987e+004,-2.51392952338877e+001,-8.03227299583968e-001

3.03143313302078e+004,-2.51393038710137e+001,-8.14439630485305e-001

3.07375036257601e+004,-2.51393127509461e+001,-8.25808466769418e-001

3.11665831864199e+004,-2.51393218805102e+001,-8.37335992621446e-001

3.16016524745350e+004,-2.51393312667231e+001,-8.49024422692627e-001

3.20427951035848e+004,-2.51393409167991e+001,-8.60876002526258e-001

3.24900958542493e+004,-2.51393508381553e+001,-8.72893008986090e-001

3.29436406907028e+004,-2.51393610384174e+001,-8.85077750693964e-001

3.34035167771346e+004,-2.51393715254251e+001,-8.97432568471274e-001

3.38698124945009e+004,-2.51393823072389e+001,-9.09959835786515e-001

3.43426174575100e+004,-2.51393933921452e+001,-9.22661959212050e-001

3.48220225318448e+004,-2.51394047886639e+001,-9.35541378882490e-001

3.53081198516260e+004,-2.51394165055540e+001,-9.48600568963693e-001

3.58010028371187e+004,-2.51394285518208e+001,-9.61842038124727e-001

3.63007662126863e+004,-2.51394409367226e+001,-9.75268330019859e-001

3.68075060249948e+004,-2.51394536697779e+001,-9.88882023775147e-001

3.73213196614721e+004,-2.51394667607728e+001,-1.00268573447997e+000

3.78423058690237e+004,-2.51394802197682e+001,-1.01668211369077e+000

3.83705647730104e+004,-2.51394940571080e+001,-1.03087384993475e+000

3.89061978964912e+004,-2.51395082834266e+001,-1.04526366922769e+000

3.94493081797342e+004,-2.51395229096573e+001,-1.05985433559285e+000

3.99999999999998e+004,-2.51395379470406e+001,-1.07464865159163e+000

4.05583791916010e+004,-2.51395534071330e+001,-1.08964945885707e+000

4.11245530662425e+004,-2.51395693018156e+001,-1.10485963863945e+000

4.16986304336447e+004,-2.51395856433034e+001,-1.12028211235653e+000

4.22807216224550e+004,-2.51396024441547e+001,-1.13591984215096e+000

4.28709385014515e+004,-2.51396197172807e+001,-1.15177583145768e+000

4.34693945010421e+004,-2.51396374759553e+001,-1.16785312557725e+000

4.40762046350642e+004,-2.51396557338254e+001,-1.18415481225822e+000

4.46914855228886e+004,-2.51396745049213e+001,-1.20068402228612e+000

4.53153554118317e+004,-2.51396938036677e+001,-1.21744393008238e+000

4.59479341998812e+004,-2.51397136448945e+001,-1.23443775430965e+000

4.65893434587380e+004,-2.51397340438482e+001,-1.25166875848721e+000

4.72397064571810e+004,-2.51397550162038e+001,-1.26914025161322e+000

4.78991481847569e+004,-2.51397765780766e+001,-1.28685558879701e+000

4.85677953758016e+004,-2.51397987460347e+001,-1.30481817189904e+000

4.92457765337964e+004,-2.51398215371117e+001,-1.32303145017938e+000

4.99332219560642e+004,-2.51398449688198e+001,-1.34149892095595e+000

5.06302637588109e+004,-2.51398690591632e+001,-1.36022413027235e+000

5.13370359025159e+004,-2.51398938266516e+001,-1.37921067357316e+000

5.20536742176771e+004,-2.51399192903151e+001,-1.39846219638890e+000

5.27803164309155e+004,-2.51399454697182e+001,-1.41798239503186e+000

5.35171021914442e+004,-2.51399723849750e+001,-1.43777501729940e+000

5.42641730979066e+004,-2.51400000567646e+001,-1.45784386318891e+000

5.50216727255895e+004,-2.51400285063471e+001,-1.47819278562009e+000

5.57897466540159e+004,-2.51400577555796e+001,-1.49882569116990e+000

5.65685424949235e+004,-2.51400878269334e+001,-1.51974654081533e+000

5.73582099206328e+004,-2.51401187435107e+001,-1.54095935068745e+000

5.81589006928121e+004,-2.51401505290627e+001,-1.56246819283521e+000

5.89707686916437e+004,-2.51401832080079e+001,-1.58427719600007e+000

5.97939699453972e+004,-2.51402168054504e+001,-1.60639054640082e+000

6.06286626604156e+004,-2.51402513471992e+001,-1.62881248852965e+000

6.14750072515201e+004,-2.51402868597885e+001,-1.65154732595777e+000

6.23331663728396e+004,-2.51403233704975e+001,-1.67459942215351e+000

6.32033049490698e+004,-2.51403609073714e+001,-1.69797320131134e+000

6.40855902071694e+004,-2.51403994992431e+001,-1.72167314919033e+000

6.49801917084985e+004,-2.51404391757551e+001,-1.74570381396650e+000

6.58872813814055e+004,-2.51404799673823e+001,-1.77006980709523e+000

6.68070335542691e+004,-2.51405219054552e+001,-1.79477580418554e+000

6.77396249890018e+004,-2.51405650221841e+001,-1.81982654588625e+000

6.86852349150199e+004,-2.51406093506838e+001,-1.84522683878400e+000

6.96440450636895e+004,-2.51406549249986e+001,-1.87098155631414e+000

7.06162397032520e+004,-2.51407017801286e+001,-1.89709563968347e+000

7.16020056742374e+004,-2.51407499520567e+001,-1.92357409880442e+000

7.26015324253724e+004,-2.51407994777758e+001,-1.95042201324289e+000

7.36150120499896e+004,-2.51408503953174e+001,-1.97764453317949e+000

7.46426393229441e+004,-2.51409027437803e+001,-2.00524688038177e+000

7.56846117380472e+004,-2.51409565633610e+001,-2.03323434919098e+000

7.67411295460207e+004,-2.51410118953843e+001,-2.06161230752165e+000

7.78123957929823e+004,-2.51410687823345e+001,-2.09038619787482e+000

7.88986163594682e+004,-2.51411272678887e+001,-2.11956153836342e+000

7.99999999999995e+004,-2.51411873969495e+001,-2.14914392375339e+000

8.11167583832018e+004,-2.51412492156795e+001,-2.17913902651815e+000

8.22491061324848e+004,-2.51413127715369e+001,-2.20955259790508e+000

8.33972608672892e+004,-2.51413781133116e+001,-2.24039046901935e+000

8.45614432449099e+004,-2.51414452911622e+001,-2.27165855191978e+000

8.57418770029029e+004,-2.51415143566548e+001,-2.30336284073007e+000

8.69387890020841e+004,-2.51415853628021e+001,-2.33550941276560e+000

8.81524092701283e+004,-2.51416583641041e+001,-2.36810442967239e+000

8.93829710457770e+004,-2.51417334165896e+001,-2.40115413858463e+000

9.06307108236633e+004,-2.51418105778588e+001,-2.43466487329565e+000

9.18958683997622e+004,-2.51418899071278e+001,-2.46864305544297e+000

9.31786869174758e+004,-2.51419714652734e+001,-2.50309519571224e+000

9.44794129143618e+004,-2.51420553148795e+001,-2.53802789505331e+000

9.57982963695136e+004,-2.51421415202852e+001,-2.57344784591593e+000

9.71355907516031e+004,-2.51422301476337e+001,-2.60936183349750e+000

9.84915530675926e+004,-2.51423212649226e+001,-2.64577673701082e+000

9.98664439121282e+004,-2.51424149420562e+001,-2.68269953096615e+000

1.01260527517622e+005,-2.51425112508982e+001,-2.72013728647013e+000

1.02674071805032e+005,-2.51426102653271e+001,-2.75809717254271e+000

1.04107348435354e+005,-2.51427120612918e+001,-2.79658645744931e+000

1.05560632861831e+005,-2.51428167168702e+001,-2.83561251005224e+000

1.07034204382888e+005,-2.51429243123282e+001,-2.87518280117704e+000

1.08528346195813e+005,-2.51430349301810e+001,-2.91530490499824e+000

1.10043345451179e+005,-2.51431486552557e+001,-2.95598650044304e+000

1.11579493308032e+005,-2.51432655747564e+001,-2.99723537261060e+000

1.13137084989847e+005,-2.51433857783296e+001,-3.03905941421261e+000

1.14716419841265e+005,-2.51435093581335e+001,-3.08146662702919e+000

1.16317801385624e+005,-2.51436364089073e+001,-3.12446512338468e+000

1.17941537383287e+005,-2.51437670280435e+001,-3.16806312764265e+000

1.19587939890794e+005,-2.51439013156618e+001,-3.21226897771792e+000

1.21257325320831e+005,-2.51440393746854e+001,-3.25709112660973e+000

1.22950014503040e+005,-2.51441813109189e+001,-3.30253814395134e+000

1.24666332745679e+005,-2.51443272331287e+001,-3.34861871758175e+000

1.26406609898139e+005,-2.51444772531255e+001,-3.39534165513496e+000

1.28171180414339e+005,-2.51446314858494e+001,-3.44271588564998e+000

1.29960383416997e+005,-2.51447900494566e+001,-3.49075046119997e+000

1.31774562762811e+005,-2.51449530654094e+001,-3.53945455854179e+000

1.33614067108538e+005,-2.51451206585680e+001,-3.58883748078563e+000

1.35479249978003e+005,-2.51452929572851e+001,-3.63890865908455e+000

1.37370469830040e+005,-2.51454700935031e+001,-3.68967765434523e+000

1.39288090127379e+005,-2.51456522028540e+001,-3.74115415895883e+000

1.41232479406504e+005,-2.51458394247620e+001,-3.79334799855273e+000

1.43204011348474e+005,-2.51460319025487e+001,-3.84626913376331e+000

1.45203064850745e+005,-2.51462297835417e+001,-3.89992766202983e+000

1.47230024099979e+005,-2.51464332191860e+001,-3.95433381940900e+000

1.49285278645888e+005,-2.51466423651577e+001,-4.00949798241208e+000

1.51369223476094e+005,-2.51468573814823e+001,-4.06543066986208e+000

1.53482259092041e+005,-2.51470784326547e+001,-4.12214254477319e+000

1.55624791585964e+005,-2.51473056877637e+001,-4.17964441625283e+000

1.57797232718936e+005,-2.51475393206192e+001,-4.23794724142360e+000

1.59999999999999e+005,-2.51477795098828e+001,-4.29706212736907e+000

1.62233516766403e+005,-2.51480264392030e+001,-4.35700033310026e+000

1.64498212264969e+005,-2.51482802973524e+001,-4.41777327154536e+000

1.66794521734578e+005,-2.51485412783702e+001,-4.47939251156120e+000

1.69122886489819e+005,-2.51488095817077e+001,-4.54186977996649e+000

1.71483754005805e+005,-2.51490854123783e+001,-4.60521696359839e+000

1.73877578004168e+005,-2.51493689811108e+001,-4.66944611139171e+000

1.76304818540256e+005,-2.51496605045079e+001,-4.73456943647851e+000

1.78765942091554e+005,-2.51499602052080e+001,-4.80059931831402e+000

1.81261421647326e+005,-2.51502683120520e+001,-4.86754830482120e+000

1.83791736799524e+005,-2.51505850602548e+001,-4.93542911456059e+000

1.86357373834951e+005,-2.51509106915804e+001,-5.00425463892136e+000

1.88958825828723e+005,-2.51512454545232e+001,-5.07403794433627e+000

1.91596592739027e+005,-2.51515896044928e+001,-5.14479227451779e+000

1.94271181503206e+005,-2.51519434040049e+001,-5.21653105271833e+000

1.96983106135185e+005,-2.51523071228765e+001,-5.28926788401107e+000

1.99732887824256e+005,-2.51526810384267e+001,-5.36301655759574e+000

2.02521055035243e+005,-2.51530654356833e+001,-5.43779104912477e+000

2.05348143610063e+005,-2.51534606075940e+001,-5.51360552305259e+000

2.08214696870707e+005,-2.51538668552440e+001,-5.59047433500739e+000

2.11121265723661e+005,-2.51542844880795e+001,-5.66841203418473e+000

2.14068408765776e+005,-2.51547138241365e+001,-5.74743336576266e+000

2.17056692391625e+005,-2.51551551902760e+001,-5.82755327333932e+000

2.20086690902357e+005,-2.51556089224260e+001,-5.90878690139228e+000

2.23158986616063e+005,-2.51560753658292e+001,-5.99114959775818e+000

2.26274169979693e+005,-2.51565548752974e+001,-6.07465691613503e+000

2.29432839682530e+005,-2.51570478154730e+001,-6.15932461860402e+000

2.32635602771247e+005,-2.51575545610973e+001,-6.24516867817318e+000

2.35883074766574e+005,-2.51580754972855e+001,-6.33220528134083e+000

2.39175879781588e+005,-2.51586110198095e+001,-6.42045083067846e+000

2.42514650641661e+005,-2.51591615353875e+001,-6.50992194743490e+000

2.45900029006080e+005,-2.51597274619822e+001,-6.60063547415731e+000

2.49332665491357e+005,-2.51603092291056e+001,-6.69260847733400e+000

2.52813219796278e+005,-2.51609072781325e+001,-6.78585825005268e+000

2.56342360828676e+005,-2.51615220626222e+001,-6.88040231467874e+000

2.59920766833993e+005,-2.51621540486482e+001,-6.97625842554980e+000

2.63549125525621e+005,-2.51628037151371e+001,-7.07344457168704e+000

2.67228134217075e+005,-2.51634715542150e+001,-7.17197897952352e+000

2.70958499956006e+005,-2.51641580715644e+001,-7.27188011564740e+000

2.74740939660078e+005,-2.51648637867895e+001,-7.37316668955964e+000

2.78576180254757e+005,-2.51655892337907e+001,-7.47585765644716e+000

2.82464958813007e+005,-2.51663349611491e+001,-7.57997221996765e+000

2.86408022696948e+005,-2.51671015325209e+001,-7.68552983504796e+000

2.90406129701488e+005,-2.51678895270413e+001,-7.79255021069455e+000

2.94460048199957e+005,-2.51686995397392e+001,-7.90105331281291e+000

2.98570557291775e+005,-2.51695321819625e+001,-8.01105936703868e+000

3.02738446952187e+005,-2.51703880818134e+001,-8.12258886157607e+000

3.06964518184081e+005,-2.51712678845953e+001,-8.23566255004469e+000

3.11249583171928e+005,-2.51721722532709e+001,-8.35030145433203e+000

3.15594465437872e+005,-2.51731018689313e+001,-8.46652686745212e+000

3.19999999999997e+005,-2.51740574312775e+001,-8.58436035640739e+000

3.24467033532806e+005,-2.51750396591128e+001,-8.70382376505299e+000

3.28996424529938e+005,-2.51760492908485e+001,-8.82493921696306e+000

3.33589043469155e+005,-2.51770870850213e+001,-8.94772911829595e+000

3.38245772979638e+005,-2.51781538208237e+001,-9.07221616065734e+000

3.42967508011610e+005,-2.51792502986473e+001,-9.19842332396053e+000

3.47755156008335e+005,-2.51803773406389e+001,-9.32637387928107e+000

3.52609637080511e+005,-2.51815357912710e+001,-9.45609139170357e+000

3.57531884183106e+005,-2.51827265179249e+001,-9.58759972316076e+000

3.62522843294651e+005,-2.51839504114887e+001,-9.72092303526012e+000

3.67583473599047e+005,-2.51852083869687e+001,-9.85608579209853e+000

3.72714747669902e+005,-2.51865013841163e+001,-9.99311276306093e+000

3.77917651657445e+005,-2.51878303680687e+001,-1.01320290256010e+001

3.83193185478053e+005,-2.51891963300050e+001,-1.02728599680035e+001

3.88542363006410e+005,-2.51906002878180e+001,-1.04156312921214e+001

3.93966212270369e+005,-2.51920432868007e+001,-1.05603690160906e+001

3.99465775648511e+005,-2.51935264003494e+001,-1.07070994770151e+001

4.05042110070485e+005,-2.51950507306821e+001,-1.08558493336221e+001

4.10696287220124e+005,-2.51966174095742e+001,-1.10066455688831e+001

4.16429393741414e+005,-2.51982275991096e+001,-1.11595154925987e+001

4.22242531447321e+005,-2.51998824924493e+001,-1.13144867439434e+001

4.28136817531551e+005,-2.52015833146173e+001,-1.14715872939668e+001

4.34113384783250e+005,-2.52033313233030e+001,-1.16308454480476e+001

4.40173381804713e+005,-2.52051278096815e+001,-1.17922898482991e+001

4.46317973232124e+005,-2.52069740992519e+001,-1.19559494759181e+001

4.52548339959385e+005,-2.52088715526932e+001,-1.21218536534773e+001

4.58865679365059e+005,-2.52108215667384e+001,-1.22900320471551e+001

4.65271205542494e+005,-2.52128255750670e+001,-1.24605146688994e+001

4.71766149533147e+005,-2.52148850492163e+001,-1.26333318785201e+001

4.78351759563174e+005,-2.52170014995111e+001,-1.28085143857068e+001

4.85029301283321e+005,-2.52191764760124e+001,-1.29860932519666e+001

4.91800058012158e+005,-2.52214115694851e+001,-1.31660998924767e+001

4.98665330982714e+005,-2.52237084123853e+001,-1.33485660778481e+001

5.05626439592555e+005,-2.52260686798662e+001,-1.35335239357929e+001

5.12684721657352e+005,-2.52284940908042e+001,-1.37210059526926e+001

5.19841533667984e+005,-2.52309864088437e+001,-1.39110449750595e+001

5.27098251051240e+005,-2.52335474434625e+001,-1.41036742108864e+001

5.34456268434150e+005,-2.52361790510558e+001,-1.42989272308792e+001

5.41916999912011e+005,-2.52388831360407e+001,-1.44968379695656e+001

