Freq.,VOut,OutRef

1.00000000000000e+004,-1.93533726774295e+001,-2.69541166488350e-001

1.01395947979003e+004,-1.93533733975521e+001,-2.73303812816312e-001

1.02811382665607e+004,-1.93533741379199e+001,-2.77118983384839e-001

1.04246576084112e+004,-1.93533748991021e+001,-2.80987411389482e-001

1.05701804056138e+004,-1.93533756816840e+001,-2.84909840260703e-001

1.07177346253629e+004,-1.93533764862670e+001,-2.88887023807372e-001

1.08673486252606e+004,-1.93533773134698e+001,-2.92919726359303e-001

1.10190511587661e+004,-1.93533781639281e+001,-2.97008722915934e-001

1.11728713807222e+004,-1.93533790382961e+001,-3.01154799293012e-001

1.13288388529580e+004,-1.93533799372456e+001,-3.05358752277371e-001

1.14869835499703e+004,-1.93533808614678e+001,-3.09621389776687e-001

1.16473358646846e+004,-1.93533818116733e+001,-3.13943530975474e-001

1.18099266142953e+004,-1.93533827885924e+001,-3.18326006493378e-001

1.19747870461893e+004,-1.93533837929762e+001,-3.22769658543497e-001

1.21419488439505e+004,-1.93533848255969e+001,-3.27275341095258e-001

1.23114441334492e+004,-1.93533858872481e+001,-3.31843920038057e-001

1.24833054890161e+004,-1.93533869787461e+001,-3.36476273348329e-001

1.26575659397028e+004,-1.93533881009301e+001,-3.41173291255725e-001

1.28342589756290e+004,-1.93533892546626e+001,-3.45935876417355e-001

1.30134185544193e+004,-1.93533904408306e+001,-3.50764944089751e-001

1.31950791077289e+004,-1.93533916603460e+001,-3.55661422304005e-001

1.33792755478611e+004,-1.93533929141462e+001,-3.60626252045298e-001

1.35660432744767e+004,-1.93533942031951e+001,-3.65660387433794e-001

1.37554181813974e+004,-1.93533955284837e+001,-3.70764795905277e-001

1.39474366635040e+004,-1.93533968910308e+001,-3.75940458400941e-001

1.41421356237309e+004,-1.93533982918839e+001,-3.81188369553091e-001

1.43395524801583e+004,-1.93533997321198e+001,-3.86509537877272e-001

1.45397251732031e+004,-1.93534012128456e+001,-3.91904985966049e-001

1.47426921729110e+004,-1.93534027351998e+001,-3.97375750684563e-001

1.49484924863494e+004,-1.93534043003525e+001,-4.02922883370469e-001

1.51571656651040e+004,-1.93534059095072e+001,-4.08547450035114e-001

1.53687518128801e+004,-1.93534075639006e+001,-4.14250531570477e-001

1.55832915932100e+004,-1.93534092648047e+001,-4.20033223953854e-001

1.58008262372675e+004,-1.93534110135269e+001,-4.25896638460429e-001

1.60213975517924e+004,-1.93534128114116e+001,-4.31841901875887e-001

1.62450479271247e+004,-1.93534146598410e+001,-4.37870156712221e-001

1.64718203453514e+004,-1.93534165602358e+001,-4.43982561429155e-001

1.67017583885674e+004,-1.93534185140572e+001,-4.50180290654567e-001

1.69349062472505e+004,-1.93534205228068e+001,-4.56464535411765e-001

1.71713087287550e+004,-1.93534225880292e+001,-4.62836503346501e-001

1.74110112659224e+004,-1.93534247113118e+001,-4.69297418960236e-001

1.76540599258131e+004,-1.93534268942868e+001,-4.75848523845558e-001

1.79005014185594e+004,-1.93534291386323e+001,-4.82491076923389e-001

1.81503831063432e+004,-1.93534314460738e+001,-4.89226354684991e-001

1.84037530124975e+004,-1.93534338183847e+001,-4.96055651438998e-001

1.86606598307361e+004,-1.93534362573891e+001,-5.02980279555995e-001

1.89211529345119e+004,-1.93534387649617e+001,-5.10001569725799e-001

1.91852823865052e+004,-1.93534413430300e+001,-5.17120871208612e-001

1.94530989482457e+004,-1.93534439935762e+001,-5.24339552094921e-001

1.97246540898671e+004,-1.93534467186374e+001,-5.31658999571768e-001

1.99999999999999e+004,-1.93534495203087e+001,-5.39080620183274e-001

2.02791895958005e+004,-1.93534524007437e+001,-5.46605840106168e-001

2.05622765331213e+004,-1.93534553621565e+001,-5.54236105420250e-001

2.08493152168224e+004,-1.93534584068238e+001,-5.61972882387008e-001

2.11403608112276e+004,-1.93534615370859e+001,-5.69817657731015e-001

2.14354692507258e+004,-1.93534647553492e+001,-5.77771938926003e-001

2.17346972505211e+004,-1.93534680640876e+001,-5.85837254483766e-001

2.20381023175322e+004,-1.93534714658444e+001,-5.94015154247683e-001

2.23457427614443e+004,-1.93534749632347e+001,-6.02307209690287e-001

2.26576777059159e+004,-1.93534785589468e+001,-6.10715014214586e-001

2.29739670999406e+004,-1.93534822557448e+001,-6.19240183460611e-001

2.32946717293690e+004,-1.93534860564705e+001,-6.27884355615252e-001

2.36198532285905e+004,-1.93534899640455e+001,-6.36649191725942e-001

2.39495740923785e+004,-1.93534939814734e+001,-6.45536376021081e-001

2.42838976879009e+004,-1.93534981118424e+001,-6.54547616233046e-001

2.46228882668982e+004,-1.93535023583276e+001,-6.63684643923127e-001

2.49666109780322e+004,-1.93535067241931e+001,-6.72949214818622e-001

2.53151318794055e+004,-1.93535112127948e+001,-6.82343109145576e-001

2.56685179512580e+004,-1.93535158275832e+001,-6.91868131972765e-001

2.60268371088386e+004,-1.93535205721055e+001,-7.01526113558030e-001

2.63901582154578e+004,-1.93535254500087e+001,-7.11318909698144e-001

2.67585510957221e+004,-1.93535304650423e+001,-7.21248402085639e-001

2.71320865489533e+004,-1.93535356210613e+001,-7.31316498670940e-001

2.75108363627948e+004,-1.93535409220289e+001,-7.41525134026257e-001

2.78948733270080e+004,-1.93535463720198e+001,-7.51876269718995e-001

2.82842712474618e+004,-1.93535519752231e+001,-7.62371894686426e-001

2.86791049603164e+004,-1.93535577359458e+001,-7.73014025618839e-001

2.90794503464061e+004,-1.93535636586161e+001,-7.83804707343907e-001

2.94853843458219e+004,-1.93535697477863e+001,-7.94746013221585e-001

2.98969849726987e+004,-1.93535760081369e+001,-8.05840045540840e-001

3.03143313302078e+004,-1.93535824444798e+001,-8.17088935922760e-001

3.07375036257601e+004,-1.93535890617623e+001,-8.28494845729117e-001

3.11665831864199e+004,-1.93535958650708e+001,-8.40059966476786e-001

3.16016524745350e+004,-1.93536028596344e+001,-8.51786520259382e-001

3.20427951035848e+004,-1.93536100508294e+001,-8.63676760171953e-001

3.24900958542493e+004,-1.93536174441832e+001,-8.75732970743395e-001

3.29436406907028e+004,-1.93536250453784e+001,-8.87957468375306e-001

3.34035167771346e+004,-1.93536328602576e+001,-9.00352601783997e-001

3.38698124945009e+004,-1.93536408948272e+001,-9.12920752453261e-001

3.43426174575100e+004,-1.93536491552628e+001,-9.25664335089737e-001

3.48220225318448e+004,-1.93536576479133e+001,-9.38585798085637e-001

3.53081198516260e+004,-1.93536663793063e+001,-9.51687623987847e-001

3.58010028371187e+004,-1.93536753561526e+001,-9.64972329974149e-001

3.63007662126863e+004,-1.93536845853518e+001,-9.78442468336475e-001

3.68075060249948e+004,-1.93536940739972e+001,-9.92100626969049e-001

3.73213196614721e+004,-1.93537038293817e+001,-1.00594942986254e+000

3.78423058690237e+004,-1.93537138590030e+001,-1.01999153761054e+000

3.83705647730104e+004,-1.93537241705695e+001,-1.03422964791676e+000

3.89061978964912e+004,-1.93537347720064e+001,-1.04866649611257e+000

3.94493081797342e+004,-1.93537456714615e+001,-1.06330485567948e+000

3.99999999999998e+004,-1.93537568773114e+001,-1.07814753878382e+000

4.05583791916010e+004,-1.93537683981685e+001,-1.09319739681111e+000

4.11245530662425e+004,-1.93537802428870e+001,-1.10845732091518e+000

4.16986304336447e+004,-1.93537924205700e+001,-1.12393024256995e+000

4.22807216224550e+004,-1.93538049405761e+001,-1.13961913413232e+000

4.28709385014515e+004,-1.93538178125274e+001,-1.15552700940900e+000

4.34693945010421e+004,-1.93538310463160e+001,-1.17165692423539e+000

4.40762046350642e+004,-1.93538446521122e+001,-1.18801197705914e+000

4.46914855228886e+004,-1.93538586403719e+001,-1.20459530953405e+000

4.53153554118317e+004,-1.93538730218450e+001,-1.22141010712002e+000

4.59479341998812e+004,-1.93538878075833e+001,-1.23845959969384e+000

4.65893434587380e+004,-1.93539030089493e+001,-1.25574706216599e+000

4.72397064571810e+004,-1.93539186376247e+001,-1.27327581510686e+000

4.78991481847569e+004,-1.93539347056193e+001,-1.29104922538407e+000

4.85677953758016e+004,-1.93539512252806e+001,-1.30907070680236e+000

4.92457765337964e+004,-1.93539682093027e+001,-1.32734372076038e+000

4.99332219560642e+004,-1.93539856707369e+001,-1.34587177690864e+000

5.06302637588109e+004,-1.93540036230007e+001,-1.36465843382414e+000

5.13370359025159e+004,-1.93540220798887e+001,-1.38370729968634e+000

5.20536742176771e+004,-1.93540410555831e+001,-1.40302203297053e+000

5.27803164309155e+004,-1.93540605646646e+001,-1.42260634314371e+000

5.35171021914442e+004,-1.93540806221236e+001,-1.44246399137415e+000

5.42641730979066e+004,-1.93541012433713e+001,-1.46259879125091e+000

5.50216727255895e+004,-1.93541224442523e+001,-1.48301460951034e+000

5.57897466540159e+004,-1.93541442410560e+001,-1.50371536677448e+000

5.65685424949235e+004,-1.93541666505294e+001,-1.52470503830055e+000

5.73582099206328e+004,-1.93541896898903e+001,-1.54598765473828e+000

5.81589006928121e+004,-1.93542133768396e+001,-1.56756730289992e+000

5.89707686916437e+004,-1.93542377295760e+001,-1.58944812653893e+000

5.97939699453972e+004,-1.93542627668090e+001,-1.61163432714116e+000

6.06286626604156e+004,-1.93542885077738e+001,-1.63413016472517e+000

6.14750072515201e+004,-1.93543149722458e+001,-1.65693995865481e+000

6.23331663728396e+004,-1.93543421805560e+001,-1.68006808846274e+000

6.32033049490698e+004,-1.93543701536060e+001,-1.70351899468446e+000

6.40855902071694e+004,-1.93543989128851e+001,-1.72729717970364e+000

6.49801917084985e+004,-1.93544284804855e+001,-1.75140720861106e+000

6.58872813814055e+004,-1.93544588791203e+001,-1.77585371007297e+000

6.68070335542691e+004,-1.93544901321403e+001,-1.80064137721198e+000

6.77396249890018e+004,-1.93545222635519e+001,-1.82577496850081e+000

6.86852349150199e+004,-1.93545552980358e+001,-1.85125930866688e+000

6.96440450636895e+004,-1.93545892609659e+001,-1.87709928961057e+000

7.06162397032520e+004,-1.93546241784282e+001,-1.90329987133514e+000

7.16020056742374e+004,-1.93546600772416e+001,-1.92986608288964e+000

7.26015324253724e+004,-1.93546969849777e+001,-1.95680302332406e+000

7.36150120499896e+004,-1.93547349299825e+001,-1.98411586265835e+000

7.46426393229441e+004,-1.93547739413975e+001,-2.01180984286501e+000

7.56846117380472e+004,-1.93548140491826e+001,-2.03989027886214e+000

7.67411295460207e+004,-1.93548552841388e+001,-2.06836255952454e+000

7.78123957929823e+004,-1.93548976779317e+001,-2.09723214870374e+000

7.88986163594682e+004,-1.93549412631158e+001,-2.12650458626560e+000

7.99999999999995e+004,-1.93549860731593e+001,-2.15618548914020e+000

8.11167583832018e+004,-1.93550321424700e+001,-2.18628055238591e+000

8.22491061324848e+004,-1.93550795064214e+001,-2.21679555026764e+000

8.33972608672892e+004,-1.93551282013798e+001,-2.24773633735160e+000

8.45614432449099e+004,-1.93551782647321e+001,-2.27910884961171e+000

8.57418770029029e+004,-1.93552297349146e+001,-2.31091910555302e+000

8.69387890020841e+004,-1.93552826514419e+001,-2.34317320735026e+000

8.81524092701283e+004,-1.93553370549376e+001,-2.37587734200100e+000

8.93829710457770e+004,-1.93553929871653e+001,-2.40903778249361e+000

9.06307108236633e+004,-1.93554504910602e+001,-2.44266088899271e+000

9.18958683997622e+004,-1.93555096107622e+001,-2.47675311003889e+000

9.31786869174758e+004,-1.93555703916495e+001,-2.51132098376576e+000

9.44794129143618e+004,-1.93556328803734e+001,-2.54637113913161e+000

9.57982963695136e+004,-1.93556971248937e+001,-2.58191029716908e+000

9.71355907516031e+004,-1.93557631745156e+001,-2.61794527225141e+000

9.84915530675926e+004,-1.93558310799270e+001,-2.65448297337349e+000

9.98664439121282e+004,-1.93559008932377e+001,-2.69153040545284e+000

1.01260527517622e+005,-1.93559726680186e+001,-2.72909467064542e+000

1.02674071805032e+005,-1.93560464593430e+001,-2.76718296968117e+000

1.04107348435354e+005,-1.93561223238284e+001,-2.80580260321454e+000

1.05560632861831e+005,-1.93562003196798e+001,-2.84496097319466e+000

1.07034204382888e+005,-1.93562805067341e+001,-2.88466558425416e+000

1.08528346195813e+005,-1.93563629465054e+001,-2.92492404511362e+000

1.10043345451179e+005,-1.93564477022324e+001,-2.96574407000784e+000

1.11579493308032e+005,-1.93565348389262e+001,-3.00713348012730e+000

1.13137084989847e+005,-1.93566244234201e+001,-3.04910020508178e+000

1.14716419841265e+005,-1.93567165244200e+001,-3.09165228438103e+000

1.16317801385624e+005,-1.93568112125577e+001,-3.13479786893517e+000

1.17941537383287e+005,-1.93569085604435e+001,-3.17854522257523e+000

1.19587939890794e+005,-1.93570086427221e+001,-3.22290272359250e+000

1.21257325320831e+005,-1.93571115361296e+001,-3.26787886629823e+000

1.22950014503040e+005,-1.93572173195512e+001,-3.31348226260446e+000

1.24666332745679e+005,-1.93573260740818e+001,-3.35972164362352e+000

1.26406609898139e+005,-1.93574378830872e+001,-3.40660586128903e+000

1.28171180414339e+005,-1.93575528322678e+001,-3.45414388999817e+000

1.29960383416997e+005,-1.93576710097234e+001,-3.50234482827359e+000

1.31774562762811e+005,-1.93577925060202e+001,-3.55121790044826e+000

1.33614067108538e+005,-1.93579174142598e+001,-3.60077245837077e+000

1.35479249978003e+005,-1.93580458301494e+001,-3.65101798313141e+000

1.37370469830040e+005,-1.93581778520749e+001,-3.70196408681270e+000

1.39288090127379e+005,-1.93583135811749e+001,-3.75362051425980e+000

1.41232479406504e+005,-1.93584531214179e+001,-3.80599714487331e+000

1.43204011348474e+005,-1.93585965796809e+001,-3.85910399442637e+000

1.45203064850745e+005,-1.93587440658303e+001,-3.91295121690169e+000

1.47230024099979e+005,-1.93588956928049e+001,-3.96754910635500e+000

1.49285278645888e+005,-1.93590515767018e+001,-4.02290809879800e+000

1.51369223476094e+005,-1.93592118368639e+001,-4.07903877410717e+000

1.53482259092041e+005,-1.93593765959702e+001,-4.13595185795545e+000

1.55624791585964e+005,-1.93595459801284e+001,-4.19365822376696e+000

1.57797232718936e+005,-1.93597201189703e+001,-4.25216889469625e+000

1.59999999999999e+005,-1.93598991457498e+001,-4.31149504563225e+000

1.62233516766403e+005,-1.93600831974429e+001,-4.37164800522527e+000

1.64498212264969e+005,-1.93602724148517e+001,-4.43263925793912e+000

1.66794521734578e+005,-1.93604669427101e+001,-4.49448044612814e+000

1.69122886489819e+005,-1.93606669297926e+001,-4.55718337213887e+000

1.71483754005805e+005,-1.93608725290271e+001,-4.62076000043649e+000

1.73877578004168e+005,-1.93610838976094e+001,-4.68522245975688e+000

1.76304818540256e+005,-1.93613011971211e+001,-4.75058304528429e+000

1.78765942091554e+005,-1.93615245936518e+001,-4.81685422085311e+000

1.81261421647326e+005,-1.93617542579235e+001,-4.88404862117721e+000

1.83791736799524e+005,-1.93619903654184e+001,-4.95217905410439e+000

1.86357373834951e+005,-1.93622330965112e+001,-5.02125850289538e+000

1.88958825828723e+005,-1.93624826366035e+001,-5.09130012853222e+000

1.91596592739027e+005,-1.93627391762634e+001,-5.16231727204879e+000

1.94271181503206e+005,-1.93630029113675e+001,-5.23432345689141e+000

1.96983106135185e+005,-1.93632740432478e+001,-5.30733239130333e+000

1.99732887824256e+005,-1.93635527788420e+001,-5.38135797073704e+000

2.02521055035243e+005,-1.93638393308480e+001,-5.45641428029293e+000

2.05348143610063e+005,-1.93641339178825e+001,-5.53251559718452e+000

2.08214696870707e+005,-1.93644367646442e+001,-5.60967639323121e+000

2.11121265723661e+005,-1.93647481020807e+001,-5.68791133737605e+000

2.14068408765776e+005,-1.93650681675608e+001,-5.76723529823344e+000

2.17056692391625e+005,-1.93653972050509e+001,-5.84766334666052e+000

2.20086690902357e+005,-1.93657354652955e+001,-5.92921075835797e+000

2.23158986616063e+005,-1.93660832060044e+001,-6.01189301649652e+000

2.26274169979693e+005,-1.93664406920426e+001,-6.09572581437077e+000

2.29432839682530e+005,-1.93668081956272e+001,-6.18072505808011e+000

2.32635602771247e+005,-1.93671859965282e+001,-6.26690686923629e+000

2.35883074766574e+005,-1.93675743822753e+001,-6.35428758769826e+000

2.39175879781588e+005,-1.93679736483705e+001,-6.44288377433323e+000

2.42514650641661e+005,-1.93683840985054e+001,-6.53271221380430e+000

2.45900029006080e+005,-1.93688060447848e+001,-6.62378991738597e+000

2.49332665491357e+005,-1.93692398079566e+001,-6.71613412580442e+000

2.52813219796278e+005,-1.93696857176470e+001,-6.80976231210528e+000

2.56342360828676e+005,-1.93701441126023e+001,-6.90469218454655e+000

2.59920766833993e+005,-1.93706153409371e+001,-7.00094168951842e+000

2.63549125525621e+005,-1.93710997603887e+001,-7.09852901448802e+000

2.67228134217075e+005,-1.93715977385787e+001,-7.19747259096968e+000

2.70958499956006e+005,-1.93721096532807e+001,-7.29779109752084e+000

2.74740939660078e+005,-1.93726358926959e+001,-7.39950346276230e+000

2.78576180254757e+005,-1.93731768557346e+001,-7.50262886842282e+000

2.82464958813007e+005,-1.93737329523065e+001,-7.60718675240831e+000

2.86408022696948e+005,-1.93743046036175e+001,-7.71319681189467e+000

2.90406129701488e+005,-1.93748922424741e+001,-7.82067900644301e+000

2.94460048199957e+005,-1.93754963135963e+001,-7.92965356113957e+000

2.98570557291775e+005,-1.93761172739383e+001,-8.04014096975540e+000

3.02738446952187e+005,-1.93767555930171e+001,-8.15216199793012e+000

3.06964518184081e+005,-1.93774117532495e+001,-8.26573768637514e+000

3.11249583171928e+005,-1.93780862502984e+001,-8.38088935409803e+000

3.15594465437872e+005,-1.93787795934270e+001,-8.49763860164693e+000

3.19999999999997e+005,-1.93794923058624e+001,-8.61600731437343e+000

3.24467033532806e+005,-1.93802249251684e+001,-8.73601766571444e+000

3.28996424529938e+005,-1.93809780036274e+001,-8.85769212049072e+000

3.33589043469155e+005,-1.93817521086324e+001,-8.98105343822268e+000

3.38245772979638e+005,-1.93825478230878e+001,-9.10612467646164e+000

3.42967508011610e+005,-1.93833657458216e+001,-9.23292919413545e+000

3.47755156008335e+005,-1.93842064920064e+001,-9.36149065490834e+000

3.52609637080511e+005,-1.93850706935916e+001,-9.49183303055293e+000

3.57531884183106e+005,-1.93859589997460e+001,-9.62398060433322e+000

3.62522843294651e+005,-1.93868720773112e+001,-9.75795797439837e+000

3.67583473599047e+005,-1.93878106112663e+001,-9.89379005718480e+000

3.72714747669902e+005,-1.93887753052034e+001,-1.00315020908261e+001

3.77917651657445e+005,-1.93897668818149e+001,-1.01711196385682e+001

3.83193185478053e+005,-1.93907860833926e+001,-1.03126685921902e+001

3.88542363006410e+005,-1.93918336723383e+001,-1.04561751754262e+001

3.93966212270369e+005,-1.93929104316870e+001,-1.06016659473904e+001

3.99465775648511e+005,-1.93940171656422e+001,-1.07491678059998e+001

4.05042110070485e+005,-1.93951547001239e+001,-1.08987079913957e+001

4.10696287220124e+005,-1.93963238833291e+001,-1.10503140893594e+001

4.16429393741414e+005,-1.93975255863061e+001,-1.12040140347228e+001

4.22242531447321e+005,-1.93987607035408e+001,-1.13598361147697e+001

4.28136817531551e+005,-1.94000301535579e+001,-1.15178089726260e+001

4.34113384783250e+005,-1.94013348795345e+001,-1.16779616106374e+001

4.40173381804713e+005,-1.94026758499282e+001,-1.18403233937306e+001

4.46317973232124e+005,-1.94040540591197e+001,-1.20049240527569e+001

4.52548339959385e+005,-1.94054705280684e+001,-1.21717936878148e+001

4.58865679365059e+005,-1.94069263049840e+001,-1.23409627715486e+001

4.65271205542494e+005,-1.94084224660118e+001,-1.25124621524207e+001

4.71766149533147e+005,-1.94099601159330e+001,-1.26863230579544e+001

4.78351759563174e+005,-1.94115403888806e+001,-1.28625770979433e+001

4.85029301283321e+005,-1.94131644490700e+001,-1.30412562676255e+001

4.91800058012158e+005,-1.94148334915453e+001,-1.32223929508174e+001

4.98665330982714e+005,-1.94165487429407e+001,-1.34060199230054e+001

5.05626439592555e+005,-1.94183114622588e+001,-1.35921703543898e+001

5.12684721657352e+005,-1.94201229416630e+001,-1.37808778128787e+001

5.19841533667984e+005,-1.94219845072877e+001,-1.39721762670277e+001

5.27098251051240e+005,-1.94238975200634e+001,-1.41661000889197e+001

5.34456268434150e+005,-1.94258633765587e+001,-1.43626840569828e+001

5.41916999912011e+005,-1.94278835098379e+001,-1.45619633587402e+001

