Freq.,VOut,OutRef

1.00000000000000e+004,-3.50643631007370e+001,-1.24810195494567e-001

1.01395947979003e+004,-3.50643633299535e+001,-1.26552479625777e-001

1.02811382665607e+004,-3.50643635656143e+001,-1.28319085082559e-001

1.04246576084112e+004,-3.50643638079002e+001,-1.30110351377281e-001

1.05701804056138e+004,-3.50643640569978e+001,-1.31926622758750e-001

1.07177346253629e+004,-3.50643643130986e+001,-1.33768248281437e-001

1.08673486252606e+004,-3.50643645763993e+001,-1.35635581875850e-001

1.10190511587661e+004,-3.50643648471021e+001,-1.37528982409810e-001

1.11728713807222e+004,-3.50643651254156e+001,-1.39448813760574e-001

1.13288388529580e+004,-3.50643654115535e+001,-1.41395444886260e-001

1.14869835499703e+004,-3.50643657057359e+001,-1.43369249893820e-001

1.16473358646846e+004,-3.50643660081889e+001,-1.45370608114175e-001

1.18099266142953e+004,-3.50643663191450e+001,-1.47399904172420e-001

1.19747870461893e+004,-3.50643666388430e+001,-1.49457528063869e-001

1.21419488439505e+004,-3.50643669675291e+001,-1.51543875224330e-001

1.23114441334492e+004,-3.50643673054557e+001,-1.53659346614062e-001

1.24833054890161e+004,-3.50643676528828e+001,-1.55804348786152e-001

1.26575659397028e+004,-3.50643680100773e+001,-1.57979293973267e-001

1.28342589756290e+004,-3.50643683773139e+001,-1.60184600158258e-001

1.30134185544193e+004,-3.50643687548750e+001,-1.62420691160663e-001

1.31950791077289e+004,-3.50643691430506e+001,-1.64687996716438e-001

1.33792755478611e+004,-3.50643695421394e+001,-1.66986952559159e-001

1.35660432744767e+004,-3.50643699524480e+001,-1.69318000505773e-001

1.37554181813974e+004,-3.50643703742919e+001,-1.71681588540071e-001

1.39474366635040e+004,-3.50643708079955e+001,-1.74078170898868e-001

1.41421356237309e+004,-3.50643712538920e+001,-1.76508208160390e-001

1.43395524801583e+004,-3.50643717123244e+001,-1.78972167331316e-001

1.45397251732031e+004,-3.50643721836451e+001,-1.81470521938019e-001

1.47426921729110e+004,-3.50643726682163e+001,-1.84003752116446e-001

1.49484924863494e+004,-3.50643731664106e+001,-1.86572344704562e-001

1.51571656651040e+004,-3.50643736786110e+001,-1.89176793336017e-001

1.53687518128801e+004,-3.50643742052112e+001,-1.91817598535099e-001

1.55832915932100e+004,-3.50643747466162e+001,-1.94495267812988e-001

1.58008262372675e+004,-3.50643753032421e+001,-1.97210315765097e-001

1.60213975517924e+004,-3.50643758755167e+001,-1.99963264171021e-001

1.62450479271247e+004,-3.50643764638802e+001,-2.02754642091121e-001

1.64718203453514e+004,-3.50643770687847e+001,-2.05584985972869e-001

1.67017583885674e+004,-3.50643776906954e+001,-2.08454839751476e-001

1.69349062472505e+004,-3.50643783300901e+001,-2.11364754955321e-001

1.71713087287550e+004,-3.50643789874607e+001,-2.14315290809885e-001

1.74110112659224e+004,-3.50643796633125e+001,-2.17307014347880e-001

1.76540599258131e+004,-3.50643803581648e+001,-2.20340500517731e-001

1.79005014185594e+004,-3.50643810725521e+001,-2.23416332290969e-001

1.81503831063432e+004,-3.50643818070234e+001,-2.26535100778410e-001

1.84037530124975e+004,-3.50643825621433e+001,-2.29697405343143e-001

1.86606598307361e+004,-3.50643833384925e+001,-2.32903853711341e-001

1.89211529345119e+004,-3.50643841366677e+001,-2.36155062094707e-001

1.91852823865052e+004,-3.50643849572825e+001,-2.39451655305161e-001

1.94530989482457e+004,-3.50643858009679e+001,-2.42794266876140e-001

1.97246540898671e+004,-3.50643866683723e+001,-2.46183539184493e-001

1.99999999999999e+004,-3.50643875601626e+001,-2.49620123574559e-001

2.02791895958005e+004,-3.50643884770242e+001,-2.53104680481523e-001

2.05622765331213e+004,-3.50643894196624e+001,-2.56637879557549e-001

2.08493152168224e+004,-3.50643903888014e+001,-2.60220399804864e-001

2.11403608112276e+004,-3.50643913851865e+001,-2.63852929702225e-001

2.14354692507258e+004,-3.50643924095836e+001,-2.67536167338573e-001

2.17346972505211e+004,-3.50643934627801e+001,-2.71270820546567e-001

2.20381023175322e+004,-3.50643945455858e+001,-2.75057607038975e-001

2.23457427614443e+004,-3.50643956588331e+001,-2.78897254547075e-001

2.26576777059159e+004,-3.50643968033777e+001,-2.82790500959492e-001

2.29739670999406e+004,-3.50643979800997e+001,-2.86738094464388e-001

2.32946717293690e+004,-3.50643991899035e+001,-2.90740793693422e-001

2.36198532285905e+004,-3.50644004337192e+001,-2.94799367867338e-001

2.39495740923785e+004,-3.50644017125030e+001,-2.98914596943185e-001

2.42838976879009e+004,-3.50644030272380e+001,-3.03087271765687e-001

2.46228882668982e+004,-3.50644043789348e+001,-3.07318194216650e-001

2.49666109780322e+004,-3.50644057686327e+001,-3.11608177371248e-001

2.53151318794055e+004,-3.50644071973998e+001,-3.15958045653872e-001

2.56685179512580e+004,-3.50644086663348e+001,-3.20368634994910e-001

2.60268371088386e+004,-3.50644101765666e+001,-3.24840792993432e-001

2.63901582154578e+004,-3.50644117292563e+001,-3.29375379078903e-001

2.67585510957221e+004,-3.50644133255976e+001,-3.33973264675982e-001

2.71320865489533e+004,-3.50644149668176e+001,-3.38635333372683e-001

2.75108363627948e+004,-3.50644166541780e+001,-3.43362481089546e-001

2.78948733270080e+004,-3.50644183889759e+001,-3.48155616251821e-001

2.82842712474618e+004,-3.50644201725451e+001,-3.53015659963955e-001

2.86791049603164e+004,-3.50644220062566e+001,-3.57943546186924e-001

2.90794503464061e+004,-3.50644238915200e+001,-3.62940221917533e-001

2.94853843458219e+004,-3.50644258297847e+001,-3.68006647368868e-001

2.98969849726987e+004,-3.50644278225406e+001,-3.73143796157927e-001

3.03143313302078e+004,-3.50644298713197e+001,-3.78352655488394e-001

3.07375036257601e+004,-3.50644319776970e+001,-3.83634226343185e-001

3.11665831864199e+004,-3.50644341432915e+001,-3.88989523677697e-001

3.16016524745350e+004,-3.50644363697684e+001,-3.94419576609307e-001

3.20427951035848e+004,-3.50644386588390e+001,-3.99925428622200e-001

3.24900958542493e+004,-3.50644410122630e+001,-4.05508137762878e-001

3.29436406907028e+004,-3.50644434318497e+001,-4.11168776843058e-001

3.34035167771346e+004,-3.50644459194589e+001,-4.16908433650595e-001

3.38698124945009e+004,-3.50644484770031e+001,-4.22728211151662e-001

3.43426174575100e+004,-3.50644511064483e+001,-4.28629227708617e-001

3.48220225318448e+004,-3.50644538098159e+001,-4.34612617290723e-001

3.53081198516260e+004,-3.50644565891838e+001,-4.40679529694065e-001

3.58010028371187e+004,-3.50644594466890e+001,-4.46831130759596e-001

3.63007662126863e+004,-3.50644623845278e+001,-4.53068602601739e-001

3.68075060249948e+004,-3.50644654049587e+001,-4.59393143830310e-001

3.73213196614721e+004,-3.50644685103035e+001,-4.65805969783682e-001

3.78423058690237e+004,-3.50644717029496e+001,-4.72308312760802e-001

3.83705647730104e+004,-3.50644749853511e+001,-4.78901422258473e-001

3.89061978964912e+004,-3.50644783600311e+001,-4.85586565211786e-001

3.94493081797342e+004,-3.50644818295839e+001,-4.92365026235011e-001

3.99999999999998e+004,-3.50644853966767e+001,-4.99238107870824e-001

4.05583791916010e+004,-3.50644890640516e+001,-5.06207130838000e-001

4.11245530662425e+004,-3.50644928345275e+001,-5.13273434288477e-001

4.16986304336447e+004,-3.50644967110029e+001,-5.20438376059867e-001

4.22807216224550e+004,-3.50645006964579e+001,-5.27703332938198e-001

4.28709385014515e+004,-3.50645047939559e+001,-5.35069700924167e-001

4.34693945010421e+004,-3.50645090066468e+001,-5.42538895497238e-001

4.40762046350642e+004,-3.50645133377689e+001,-5.50112351890166e-001

4.46914855228886e+004,-3.50645177906516e+001,-5.57791525362960e-001

4.53153554118317e+004,-3.50645223687177e+001,-5.65577891483390e-001

4.59479341998812e+004,-3.50645270754864e+001,-5.73472946408702e-001

4.65893434587380e+004,-3.50645319145759e+001,-5.81478207173119e-001

4.72397064571810e+004,-3.50645368897057e+001,-5.89595211980725e-001

4.78991481847569e+004,-3.50645420047004e+001,-5.97825520496834e-001

4.85677953758016e+004,-3.50645472634918e+001,-6.06170714150968e-001

4.92457765337964e+004,-3.50645526701222e+001,-6.14632396438728e-001

4.99332219560642e+004,-3.50645582287476e+001,-6.23212193228967e-001

5.06302637588109e+004,-3.50645639436408e+001,-6.31911753075724e-001

5.13370359025159e+004,-3.50645698191949e+001,-6.40732747536149e-001

5.20536742176771e+004,-3.50645758599259e+001,-6.49676871489120e-001

5.27803164309155e+004,-3.50645820704776e+001,-6.58745843459973e-001

5.35171021914442e+004,-3.50645884556237e+001,-6.67941405952971e-001

5.42641730979066e+004,-3.50645950202722e+001,-6.77265325782620e-001

5.50216727255895e+004,-3.50646017694692e+001,-6.86719394413825e-001

5.57897466540159e+004,-3.50646087084024e+001,-6.96305428305157e-001

5.65685424949235e+004,-3.50646158424058e+001,-7.06025269256626e-001

5.73582099206328e+004,-3.50646231769626e+001,-7.15880784763947e-001

5.81589006928121e+004,-3.50646307177108e+001,-7.25873868375300e-001

5.89707686916437e+004,-3.50646384704466e+001,-7.36006440055023e-001

5.97939699453972e+004,-3.50646464411290e+001,-7.46280446552007e-001

6.06286626604156e+004,-3.50646546358845e+001,-7.56697861772562e-001

6.14750072515201e+004,-3.50646630610122e+001,-7.67260687157054e-001

6.23331663728396e+004,-3.50646717229876e+001,-7.77970952067149e-001

6.32033049490698e+004,-3.50646806284689e+001,-7.88830714170417e-001

6.40855902071694e+004,-3.50646897843009e+001,-7.99842059838406e-001

6.49801917084985e+004,-3.50646991975210e+001,-8.11007104543864e-001

6.58872813814055e+004,-3.50647088753644e+001,-8.22327993266857e-001

6.68070335542691e+004,-3.50647188252696e+001,-8.33806900906488e-001

6.77396249890018e+004,-3.50647290548843e+001,-8.45446032695259e-001

6.86852349150199e+004,-3.50647395720709e+001,-8.57247624624511e-001

6.96440450636895e+004,-3.50647503849129e+001,-8.69213943870341e-001

7.06162397032520e+004,-3.50647615017211e+001,-8.81347289228012e-001

7.16020056742374e+004,-3.50647729310397e+001,-8.93649991553372e-001

7.26015324253724e+004,-3.50647846816532e+001,-9.06124414207516e-001

7.36150120499896e+004,-3.50647967625928e+001,-9.18772953510132e-001

7.46426393229441e+004,-3.50648091831436e+001,-9.31598039199062e-001

7.56846117380472e+004,-3.50648219528518e+001,-9.44602134892644e-001

7.67411295460207e+004,-3.50648350815315e+001,-9.57787738564482e-001

7.78123957929823e+004,-3.50648485792730e+001,-9.71157383018238e-001

7.88986163594682e+004,-3.50648624564498e+001,-9.84713636375215e-001

7.99999999999995e+004,-3.50648767237274e+001,-9.98459102563359e-001

8.11167583832018e+004,-3.50648913920706e+001,-1.01239642181575e+000

8.22491061324848e+004,-3.50649064727525e+001,-1.02652827117724e+000

8.33972608672892e+004,-3.50649219773631e+001,-1.04085736501377e+000

8.45614432449099e+004,-3.50649379178178e+001,-1.05538645553367e+000

8.57418770029029e+004,-3.50649543063670e+001,-1.07011833331209e+000

8.69387890020841e+004,-3.50649711556055e+001,-1.08505582782523e+000

8.81524092701283e+004,-3.50649884784818e+001,-1.10020180799069e+000

8.93829710457770e+004,-3.50650062883083e+001,-1.11555918271668e+000

9.06307108236633e+004,-3.50650245987716e+001,-1.13113090145613e+000

9.18958683997622e+004,-3.50650434239425e+001,-1.14691995477130e+000

9.31786869174758e+004,-3.50650627782878e+001,-1.16292937490428e+000

9.44794129143618e+004,-3.50650826766802e+001,-1.17916223635659e+000

9.57982963695136e+004,-3.50651031344105e+001,-1.19562165647566e+000

9.71355907516031e+004,-3.50651241671994e+001,-1.21231079604993e+000

9.84915530675926e+004,-3.50651457912088e+001,-1.22923285991231e+000

9.98664439121282e+004,-3.50651680230551e+001,-1.24639109755131e+000

1.01260527517622e+005,-3.50651908798212e+001,-1.26378880373205e+000

1.02674071805032e+005,-3.50652143790705e+001,-1.28142931912188e+000

1.04107348435354e+005,-3.50652385388592e+001,-1.29931603093136e+000

1.05560632861831e+005,-3.50652633777512e+001,-1.31745237355659e+000

1.07034204382888e+005,-3.50652889148318e+001,-1.33584182923571e+000

1.08528346195813e+005,-3.50653151697224e+001,-1.35448792871177e+000

1.10043345451179e+005,-3.50653421625958e+001,-1.37339425190491e+000

1.11579493308032e+005,-3.50653699141913e+001,-1.39256442859615e+000

1.13137084989847e+005,-3.50653984458310e+001,-1.41200213911554e+000

1.14716419841265e+005,-3.50654277794356e+001,-1.43171111504603e+000

1.16317801385624e+005,-3.50654579375420e+001,-1.45169513993052e+000

1.17941537383287e+005,-3.50654889433199e+001,-1.47195804999426e+000

1.19587939890794e+005,-3.50655208205898e+001,-1.49250373487310e+000

1.21257325320831e+005,-3.50655535938414e+001,-1.51333613835372e+000

1.22950014503040e+005,-3.50655872882522e+001,-1.53445925912246e+000

1.24666332745679e+005,-3.50656219297068e+001,-1.55587715152651e+000

1.26406609898139e+005,-3.50656575448168e+001,-1.57759392634345e+000

1.28171180414339e+005,-3.50656941609412e+001,-1.59961375156186e+000

1.29960383416997e+005,-3.50657318062075e+001,-1.62194085317211e+000

1.31774562762811e+005,-3.50657705095329e+001,-1.64457951597007e+000

1.33614067108538e+005,-3.50658103006467e+001,-1.66753408436807e+000

1.35479249978003e+005,-3.50658512101133e+001,-1.69080896321994e+000

1.37370469830040e+005,-3.50658932693551e+001,-1.71440861865574e+000

1.39288090127379e+005,-3.50659365106768e+001,-1.73833757892850e+000

1.41232479406504e+005,-3.50659809672906e+001,-1.76260043527090e+000

1.43204011348474e+005,-3.50660266733407e+001,-1.78720184276621e+000

1.45203064850745e+005,-3.50660736639303e+001,-1.81214652122765e+000

1.47230024099979e+005,-3.50661219751481e+001,-1.83743925609279e+000

1.49285278645888e+005,-3.50661716440959e+001,-1.86308489932788e+000

1.51369223476094e+005,-3.50662227089173e+001,-1.88908837034419e+000

1.53482259092041e+005,-3.50662752088264e+001,-1.91545465692913e+000

1.55624791585964e+005,-3.50663291841382e+001,-1.94218881618655e+000

1.57797232718936e+005,-3.50663846762995e+001,-1.96929597549238e+000

1.59999999999999e+005,-3.50664417279203e+001,-1.99678133346089e+000

1.62233516766403e+005,-3.50665003828068e+001,-2.02465016092523e+000

1.64498212264969e+005,-3.50665606859943e+001,-2.05290780193197e+000

1.66794521734578e+005,-3.50666226837823e+001,-2.08155967474500e+000

1.69122886489819e+005,-3.50666864237699e+001,-2.11061127286760e+000

1.71483754005805e+005,-3.50667519548913e+001,-2.14006816607520e+000

1.73877578004168e+005,-3.50668193274543e+001,-2.16993600146216e+000

1.76304818540256e+005,-3.50668885931783e+001,-2.20022050450368e+000

1.78765942091554e+005,-3.50669598052336e+001,-2.23092748012938e+000

1.81261421647326e+005,-3.50670330182826e+001,-2.26206281381450e+000

1.83791736799524e+005,-3.50671082885209e+001,-2.29363247268161e+000

1.86357373834951e+005,-3.50671856737209e+001,-2.32564250662068e+000

1.88958825828723e+005,-3.50672652332753e+001,-2.35809904942004e+000

1.91596592739027e+005,-3.50673470282429e+001,-2.39100831991541e+000

1.94271181503206e+005,-3.50674311213952e+001,-2.42437662315230e+000

1.96983106135185e+005,-3.50675175772638e+001,-2.45821035156383e+000

1.99732887824256e+005,-3.50676064621906e+001,-2.49251598616351e+000

2.02521055035243e+005,-3.50676978443773e+001,-2.52730009775577e+000

2.05348143610063e+005,-3.50677917939383e+001,-2.56256934815824e+000

2.08214696870707e+005,-3.50678883829540e+001,-2.59833049144386e+000

2.11121265723661e+005,-3.50679876855252e+001,-2.63459037519685e+000

2.14068408765776e+005,-3.50680897778305e+001,-2.67135594178501e+000

2.17056692391625e+005,-3.50681947381837e+001,-2.70863422964923e+000

2.20086690902357e+005,-3.50683026470936e+001,-2.74643237460902e+000

2.23158986616063e+005,-3.50684135873255e+001,-2.78475761118437e+000

2.26274169979693e+005,-3.50685276439642e+001,-2.82361727393572e+000

2.29432839682530e+005,-3.50686449044787e+001,-2.86301879881974e+000

2.32635602771247e+005,-3.50687654587888e+001,-2.90296972456326e+000

2.35883074766574e+005,-3.50688893993335e+001,-2.94347769405320e+000

2.39175879781588e+005,-3.50690168211415e+001,-2.98455045574692e+000

2.42514650641661e+005,-3.50691478219034e+001,-3.02619586509654e+000

2.45900029006080e+005,-3.50692825020457e+001,-3.06842188599405e+000

2.49332665491357e+005,-3.50694209648076e+001,-3.11123659223345e+000

2.52813219796278e+005,-3.50695633163192e+001,-3.15464816899134e+000

2.56342360828676e+005,-3.50697096656822e+001,-3.19866491432502e+000

2.59920766833993e+005,-3.50698601250524e+001,-3.24329524069152e+000

2.63549125525621e+005,-3.50700148097255e+001,-3.28854767648128e+000

2.67228134217075e+005,-3.50701738382241e+001,-3.33443086757559e+000

2.70958499956006e+005,-3.50703373323876e+001,-3.38095357891956e+000

2.74740939660078e+005,-3.50705054174650e+001,-3.42812469611503e+000

2.78576180254757e+005,-3.50706782222093e+001,-3.47595322703366e+000

2.82464958813007e+005,-3.50708558789755e+001,-3.52444830344926e+000

2.86408022696948e+005,-3.50710385238205e+001,-3.57361918268895e+000

2.90406129701488e+005,-3.50712262966064e+001,-3.62347524930464e+000

2.94460048199957e+005,-3.50714193411061e+001,-3.67402601676499e+000

2.98570557291775e+005,-3.50716178051121e+001,-3.72528112916649e+000

3.02738446952187e+005,-3.50718218405485e+001,-3.77725036296485e+000

3.06964518184081e+005,-3.50720316035855e+001,-3.82994362872744e+000

3.11249583171928e+005,-3.50722472547572e+001,-3.88337097290553e+000

3.15594465437872e+005,-3.50724689590832e+001,-3.93754257962714e+000

3.19999999999997e+005,-3.50726968861932e+001,-3.99246877251031e+000

3.24467033532806e+005,-3.50729312104543e+001,-4.04816001649800e+000

3.28996424529938e+005,-3.50731721111031e+001,-4.10462691971306e+000

3.33589043469155e+005,-3.50734197723802e+001,-4.16188023533431e+000

3.38245772979638e+005,-3.50736743836691e+001,-4.21993086349428e+000

3.42967508011610e+005,-3.50739361396392e+001,-4.27878985319621e+000

3.47755156008335e+005,-3.50742052403912e+001,-4.33846840425547e+000

3.52609637080511e+005,-3.50744818916082e+001,-4.39897786925883e+000

3.57531884183106e+005,-3.50747663047102e+001,-4.46032975554732e+000

3.62522843294651e+005,-3.50750586970121e+001,-4.52253572721939e+000

3.67583473599047e+005,-3.50753592918877e+001,-4.58560760715620e+000

3.72714747669902e+005,-3.50756683189362e+001,-4.64955737906723e+000

3.77917651657445e+005,-3.50759860141546e+001,-4.71439718955895e+000

3.83193185478053e+005,-3.50763126201143e+001,-4.78013935022311e+000

3.88542363006410e+005,-3.50766483861426e+001,-4.84679633974776e+000

3.93966212270369e+005,-3.50769935685087e+001,-4.91438080604949e+000

3.99465775648511e+005,-3.50773484306151e+001,-4.98290556842635e+000

4.05042110070485e+005,-3.50777132431946e+001,-5.05238361973322e+000

4.10696287220124e+005,-3.50780882845115e+001,-5.12282812857703e+000

4.16429393741414e+005,-3.50784738405690e+001,-5.19425244153475e+000

4.22242531447321e+005,-3.50788702053223e+001,-5.26667008539113e+000

4.28136817531551e+005,-3.50792776808966e+001,-5.34009476939864e+000

4.34113384783250e+005,-3.50796965778122e+001,-5.41454038755663e+000

4.40173381804713e+005,-3.50801272152140e+001,-5.49002102091348e+000

4.46317973232124e+005,-3.50805699211089e+001,-5.56655093988687e+000

4.52548339959385e+005,-3.50810250326082e+001,-5.64414460660610e+000

4.58865679365059e+005,-3.50814928961769e+001,-5.72281667727384e+000

4.65271205542494e+005,-3.50819738678898e+001,-5.80258200454839e+000

4.71766149533147e+005,-3.50824683136945e+001,-5.88345563994432e+000

4.78351759563174e+005,-3.50829766096809e+001,-5.96545283625415e+000

4.85029301283321e+005,-3.50834991423579e+001,-6.04858904998771e+000

4.91800058012158e+005,-3.50840363089382e+001,-6.13287994383126e+000

4.98665330982714e+005,-3.50845885176293e+001,-6.21834138912403e+000

5.05626439592555e+005,-3.50851561879337e+001,-6.30498946835369e+000

5.12684721657352e+005,-3.50857397509555e+001,-6.39284047766858e+000

5.19841533667984e+005,-3.50863396497160e+001,-6.48191092940779e+000

5.27098251051240e+005,-3.50869563394774e+001,-6.57221755464662e+000

5.34456268434150e+005,-3.50875902880747e+001,-6.66377730576030e+000

5.41916999912011e+005,-3.50882419762565e+001,-6.75660735900044e+000

