Freq.,VOut,OutRef

1.00000000000000e+004,-1.76216678375209e+001,-1.66354748974589e-001

1.01395947979003e+004,-1.76216680579127e+001,-1.68676973257955e-001

1.02811382665607e+004,-1.76216682845007e+001,-1.71031614520781e-001

1.04246576084112e+004,-1.76216685174589e+001,-1.73419125285866e-001

1.05701804056138e+004,-1.76216687569666e+001,-1.75839964390542e-001

1.07177346253629e+004,-1.76216690032075e+001,-1.78294597079869e-001

1.08673486252606e+004,-1.76216692563714e+001,-1.80783495089638e-001

1.10190511587661e+004,-1.76216695166524e+001,-1.83307136745061e-001

1.11728713807222e+004,-1.76216697842511e+001,-1.85866007043734e-001

1.13288388529580e+004,-1.76216700593730e+001,-1.88460597757445e-001

1.14869835499703e+004,-1.76216703422294e+001,-1.91091407521287e-001

1.16473358646846e+004,-1.76216706330381e+001,-1.93758941928860e-001

1.18099266142953e+004,-1.76216709320226e+001,-1.96463713634099e-001

1.19747870461893e+004,-1.76216712394125e+001,-1.99206242447157e-001

1.21419488439505e+004,-1.76216715554444e+001,-2.01987055432311e-001

1.23114441334492e+004,-1.76216718803611e+001,-2.04806687012756e-001

1.24833054890161e+004,-1.76216722144124e+001,-2.07665679071225e-001

1.26575659397028e+004,-1.76216725578552e+001,-2.10564581054282e-001

1.28342589756290e+004,-1.76216729109534e+001,-2.13503950079900e-001

1.30134185544193e+004,-1.76216732739785e+001,-2.16484351040963e-001

1.31950791077289e+004,-1.76216736472096e+001,-2.19506356716603e-001

1.33792755478611e+004,-1.76216740309337e+001,-2.22570547881504e-001

1.35660432744767e+004,-1.76216744254456e+001,-2.25677513417562e-001

1.37554181813974e+004,-1.76216748310487e+001,-2.28827850426359e-001

1.39474366635040e+004,-1.76216752480548e+001,-2.32022164344368e-001

1.41421356237309e+004,-1.76216756767846e+001,-2.35261069059754e-001

1.43395524801583e+004,-1.76216761175675e+001,-2.38545187030821e-001

1.45397251732031e+004,-1.76216765707425e+001,-2.41875149403341e-001

1.47426921729110e+004,-1.76216770366579e+001,-2.45251596133341e-001

1.49484924863494e+004,-1.76216775156718e+001,-2.48675176111667e-001

1.51571656651040e+004,-1.76216780081527e+001,-2.52146547284340e-001

1.53687518128801e+004,-1.76216785144788e+001,-2.55666376784490e-001

1.55832915932100e+004,-1.76216790350399e+001,-2.59235341054737e-001

1.58008262372675e+004,-1.76216795702357e+001,-2.62854125982926e-001

1.60213975517924e+004,-1.76216801204778e+001,-2.66523427029211e-001

1.62450479271247e+004,-1.76216806861893e+001,-2.70243949362347e-001

1.64718203453514e+004,-1.76216812678051e+001,-2.74016407993878e-001

1.67017583885674e+004,-1.76216818657721e+001,-2.77841527918148e-001

1.69349062472505e+004,-1.76216824805503e+001,-2.81720044246351e-001

1.71713087287550e+004,-1.76216831126121e+001,-2.85652702353692e-001

1.74110112659224e+004,-1.76216837624434e+001,-2.89640258018475e-001

1.76540599258131e+004,-1.76216844305439e+001,-2.93683477568823e-001

1.79005014185594e+004,-1.76216851174270e+001,-2.97783138031240e-001

1.81503831063432e+004,-1.76216858236210e+001,-3.01940027276073e-001

1.84037530124975e+004,-1.76216865496686e+001,-3.06154944173590e-001

1.86606598307361e+004,-1.76216872961282e+001,-3.10428698743825e-001

1.89211529345119e+004,-1.76216880635733e+001,-3.14762112314838e-001

1.91852823865052e+004,-1.76216888525941e+001,-3.19156017678363e-001

1.94530989482457e+004,-1.76216896637971e+001,-3.23611259251238e-001

1.97246540898671e+004,-1.76216904978060e+001,-3.28128693236884e-001

1.99999999999999e+004,-1.76216913552618e+001,-3.32709187790070e-001

2.02791895958005e+004,-1.76216922368237e+001,-3.37353623184672e-001

2.05622765331213e+004,-1.76216931431696e+001,-3.42062891980270e-001

2.08493152168224e+004,-1.76216940749961e+001,-3.46837899196862e-001

2.11403608112276e+004,-1.76216950330195e+001,-3.51679562485935e-001

2.14354692507258e+004,-1.76216960179764e+001,-3.56588812308648e-001

2.17346972505211e+004,-1.76216970306239e+001,-3.61566592113978e-001

2.20381023175322e+004,-1.76216980717405e+001,-3.66613858519398e-001

2.23457427614443e+004,-1.76216991421265e+001,-3.71731581496261e-001

2.26576777059159e+004,-1.76217002426050e+001,-3.76920744552891e-001

2.29739670999406e+004,-1.76217013740217e+001,-3.82182344928760e-001

2.32946717293690e+004,-1.76217025372465e+001,-3.87517393780622e-001

2.36198532285905e+004,-1.76217037331735e+001,-3.92926916380869e-001

2.39495740923785e+004,-1.76217049627223e+001,-3.98411952311162e-001

2.42838976879009e+004,-1.76217062268380e+001,-4.03973555664634e-001

2.46228882668982e+004,-1.76217075264924e+001,-4.09612795248552e-001

2.49666109780322e+004,-1.76217088626845e+001,-4.15330754787638e-001

2.53151318794055e+004,-1.76217102364415e+001,-4.21128533132950e-001

2.56685179512580e+004,-1.76217116488197e+001,-4.27007244473934e-001

2.60268371088386e+004,-1.76217131009046e+001,-4.32968018552140e-001

2.63901582154578e+004,-1.76217145938125e+001,-4.39012000877155e-001

2.67585510957221e+004,-1.76217161286913e+001,-4.45140352947654e-001

2.71320865489533e+004,-1.76217177067206e+001,-4.51354252475406e-001

2.75108363627948e+004,-1.76217193291137e+001,-4.57654893609242e-001

2.78948733270080e+004,-1.76217209971177e+001,-4.64043487165575e-001

2.82842712474618e+004,-1.76217227120149e+001,-4.70521260861788e-001

2.86791049603164e+004,-1.76217244751235e+001,-4.77089459550652e-001

2.90794503464061e+004,-1.76217262877991e+001,-4.83749345460222e-001

2.94853843458219e+004,-1.76217281514349e+001,-4.90502198437084e-001

2.98969849726987e+004,-1.76217300674637e+001,-4.97349316189307e-001

3.03143313302078e+004,-1.76217320373583e+001,-5.04292014539607e-001

3.07375036257601e+004,-1.76217340626331e+001,-5.11331627675301e-001

3.11665831864199e+004,-1.76217361448449e+001,-5.18469508404836e-001

3.16016524745350e+004,-1.76217382855945e+001,-5.25707028418834e-001

3.20427951035848e+004,-1.76217404865275e+001,-5.33045578552733e-001

3.24900958542493e+004,-1.76217427493357e+001,-5.40486569054347e-001

3.29436406907028e+004,-1.76217450757586e+001,-5.48031429853862e-001

3.34035167771346e+004,-1.76217474675847e+001,-5.55681610838926e-001

3.38698124945009e+004,-1.76217499266524e+001,-5.63438582133963e-001

3.43426174575100e+004,-1.76217524548523e+001,-5.71303834380564e-001

3.48220225318448e+004,-1.76217550541278e+001,-5.79278879025295e-001

3.53081198516260e+004,-1.76217577264769e+001,-5.87365248610630e-001

3.58010028371187e+004,-1.76217604739540e+001,-5.95564497066009e-001

3.63007662126863e+004,-1.76217632986709e+001,-6.03878200010644e-001

3.68075060249948e+004,-1.76217662027992e+001,-6.12307955052021e-001

3.73213196614721e+004,-1.76217691885713e+001,-6.20855382095595e-001

3.78423058690237e+004,-1.76217722582822e+001,-6.29522123653898e-001

3.83705647730104e+004,-1.76217754142919e+001,-6.38309845162820e-001

3.89061978964912e+004,-1.76217786590263e+001,-6.47220235301072e-001

3.94493081797342e+004,-1.76217819949794e+001,-6.56255006316141e-001

3.99999999999998e+004,-1.76217854247159e+001,-6.65415894349518e-001

4.05583791916010e+004,-1.76217889508720e+001,-6.74704659772440e-001

4.11245530662425e+004,-1.76217925761583e+001,-6.84123087524107e-001

4.16986304336447e+004,-1.76217963033616e+001,-6.93672987452616e-001

4.22807216224550e+004,-1.76218001353469e+001,-7.03356194664303e-001

4.28709385014515e+004,-1.76218040750597e+001,-7.13174569874493e-001

4.34693945010421e+004,-1.76218081255286e+001,-7.23129999765649e-001

4.40762046350642e+004,-1.76218122898669e+001,-7.33224397348996e-001

4.46914855228886e+004,-1.76218165712758e+001,-7.43459702331355e-001

4.53153554118317e+004,-1.76218209730463e+001,-7.53837881489182e-001

4.59479341998812e+004,-1.76218254985619e+001,-7.64360929043695e-001

4.65893434587380e+004,-1.76218301513012e+001,-7.75030867045259e-001

4.72397064571810e+004,-1.76218349348406e+001,-7.85849745761174e-001

4.78991481847569e+004,-1.76218398528571e+001,-7.96819644068049e-001

4.85677953758016e+004,-1.76218449091310e+001,-8.07942669852520e-001

4.92457765337964e+004,-1.76218501075489e+001,-8.19220960414150e-001

4.99332219560642e+004,-1.76218554521064e+001,-8.30656682876894e-001

5.06302637588109e+004,-1.76218609469119e+001,-8.42252034603097e-001

5.13370359025159e+004,-1.76218665961887e+001,-8.54009243617499e-001

5.20536742176771e+004,-1.76218724042792e+001,-8.65930569032966e-001

5.27803164309155e+004,-1.76218783756478e+001,-8.78018301483789e-001

5.35171021914442e+004,-1.76218845148842e+001,-8.90274763566351e-001

5.42641730979066e+004,-1.76218908267074e+001,-9.02702310283464e-001

5.50216727255895e+004,-1.76218973159687e+001,-9.15303329497488e-001

5.57897466540159e+004,-1.76219039876560e+001,-9.28080242387096e-001

5.65685424949235e+004,-1.76219108468973e+001,-9.41035503911144e-001

5.73582099206328e+004,-1.76219178989647e+001,-9.54171603282209e-001

5.81589006928121e+004,-1.76219251492786e+001,-9.67491064440617e-001

5.89707686916437e+004,-1.76219326034115e+001,-9.80996446540845e-001

5.97939699453972e+004,-1.76219402670929e+001,-9.94690344441085e-001

6.06286626604156e+004,-1.76219481462129e+001,-1.00857538920130e+000

6.14750072515201e+004,-1.76219562468276e+001,-1.02265424858704e+000

6.23331663728396e+004,-1.76219645751628e+001,-1.03692962758212e+000

6.32033049490698e+004,-1.76219731376196e+001,-1.05140426890558e+000

6.40855902071694e+004,-1.76219819407790e+001,-1.06608095353905e+000

6.49801917084985e+004,-1.76219909914068e+001,-1.08096250125861e+000

6.58872813814055e+004,-1.76220002964592e+001,-1.09605177117527e+000

6.68070335542691e+004,-1.76220098630875e+001,-1.11135166228410e+000

6.77396249890018e+004,-1.76220196986443e+001,-1.12686511401785e+000

6.86852349150199e+004,-1.76220298106887e+001,-1.14259510681214e+000

6.96440450636895e+004,-1.76220402069922e+001,-1.15854466267581e+000

7.06162397032520e+004,-1.76220508955449e+001,-1.17471684576913e+000

7.16020056742374e+004,-1.76220618845612e+001,-1.19111476299124e+000

7.26015324253724e+004,-1.76220731824864e+001,-1.20774156457626e+000

7.36150120499896e+004,-1.76220847980032e+001,-1.22460044469548e+000

7.46426393229441e+004,-1.76220967400382e+001,-1.24169464206884e+000

7.56846117380472e+004,-1.76221090177689e+001,-1.25902744058652e+000

7.67411295460207e+004,-1.76221216406307e+001,-1.27660216993674e+000

7.78123957929823e+004,-1.76221346183242e+001,-1.29442220624310e+000

7.88986163594682e+004,-1.76221479608223e+001,-1.31249097271157e+000

7.99999999999995e+004,-1.76221616783784e+001,-1.33081194028564e+000

8.11167583832018e+004,-1.76221757815340e+001,-1.34938862830966e+000

8.22491061324848e+004,-1.76221902811266e+001,-1.36822460520383e+000

8.33972608672892e+004,-1.76222051882985e+001,-1.38732348914581e+000

8.45614432449099e+004,-1.76222205145048e+001,-1.40668894876298e+000

8.57418770029029e+004,-1.76222362715225e+001,-1.42632470383606e+000

8.69387890020841e+004,-1.76222524714596e+001,-1.44623452600810e+000

8.81524092701283e+004,-1.76222691267642e+001,-1.46642223950697e+000

8.93829710457770e+004,-1.76222862502342e+001,-1.48689172187705e+000

9.06307108236633e+004,-1.76223038550271e+001,-1.50764690471955e+000

9.18958683997622e+004,-1.76223219546699e+001,-1.52869177444538e+000

9.31786869174758e+004,-1.76223405630696e+001,-1.55003037303623e+000

9.44794129143618e+004,-1.76223596945241e+001,-1.57166679881691e+000

9.57982963695136e+004,-1.76223793637329e+001,-1.59360520723887e+000

9.71355907516031e+004,-1.76223995858082e+001,-1.61584981167463e+000

9.84915530675926e+004,-1.76224203762871e+001,-1.63840488422136e+000

9.98664439121282e+004,-1.76224417511428e+001,-1.66127475651745e+000

1.01260527517622e+005,-1.76224637267976e+001,-1.68446382056957e+000

1.02674071805032e+005,-1.76224863201347e+001,-1.70797652959149e+000

1.04107348435354e+005,-1.76225095485117e+001,-1.73181739885408e+000

1.05560632861831e+005,-1.76225334297736e+001,-1.75599100654607e+000

1.07034204382888e+005,-1.76225579822670e+001,-1.78050199464831e+000

1.08528346195813e+005,-1.76225832248532e+001,-1.80535506982061e+000

1.10043345451179e+005,-1.76226091769239e+001,-1.83055500429605e+000

1.11579493308032e+005,-1.76226358584149e+001,-1.85610663679471e+000

1.13137084989847e+005,-1.76226632898220e+001,-1.88201487344416e+000

1.14716419841265e+005,-1.76226914922168e+001,-1.90828468871399e+000

1.16317801385624e+005,-1.76227204872626e+001,-1.93492112636586e+000

1.17941537383287e+005,-1.76227502972307e+001,-1.96192930041234e+000

1.19587939890794e+005,-1.76227809450182e+001,-1.98931439609212e+000

1.21257325320831e+005,-1.76228124541650e+001,-2.01708167085700e+000

1.22950014503040e+005,-1.76228448488719e+001,-2.04523645537291e+000

1.24666332745679e+005,-1.76228781540193e+001,-2.07378415453370e+000

1.26406609898139e+005,-1.76229123951861e+001,-2.10273024849099e+000

1.28171180414339e+005,-1.76229475986695e+001,-2.13208029369447e+000

1.29960383416997e+005,-1.76229837915048e+001,-2.16183992395086e+000

1.31774562762811e+005,-1.76230210014864e+001,-2.19201485149251e+000

1.33614067108538e+005,-1.76230592571890e+001,-2.22261086806471e+000

1.35479249978003e+005,-1.76230985879891e+001,-2.25363384602545e+000

1.37370469830040e+005,-1.76231390240884e+001,-2.28508973945994e+000

1.39288090127379e+005,-1.76231805965357e+001,-2.31698458531224e+000

1.41232479406504e+005,-1.76232233372518e+001,-2.34932450453020e+000

1.43204011348474e+005,-1.76232672790530e+001,-2.38211570322662e+000

1.45203064850745e+005,-1.76233124556769e+001,-2.41536447385703e+000

1.47230024099979e+005,-1.76233589018077e+001,-2.44907719641205e+000

1.49285278645888e+005,-1.76234066531030e+001,-2.48326033962588e+000

1.51369223476094e+005,-1.76234557462209e+001,-2.51792046220286e+000

1.53482259092041e+005,-1.76235062188483e+001,-2.55306421405869e+000

1.55624791585964e+005,-1.76235581097294e+001,-2.58869833757922e+000

1.57797232718936e+005,-1.76236114586954e+001,-2.62482966889576e+000

1.59999999999999e+005,-1.76236663066949e+001,-2.66146513917868e+000

1.62233516766403e+005,-1.76237226958253e+001,-2.69861177594639e+000

1.64498212264969e+005,-1.76237806693650e+001,-2.73627670439439e+000

1.66794521734578e+005,-1.76238402718062e+001,-2.77446714873919e+000

1.69122886489819e+005,-1.76239015488890e+001,-2.81319043358349e+000

1.71483754005805e+005,-1.76239645476364e+001,-2.85245398529734e+000

1.73877578004168e+005,-1.76240293163901e+001,-2.89226533341758e+000

1.76304818540256e+005,-1.76240959048473e+001,-2.93263211206824e+000

1.78765942091554e+005,-1.76241643640989e+001,-2.97356206139743e+000

1.81261421647326e+005,-1.76242347466681e+001,-3.01506302903496e+000

1.83791736799524e+005,-1.76243071065507e+001,-3.05714297156748e+000

1.86357373834951e+005,-1.76243814992563e+001,-3.09980995603632e+000

1.88958825828723e+005,-1.76244579818504e+001,-3.14307216145172e+000

1.91596592739027e+005,-1.76245366129980e+001,-3.18693788032897e+000

1.94271181503206e+005,-1.76246174530082e+001,-3.23141552024543e+000

1.96983106135185e+005,-1.76247005638805e+001,-3.27651360541583e+000

1.99732887824256e+005,-1.76247860093514e+001,-3.32224077829057e+000

2.02521055035243e+005,-1.76248738549435e+001,-3.36860580117416e+000

2.05348143610063e+005,-1.76249641680149e+001,-3.41561755786422e+000

2.08214696870707e+005,-1.76250570178108e+001,-3.46328505531296e+000

2.11121265723661e+005,-1.76251524755160e+001,-3.51161742531056e+000

2.14068408765776e+005,-1.76252506143090e+001,-3.56062392618862e+000

2.17056692391625e+005,-1.76253515094178e+001,-3.61031394454842e+000

2.20086690902357e+005,-1.76254552381766e+001,-3.66069699700977e+000

2.23158986616063e+005,-1.76255618800853e+001,-3.71178273198297e+000

2.26274169979693e+005,-1.76256715168692e+001,-3.76358093146465e+000

2.29432839682530e+005,-1.76257842325413e+001,-3.81610151285454e+000

2.32635602771247e+005,-1.76259001134661e+001,-3.86935453079882e+000

2.35883074766574e+005,-1.76260192484249e+001,-3.92335017905392e+000

2.39175879781588e+005,-1.76261417286834e+001,-3.97809879237662e+000

2.42514650641661e+005,-1.76262676480608e+001,-4.03361084843690e+000

2.45900029006080e+005,-1.76263971030006e+001,-4.08989696975591e+000

2.49332665491357e+005,-1.76265301926440e+001,-4.14696792566826e+000

2.52813219796278e+005,-1.76266670189048e+001,-4.20483463430948e+000

2.56342360828676e+005,-1.76268076865465e+001,-4.26350816462785e+000

2.59920766833993e+005,-1.76269523032615e+001,-4.32299973842237e+000

2.63549125525621e+005,-1.76271009797528e+001,-4.38332073240643e+000

2.67228134217075e+005,-1.76272538298171e+001,-4.44448268029667e+000

2.70958499956006e+005,-1.76274109704315e+001,-4.50649727492794e+000

2.74740939660078e+005,-1.76275725218409e+001,-4.56937637039525e+000

2.78576180254757e+005,-1.76277386076497e+001,-4.63313198422166e+000

2.82464958813007e+005,-1.76279093549141e+001,-4.69777629955356e+000

2.86408022696948e+005,-1.76280848942386e+001,-4.76332166738136e+000

2.90406129701488e+005,-1.76282653598738e+001,-4.82978060879047e+000

2.94460048199957e+005,-1.76284508898180e+001,-4.89716581723586e+000

2.98570557291775e+005,-1.76286416259205e+001,-4.96549016084736e+000

3.02738446952187e+005,-1.76288377139888e+001,-5.03476668476147e+000

3.06964518184081e+005,-1.76290393038975e+001,-5.10500861348168e+000

3.11249583171928e+005,-1.76292465497017e+001,-5.17622935326685e+000

3.15594465437872e+005,-1.76294596097519e+001,-5.24844249454788e+000

3.19999999999997e+005,-1.76296786468130e+001,-5.32166181437367e+000

3.24467033532806e+005,-1.76299038281864e+001,-5.39590127888576e+000

3.28996424529938e+005,-1.76301353258350e+001,-5.47117504582165e+000

3.33589043469155e+005,-1.76303733165123e+001,-5.54749746704753e+000

3.38245772979638e+005,-1.76306179818943e+001,-5.62488309112116e+000

3.42967508011610e+005,-1.76308695087152e+001,-5.70334666588317e+000

3.47755156008335e+005,-1.76311280889069e+001,-5.78290314107880e+000

3.52609637080511e+005,-1.76313939197422e+001,-5.86356767100954e+000

3.57531884183106e+005,-1.76316672039818e+001,-5.94535561721446e+000

3.62522843294651e+005,-1.76319481500252e+001,-6.02828255118198e+000

3.67583473599047e+005,-1.76322369720661e+001,-6.11236425709163e+000

3.72714747669902e+005,-1.76325338902509e+001,-6.19761673458663e+000

3.77917651657445e+005,-1.76328391308430e+001,-6.28405620157681e+000

3.83193185478053e+005,-1.76331529263900e+001,-6.37169909707143e+000

3.88542363006410e+005,-1.76334755158964e+001,-6.46056208404387e+000

3.93966212270369e+005,-1.76338071450004e+001,-6.55066205232590e+000

3.99465775648511e+005,-1.76341480661557e+001,-6.64201612153356e+000

4.05042110070485e+005,-1.76344985388177e+001,-6.73464164402319e+000

4.10696287220124e+005,-1.76348588296351e+001,-6.82855620787863e+000

4.16429393741414e+005,-1.76352292126466e+001,-6.92377763992878e+000

4.22242531447321e+005,-1.76356099694822e+001,-7.02032400879718e+000

4.28136817531551e+005,-1.76360013895707e+001,-7.11821362798050e+000

4.34113384783250e+005,-1.76364037703520e+001,-7.21746505895872e+000

4.40173381804713e+005,-1.76368174174950e+001,-7.31809711433683e+000

4.46317973232124e+005,-1.76372426451218e+001,-7.42012886101500e+000

4.52548339959385e+005,-1.76376797760372e+001,-7.52357962339102e+000

4.58865679365059e+005,-1.76381291419646e+001,-7.62846898659211e+000

4.65271205542494e+005,-1.76385910837875e+001,-7.73481679973662e+000

4.71766149533147e+005,-1.76390659517981e+001,-7.84264317922674e+000

4.78351759563174e+005,-1.76395541059517e+001,-7.95196851206965e+000

4.85029301283321e+005,-1.76400559161281e+001,-8.06281345922889e+000

4.91800058012158e+005,-1.76405717623991e+001,-8.17519895900486e+000

4.98665330982714e+005,-1.76411020353042e+001,-8.28914623044388e+000

5.05626439592555e+005,-1.76416471361319e+001,-8.40467677677629e+000

5.12684721657352e+005,-1.76422074772092e+001,-8.52181238888195e+000

5.19841533667984e+005,-1.76427834821983e+001,-8.64057514878452e+000

5.27098251051240e+005,-1.76433755864004e+001,-8.76098743317239e+000

5.34456268434150e+005,-1.76439842370682e+001,-8.88307191694657e+000

5.41916999912011e+005,-1.76446098937255e+001,-9.00685157679495e+000

