Freq.,VOut,OutRef

1.00000000000000e+004,-3.35391782101584e+001,-1.05112778390164e-001

1.01395947979003e+004,-3.35391783719929e+001,-1.06580097339989e-001

1.02811382665607e+004,-3.35391785383771e+001,-1.08067899267957e-001

1.04246576084112e+004,-3.35391787094389e+001,-1.09576470103391e-001

1.05701804056138e+004,-3.35391788853099e+001,-1.11106099768517e-001

1.07177346253629e+004,-3.35391790661255e+001,-1.12657082230255e-001

1.08673486252606e+004,-3.35391792520243e+001,-1.14229715563441e-001

1.10190511587661e+004,-3.35391794431495e+001,-1.15824302000772e-001

1.11728713807222e+004,-3.35391796396480e+001,-1.17441147992877e-001

1.13288388529580e+004,-3.35391798416707e+001,-1.19080564271967e-001

1.14869835499703e+004,-3.35391800493730e+001,-1.20742865905043e-001

1.16473358646846e+004,-3.35391802629148e+001,-1.22428372356832e-001

1.18099266142953e+004,-3.35391804824600e+001,-1.24137407553025e-001

1.19747870461893e+004,-3.35391807081774e+001,-1.25870299941420e-001

1.21419488439505e+004,-3.35391809402405e+001,-1.27627382553456e-001

1.23114441334492e+004,-3.35391811788278e+001,-1.29408993069144e-001

1.24833054890161e+004,-3.35391814241228e+001,-1.31215473883701e-001

1.26575659397028e+004,-3.35391816763139e+001,-1.33047172170779e-001

1.28342589756290e+004,-3.35391819355950e+001,-1.34904439950942e-001

1.30134185544193e+004,-3.35391822021655e+001,-1.36787634157600e-001

1.31950791077289e+004,-3.35391824762302e+001,-1.38697116708844e-001

1.33792755478611e+004,-3.35391827580001e+001,-1.40633254571611e-001

1.35660432744767e+004,-3.35391830476914e+001,-1.42596419838740e-001

1.37554181813974e+004,-3.35391833455272e+001,-1.44586989794156e-001

1.39474366635040e+004,-3.35391836517363e+001,-1.46605346990889e-001

1.41421356237309e+004,-3.35391839665539e+001,-1.48651879320987e-001

1.43395524801583e+004,-3.35391842902224e+001,-1.50726980090309e-001

1.45397251732031e+004,-3.35391846229903e+001,-1.52831048097062e-001

1.47426921729110e+004,-3.35391849651135e+001,-1.54964487703958e-001

1.49484924863494e+004,-3.35391853168553e+001,-1.57127708918120e-001

1.51571656651040e+004,-3.35391856784857e+001,-1.59321127473653e-001

1.53687518128801e+004,-3.35391860502829e+001,-1.61545164903754e-001

1.55832915932100e+004,-3.35391864325328e+001,-1.63800248627353e-001

1.58008262372675e+004,-3.35391868255292e+001,-1.66086812030348e-001

1.60213975517924e+004,-3.35391872295742e+001,-1.68405294547464e-001

1.62450479271247e+004,-3.35391876449782e+001,-1.70756141749040e-001

1.64718203453514e+004,-3.35391880720610e+001,-1.73139805421651e-001

1.67017583885674e+004,-3.35391885111506e+001,-1.75556743662045e-001

1.69349062472505e+004,-3.35391889625847e+001,-1.78007420959424e-001

1.71713087287550e+004,-3.35391894267102e+001,-1.80492308288177e-001

1.74110112659224e+004,-3.35391899038840e+001,-1.83011883195339e-001

1.76540599258131e+004,-3.35391903944730e+001,-1.85566629895358e-001

1.79005014185594e+004,-3.35391908988543e+001,-1.88157039360537e-001

1.81503831063432e+004,-3.35391914174156e+001,-1.90783609418538e-001

1.84037530124975e+004,-3.35391919505556e+001,-1.93446844843567e-001

1.86606598307361e+004,-3.35391924986842e+001,-1.96147257458215e-001

1.89211529345119e+004,-3.35391930622227e+001,-1.98885366228546e-001

1.91852823865052e+004,-3.35391936416042e+001,-2.01661697365089e-001

1.94530989482457e+004,-3.35391942372744e+001,-2.04476784422048e-001

1.97246540898671e+004,-3.35391948496911e+001,-2.07331168403971e-001

1.99999999999999e+004,-3.35391954793251e+001,-2.10225397864538e-001

2.02791895958005e+004,-3.35391961266605e+001,-2.13160029017230e-001

2.05622765331213e+004,-3.35391967921947e+001,-2.16135625838363e-001

2.08493152168224e+004,-3.35391974764397e+001,-2.19152760174763e-001

2.11403608112276e+004,-3.35391981799212e+001,-2.22212011858908e-001

2.14354692507258e+004,-3.35391989031803e+001,-2.25313968813990e-001

2.17346972505211e+004,-3.35391996467728e+001,-2.28459227172010e-001

2.20381023175322e+004,-3.35392004112705e+001,-2.31648391384179e-001

2.23457427614443e+004,-3.35392011972609e+001,-2.34882074341093e-001

2.26576777059159e+004,-3.35392020053484e+001,-2.38160897486351e-001

2.29739670999406e+004,-3.35392028361542e+001,-2.41485490939810e-001

2.32946717293690e+004,-3.35392036903170e+001,-2.44856493615330e-001

2.36198532285905e+004,-3.35392045684935e+001,-2.48274553345321e-001

2.39495740923785e+004,-3.35392054713587e+001,-2.51740327005810e-001

2.42838976879009e+004,-3.35392063996067e+001,-2.55254480641347e-001

2.46228882668982e+004,-3.35392073539511e+001,-2.58817689593457e-001

2.49666109780322e+004,-3.35392083351255e+001,-2.62430638629908e-001

2.53151318794055e+004,-3.35392093438845e+001,-2.66094022075977e-001

2.56685179512580e+004,-3.35392103810032e+001,-2.69808543950809e-001

2.60268371088386e+004,-3.35392114472792e+001,-2.73574918097834e-001

2.63901582154578e+004,-3.35392125435319e+001,-2.77393868327418e-001

2.67585510957221e+004,-3.35392136706043e+001,-2.81266128549440e-001

2.71320865489533e+004,-3.35392148293627e+001,-2.85192442920901e-001

2.75108363627948e+004,-3.35392160206980e+001,-2.89173565984238e-001

2.78948733270080e+004,-3.35392172455261e+001,-2.93210262813738e-001

2.82842712474618e+004,-3.35392185047883e+001,-2.97303309163973e-001

2.86791049603164e+004,-3.35392197994529e+001,-3.01453491616222e-001

2.90794503464061e+004,-3.35392211305151e+001,-3.05661607730723e-001

2.94853843458219e+004,-3.35392224989983e+001,-3.09928466200452e-001

2.98969849726987e+004,-3.35392239059544e+001,-3.14254887006828e-001

3.03143313302078e+004,-3.35392253524648e+001,-3.18641701575503e-001

3.07375036257601e+004,-3.35392268396420e+001,-3.23089752935834e-001

3.11665831864199e+004,-3.35392283686288e+001,-3.27599895886396e-001

3.16016524745350e+004,-3.35392299406009e+001,-3.32172997155645e-001

3.20427951035848e+004,-3.35392315567665e+001,-3.36809935568664e-001

3.24900958542493e+004,-3.35392332183683e+001,-3.41511602217667e-001

3.29436406907028e+004,-3.35392349266834e+001,-3.46278900633039e-001

3.34035167771346e+004,-3.35392366830252e+001,-3.51112746954487e-001

3.38698124945009e+004,-3.35392384887438e+001,-3.56014070109693e-001

3.43426174575100e+004,-3.35392403452275e+001,-3.60983811990821e-001

3.48220225318448e+004,-3.35392422539033e+001,-3.66022927638233e-001

3.53081198516260e+004,-3.35392442162385e+001,-3.71132385419772e-001

3.58010028371187e+004,-3.35392462337417e+001,-3.76313167220480e-001

3.63007662126863e+004,-3.35392483079637e+001,-3.81566268628622e-001

3.68075060249948e+004,-3.35392504404992e+001,-3.86892699128559e-001

3.73213196614721e+004,-3.35392526329874e+001,-3.92293482293857e-001

3.78423058690237e+004,-3.35392548871140e+001,-3.97769655983294e-001

3.83705647730104e+004,-3.35392572046116e+001,-4.03322272542616e-001

3.89061978964912e+004,-3.35392595872617e+001,-4.08952399003201e-001

3.94493081797342e+004,-3.35392620368962e+001,-4.14661117288404e-001

3.99999999999998e+004,-3.35392645553979e+001,-4.20449524423474e-001

4.05583791916010e+004,-3.35392671447031e+001,-4.26318732742474e-001

4.11245530662425e+004,-3.35392698068022e+001,-4.32269870104392e-001

4.16986304336447e+004,-3.35392725437416e+001,-4.38304080108970e-001

4.22807216224550e+004,-3.35392753576252e+001,-4.44422522316956e-001

4.28709385014515e+004,-3.35392782506163e+001,-4.50626372470090e-001

4.34693945010421e+004,-3.35392812249387e+001,-4.56916822720769e-001

4.40762046350642e+004,-3.35392842828788e+001,-4.63295081858705e-001

4.46914855228886e+004,-3.35392874267874e+001,-4.69762375542731e-001

4.53153554118317e+004,-3.35392906590812e+001,-4.76319946537101e-001

4.59479341998812e+004,-3.35392939822451e+001,-4.82969054948728e-001

4.65893434587380e+004,-3.35392973988334e+001,-4.89710978471913e-001

4.72397064571810e+004,-3.35393009114727e+001,-4.96547012630218e-001

4.78991481847569e+004,-3.35393045228633e+001,-5.03478471026664e-001

4.85677953758016e+004,-3.35393082357810e+001,-5.10506685597541e-001

4.92457765337964e+004,-3.35393120530803e+001,-5.17633006863473e-001

4.99332219560642e+004,-3.35393159776954e+001,-5.24858804194817e-001

5.06302637588109e+004,-3.35393200126433e+001,-5.32185466068771e-001

5.13370359025159e+004,-3.35393241610256e+001,-5.39614400339303e-001

5.20536742176771e+004,-3.35393284260313e+001,-5.47147034507008e-001

5.27803164309155e+004,-3.35393328109388e+001,-5.54784815991211e-001

5.35171021914442e+004,-3.35393373191189e+001,-5.62529212409929e-001

5.42641730979066e+004,-3.35393419540368e+001,-5.70381711860414e-001

5.50216727255895e+004,-3.35393467192557e+001,-5.78343823203646e-001

5.57897466540159e+004,-3.35393516184383e+001,-5.86417076356891e-001

5.65685424949235e+004,-3.35393566553508e+001,-5.94603022583726e-001

5.73582099206328e+004,-3.35393618338648e+001,-6.02903234794976e-001

5.81589006928121e+004,-3.35393671579612e+001,-6.11319307846806e-001

5.89707686916437e+004,-3.35393726317325e+001,-6.19852858850589e-001

5.97939699453972e+004,-3.35393782593861e+001,-6.28505527480573e-001

6.06286626604156e+004,-3.35393840452480e+001,-6.37278976288754e-001

6.14750072515201e+004,-3.35393899937657e+001,-6.46174891024765e-001

6.23331663728396e+004,-3.35393961095116e+001,-6.55194980957804e-001

6.32033049490698e+004,-3.35394023971869e+001,-6.64340979205517e-001

6.40855902071694e+004,-3.35394088616245e+001,-6.73614643066727e-001

6.49801917084985e+004,-3.35394155077935e+001,-6.83017754357259e-001

6.58872813814055e+004,-3.35394223408027e+001,-6.92552119751360e-001

6.68070335542691e+004,-3.35394293659041e+001,-7.02219571130808e-001

6.77396249890018e+004,-3.35394365884978e+001,-7.12021965932934e-001

6.86852349150199e+004,-3.35394440141354e+001,-7.21961187507683e-001

6.96440450636895e+004,-3.35394516485247e+001,-7.32039145480714e-001

7.06162397032520e+004,-3.35394594975337e+001,-7.42257776115981e-001

7.16020056742374e+004,-3.35394675671957e+001,-7.52619042690122e-001

7.26015324253724e+004,-3.35394758637132e+001,-7.63124935866357e-001

7.36150120499896e+004,-3.35394843934633e+001,-7.73777474078138e-001

7.46426393229441e+004,-3.35394931630021e+001,-7.84578703913827e-001

7.56846117380472e+004,-3.35395021790703e+001,-7.95530700509884e-001

7.67411295460207e+004,-3.35395114485979e+001,-8.06635567949183e-001

7.78123957929823e+004,-3.35395209787095e+001,-8.17895439662600e-001

7.88986163594682e+004,-3.35395307767302e+001,-8.29312478839617e-001

7.99999999999995e+004,-3.35395408501907e+001,-8.40888878841077e-001

8.11167583832018e+004,-3.35395512068338e+001,-8.52626863619399e-001

8.22491061324848e+004,-3.35395618546194e+001,-8.64528688146028e-001

8.33972608672892e+004,-3.35395728017316e+001,-8.76596638841055e-001

8.45614432449099e+004,-3.35395840565840e+001,-8.88833034013545e-001

8.57418770029029e+004,-3.35395956278271e+001,-9.01240224302831e-001

8.69387890020841e+004,-3.35396075243544e+001,-9.13820593130711e-001

8.81524092701283e+004,-3.35396197553092e+001,-9.26576557156436e-001

8.93829710457770e+004,-3.35396323300919e+001,-9.39510566739112e-001

9.06307108236633e+004,-3.35396452583671e+001,-9.52625106408388e-001

9.18958683997622e+004,-3.35396585500708e+001,-9.65922695338043e-001

9.31786869174758e+004,-3.35396722154184e+001,-9.79405887828051e-001

9.44794129143618e+004,-3.35396862649127e+001,-9.93077273794247e-001

9.57982963695136e+004,-3.35397007093510e+001,-1.00693947926376e+000

9.71355907516031e+004,-3.35397155598343e+001,-1.02099516687667e+000

9.84915530675926e+004,-3.35397308277758e+001,-1.03524703639483e+000

9.98664439121282e+004,-3.35397465249093e+001,-1.04969782521884e+000

1.01260527517622e+005,-3.35397626632980e+001,-1.06435030891212e+000

1.02674071805032e+005,-3.35397792553446e+001,-1.07920730172894e+000

1.04107348435354e+005,-3.35397963137999e+001,-1.09427165715513e+000

1.05560632861831e+005,-3.35398138517734e+001,-1.10954626845179e+000

1.07034204382888e+005,-3.35398318827425e+001,-1.12503406920867e+000

1.08528346195813e+005,-3.35398504205637e+001,-1.14073803390348e+000

1.10043345451179e+005,-3.35398694794826e+001,-1.15666117847222e+000

1.11579493308032e+005,-3.35398890741453e+001,-1.17280656088259e+000

1.13137084989847e+005,-3.35399092196093e+001,-1.18917728171998e+000

1.14716419841265e+005,-3.35399299313551e+001,-1.20577648477826e+000

1.16317801385624e+005,-3.35399512252983e+001,-1.22260735765983e+000

1.17941537383287e+005,-3.35399731178016e+001,-1.23967313238392e+000

1.19587939890794e+005,-3.35399956256875e+001,-1.25697708600402e+000

1.21257325320831e+005,-3.35400187662511e+001,-1.27452254123248e+000

1.22950014503040e+005,-3.35400425572733e+001,-1.29231286707277e+000

1.24666332745679e+005,-3.35400670170348e+001,-1.31035147946464e+000

1.26406609898139e+005,-3.35400921643295e+001,-1.32864184193315e+000

1.28171180414339e+005,-3.35401180184797e+001,-1.34718746624952e+000

1.29960383416997e+005,-3.35401445993502e+001,-1.36599191309976e+000

1.31774562762811e+005,-3.35401719273641e+001,-1.38505879276378e+000

1.33614067108538e+005,-3.35402000235180e+001,-1.40439176580236e+000

1.35479249978003e+005,-3.35402289093985e+001,-1.42399454375402e+000

1.37370469830040e+005,-3.35402586071985e+001,-1.44387088984153e+000

1.39288090127379e+005,-3.35402891397342e+001,-1.46402461968852e+000

1.41232479406504e+005,-3.35403205304629e+001,-1.48445960204523e+000

1.43204011348474e+005,-3.35403528035006e+001,-1.50517975952307e+000

1.45203064850745e+005,-3.35403859836406e+001,-1.52618906934273e+000

1.47230024099979e+005,-3.35404200963729e+001,-1.54749156408709e+000

1.49285278645888e+005,-3.35404551679031e+001,-1.56909133247111e+000

1.51369223476094e+005,-3.35404912251730e+001,-1.59099252011482e+000

1.53482259092041e+005,-3.35405282958808e+001,-1.61319933033364e+000

1.55624791585964e+005,-3.35405664085030e+001,-1.63571602493314e+000

1.57797232718936e+005,-3.35406055923152e+001,-1.65854692502149e+000

1.59999999999999e+005,-3.35406458774158e+001,-1.68169641182509e+000

1.62233516766403e+005,-3.35406872947478e+001,-1.70516892752235e+000

1.64498212264969e+005,-3.35407298761236e+001,-1.72896897608507e+000

1.66794521734578e+005,-3.35407736542484e+001,-1.75310112413005e+000

1.69122886489819e+005,-3.35408186627461e+001,-1.77757000178637e+000

1.71483754005805e+005,-3.35408649361845e+001,-1.80238030357022e+000

1.73877578004168e+005,-3.35409125101019e+001,-1.82753678927467e+000

1.76304818540256e+005,-3.35409614210344e+001,-1.85304428486852e+000

1.78765942091554e+005,-3.35410117065439e+001,-1.87890768340965e+000

1.81261421647326e+005,-3.35410634052468e+001,-1.90513194596975e+000

1.83791736799524e+005,-3.35411165568433e+001,-1.93172210257114e+000

1.86357373834951e+005,-3.35411712021483e+001,-1.95868325313617e+000

1.88958825828723e+005,-3.35412273831221e+001,-1.98602056845041e+000

1.91596592739027e+005,-3.35412851429031e+001,-2.01373929113667e+000

1.94271181503206e+005,-3.35413445258402e+001,-2.04184473664455e+000

1.96983106135185e+005,-3.35414055775270e+001,-2.07034229425144e+000

1.99732887824256e+005,-3.35414683448368e+001,-2.09923742807618e+000

2.02521055035243e+005,-3.35415328759582e+001,-2.12853567810903e+000

2.05348143610063e+005,-3.35415992204322e+001,-2.15824266125284e+000

2.08214696870707e+005,-3.35416674291897e+001,-2.18836407237846e+000

2.11121265723661e+005,-3.35417375545908e+001,-2.21890568539505e+000

2.14068408765776e+005,-3.35418096504648e+001,-2.24987335433325e+000

2.17056692391625e+005,-3.35418837721509e+001,-2.28127301444425e+000

2.20086690902357e+005,-3.35419599765411e+001,-2.31311068331176e+000

2.23158986616063e+005,-3.35420383221231e+001,-2.34539246197941e+000

2.26274169979693e+005,-3.35421188690255e+001,-2.37812453609273e+000

2.29432839682530e+005,-3.35422016790630e+001,-2.41131317705680e+000

2.32635602771247e+005,-3.35422868157844e+001,-2.44496474320763e+000

2.35883074766574e+005,-3.35423743445206e+001,-2.47908568100015e+000

2.39175879781588e+005,-3.35424643324346e+001,-2.51368252621064e+000

2.42514650641661e+005,-3.35425568485727e+001,-2.54876190515648e+000

2.45900029006080e+005,-3.35426519639171e+001,-2.58433053592935e+000

2.49332665491357e+005,-3.35427497514404e+001,-2.62039522964582e+000

2.52813219796278e+005,-3.35428502861607e+001,-2.65696289171501e+000

2.56342360828676e+005,-3.35429536451991e+001,-2.69404052312033e+000

2.59920766833993e+005,-3.35430599078387e+001,-2.73163522171890e+000

2.63549125525621e+005,-3.35431691555843e+001,-2.76975418355876e+000

2.67228134217075e+005,-3.35432814722253e+001,-2.80840470421037e+000

2.70958499956006e+005,-3.35433969438989e+001,-2.84759418011751e+000

2.74740939660078e+005,-3.35435156591562e+001,-2.88733010996355e+000

2.78576180254757e+005,-3.35436377090289e+001,-2.92762009605705e+000

2.82464958813007e+005,-3.35437631870993e+001,-2.96847184573269e+000

2.86408022696948e+005,-3.35438921895711e+001,-3.00989317277135e+000

2.90406129701488e+005,-3.35440248153426e+001,-3.05189199883759e+000

2.94460048199957e+005,-3.35441611660817e+001,-3.09447635493533e+000

2.98570557291775e+005,-3.35443013463040e+001,-3.13765438288086e+000

3.02738446952187e+005,-3.35444454634508e+001,-3.18143433679630e+000

3.06964518184081e+005,-3.35445936279721e+001,-3.22582458461901e+000

3.11249583171928e+005,-3.35447459534096e+001,-3.27083360963129e+000

3.15594465437872e+005,-3.35449025564830e+001,-3.31647001200826e+000

3.19999999999997e+005,-3.35450635571790e+001,-3.36274251038552e+000

3.24467033532806e+005,-3.35452290788417e+001,-3.40965994344489e+000

3.28996424529938e+005,-3.35453992482664e+001,-3.45723127152033e+000

3.33589043469155e+005,-3.35455741957959e+001,-3.50546557822253e+000

3.38245772979638e+005,-3.35457540554188e+001,-3.55437207208399e+000

3.42967508011610e+005,-3.35459389648712e+001,-3.60396008822293e+000

3.47755156008335e+005,-3.35461290657410e+001,-3.65423909002844e+000

3.52609637080511e+005,-3.35463245035748e+001,-3.70521867086320e+000

3.57531884183106e+005,-3.35465254279883e+001,-3.75690855578948e+000

3.62522843294651e+005,-3.35467319927789e+001,-3.80931860331323e+000

3.67583473599047e+005,-3.35469443560425e+001,-3.86245880714910e+000

3.72714747669902e+005,-3.35471626802922e+001,-3.91633929800625e+000

3.77917651657445e+005,-3.35473871325816e+001,-3.97097034539468e+000

3.83193185478053e+005,-3.35476178846304e+001,-4.02636235945232e+000

3.88542363006410e+005,-3.35478551129539e+001,-4.08252589279302e+000

3.93966212270369e+005,-3.35480989989963e+001,-4.13947164237549e+000

3.99465775648511e+005,-3.35483497292670e+001,-4.19721045139264e+000

4.05042110070485e+005,-3.35486074954812e+001,-4.25575331118404e+000

4.10696287220124e+005,-3.35488724947039e+001,-4.31511136316694e+000

4.16429393741414e+005,-3.35491449294983e+001,-4.37529590079010e+000

4.22242531447321e+005,-3.35494250080776e+001,-4.43631837150941e+000

4.28136817531551e+005,-3.35497129444620e+001,-4.49819037878356e+000

4.34113384783250e+005,-3.35500089586383e+001,-4.56092368409157e+000

4.40173381804713e+005,-3.35503132767259e+001,-4.62453020897301e+000

4.46317973232124e+005,-3.35506261311452e+001,-4.68902203708770e+000

4.52548339959385e+005,-3.35509477607924e+001,-4.75441141629836e+000

4.58865679365059e+005,-3.35512784112178e+001,-4.82071076077422e+000

4.65271205542494e+005,-3.35516183348095e+001,-4.88793265311661e+000

4.71766149533147e+005,-3.35519677909818e+001,-4.95608984650464e+000

4.78351759563174e+005,-3.35523270463690e+001,-5.02519526686420e+000

4.85029301283321e+005,-3.35526963750239e+001,-5.09526201505714e+000

4.91800058012158e+005,-3.35530760586226e+001,-5.16630336909177e+000

4.98665330982714e+005,-3.35534663866733e+001,-5.23833278635494e+000

5.05626439592555e+005,-3.35538676567323e+001,-5.31136390586501e+000

5.12684721657352e+005,-3.35542801746251e+001,-5.38541055054603e+000

5.19841533667984e+005,-3.35547042546728e+001,-5.46048672952267e+000

5.27098251051240e+005,-3.35551402199257e+001,-5.53660664043546e+000

5.34456268434150e+005,-3.35555884024026e+001,-5.61378467177720e+000

5.41916999912011e+005,-3.35560491433362e+001,-5.69203540524932e+000

