Freq.,VOut,OutRef

1.00000000000000e+004,-8.80329733804166e-001,-1.31612531263780e-001

1.01395947979003e+004,-8.80329691611920e-001,-1.33449774053365e-001

1.02811382665607e+004,-8.80329648233516e-001,-1.35312663809843e-001

1.04246576084112e+004,-8.80329603635474e-001,-1.37201558553104e-001

1.05701804056138e+004,-8.80329557783695e-001,-1.39116821298593e-001

1.07177346253629e+004,-8.80329510642819e-001,-1.41058820130978e-001

1.08673486252606e+004,-8.80329462176660e-001,-1.43027928273051e-001

1.10190511587661e+004,-8.80329412347896e-001,-1.45024524157101e-001

1.11728713807222e+004,-8.80329361118304e-001,-1.47048991498253e-001

1.13288388529580e+004,-8.80329308448447e-001,-1.49101719368623e-001

1.14869835499703e+004,-8.80329254297802e-001,-1.51183102271259e-001

1.16473358646846e+004,-8.80329198624837e-001,-1.53293540216045e-001

1.18099266142953e+004,-8.80329141386684e-001,-1.55433438797054e-001

1.19747870461893e+004,-8.80329082539275e-001,-1.57603209271133e-001

1.21419488439505e+004,-8.80329022037527e-001,-1.59803268634043e-001

1.23114441334492e+004,-8.80328959834799e-001,-1.62034039704787e-001

1.24833054890161e+004,-8.80328895883395e-001,-1.64295951202796e-001

1.26575659397028e+004,-8.80328830134007e-001,-1.66589437834659e-001

1.28342589756290e+004,-8.80328762536235e-001,-1.68914940372701e-001

1.30134185544193e+004,-8.80328693037948e-001,-1.71272905744416e-001

1.31950791077289e+004,-8.80328621585815e-001,-1.73663787114712e-001

1.33792755478611e+004,-8.80328548124904e-001,-1.76088043974903e-001

1.35660432744767e+004,-8.80328472598770e-001,-1.78546142230929e-001

1.37554181813974e+004,-8.80328394949278e-001,-1.81038554292240e-001

1.39474366635040e+004,-8.80328315116790e-001,-1.83565759163381e-001

1.41421356237309e+004,-8.80328233039963e-001,-1.86128242534653e-001

1.43395524801583e+004,-8.80328148655542e-001,-1.88726496878308e-001

1.45397251732031e+004,-8.80328061898814e-001,-1.91361021539137e-001

1.47426921729110e+004,-8.80327972703092e-001,-1.94032322833152e-001

1.49484924863494e+004,-8.80327880999601e-001,-1.96740914146166e-001

1.51571656651040e+004,-8.80327786718097e-001,-1.99487316027712e-001

1.53687518128801e+004,-8.80327689785990e-001,-2.02272056296111e-001

1.55832915932100e+004,-8.80327590128734e-001,-2.05095670137442e-001

1.58008262372675e+004,-8.80327487669793e-001,-2.07958700208000e-001

1.60213975517924e+004,-8.80327382330294e-001,-2.10861696740683e-001

1.62450479271247e+004,-8.80327274029316e-001,-2.13805217648442e-001

1.64718203453514e+004,-8.80327162683594e-001,-2.16789828632353e-001

1.67017583885674e+004,-8.80327048207620e-001,-2.19816103290779e-001

1.69349062472505e+004,-8.80326930513228e-001,-2.22884623230172e-001

1.71713087287550e+004,-8.80326809509979e-001,-2.25995978174990e-001

1.74110112659224e+004,-8.80326685104967e-001,-2.29150766081778e-001

1.76540599258131e+004,-8.80326557202492e-001,-2.32349593255144e-001

1.79005014185594e+004,-8.80326425704115e-001,-2.35593074463835e-001

1.81503831063432e+004,-8.80326290508940e-001,-2.38881833057077e-001

1.84037530124975e+004,-8.80326151512824e-001,-2.42216501087762e-001

1.86606598307361e+004,-8.80326008609119e-001,-2.45597719429961e-001

1.89211529345119e+004,-8.80325861687789e-001,-2.49026137906175e-001

1.91852823865052e+004,-8.80325710636075e-001,-2.52502415408496e-001

1.94530989482457e+004,-8.80325555337675e-001,-2.56027220028583e-001

1.97246540898671e+004,-8.80325395673296e-001,-2.59601229183314e-001

1.99999999999999e+004,-8.80325231520149e-001,-2.63225129746454e-001

2.02791895958005e+004,-8.80325062752116e-001,-2.66899618180080e-001

2.05622765331213e+004,-8.80324889239332e-001,-2.70625400669726e-001

2.08493152168224e+004,-8.80324710848533e-001,-2.74403193257407e-001

2.11403608112276e+004,-8.80324527442509e-001,-2.78233721982470e-001

2.14354692507258e+004,-8.80324338880275e-001,-2.82117723018778e-001

2.17346972505211e+004,-8.80324145016972e-001,-2.86055942816860e-001

2.20381023175322e+004,-8.80323945703381e-001,-2.90049138248638e-001

2.23457427614443e+004,-8.80323740786437e-001,-2.94098076750140e-001

2.26576777059159e+004,-8.80323530108484e-001,-2.98203536472567e-001

2.29739670999406e+004,-8.80323313507683e-001,-3.02366306427861e-001

2.32946717293690e+004,-8.80323090817440e-001,-3.06587186644137e-001

2.36198532285905e+004,-8.80322861866574e-001,-3.10866988317120e-001

2.39495740923785e+004,-8.80322626479191e-001,-3.15206533966023e-001

2.42838976879009e+004,-8.80322384474135e-001,-3.19606657593724e-001

2.46228882668982e+004,-8.80322135665557e-001,-3.24068204844365e-001

2.49666109780322e+004,-8.80321879862041e-001,-3.28592033168121e-001

2.53151318794055e+004,-8.80321616866958e-001,-3.33179011984728e-001

2.56685179512580e+004,-8.80321346478224e-001,-3.37830022849937e-001

2.60268371088386e+004,-8.80321068487972e-001,-3.42545959627194e-001

2.63901582154578e+004,-8.80320782682399e-001,-3.47327728658405e-001

2.67585510957221e+004,-8.80320488841863e-001,-3.52176248936712e-001

2.71320865489533e+004,-8.80320186740425e-001,-3.57092452285340e-001

2.75108363627948e+004,-8.80319876145922e-001,-3.62077283534831e-001

2.78948733270080e+004,-8.80319556819571e-001,-3.67131700706228e-001

2.82842712474618e+004,-8.80319228515864e-001,-3.72256675194379e-001

2.86791049603164e+004,-8.80318890982401e-001,-3.77453191954908e-001

2.90794503464061e+004,-8.80318543959743e-001,-3.82722249692749e-001

2.94853843458219e+004,-8.80318187181153e-001,-3.88064861055421e-001

2.98969849726987e+004,-8.80317820372240e-001,-3.93482052827393e-001

3.03143313302078e+004,-8.80317443251172e-001,-3.98974866125641e-001

3.07375036257601e+004,-8.80317055527964e-001,-4.04544356602706e-001

3.11665831864199e+004,-8.80316656904619e-001,-4.10191594647081e-001

3.16016524745350e+004,-8.80316247074631e-001,-4.15917665590805e-001

3.20427951035848e+004,-8.80315825722961e-001,-4.21723669916838e-001

3.24900958542493e+004,-8.80315392525743e-001,-4.27610723470776e-001

3.29436406907028e+004,-8.80314947149936e-001,-4.33579957676103e-001

3.34035167771346e+004,-8.80314489253219e-001,-4.39632519750648e-001

3.38698124945009e+004,-8.80314018483475e-001,-4.45769572928394e-001

3.43426174575100e+004,-8.80313534478958e-001,-4.51992296681005e-001

3.48220225318448e+004,-8.80313036867535e-001,-4.58301886947169e-001

3.53081198516260e+004,-8.80312525266665e-001,-4.64699556360584e-001

3.58010028371187e+004,-8.80311999283134e-001,-4.71186534483123e-001

3.63007662126863e+004,-8.80311458512511e-001,-4.77764068043049e-001

3.68075060249948e+004,-8.80310902539228e-001,-4.84433421171605e-001

3.73213196614721e+004,-8.80310330935802e-001,-4.91195875649262e-001

3.78423058690237e+004,-8.80309743262840e-001,-4.98052731149935e-001

3.83705647730104e+004,-8.80309139068633e-001,-5.05005305491214e-001

3.89061978964912e+004,-8.80308517888651e-001,-5.12054934888726e-001

3.94493081797342e+004,-8.80307879245521e-001,-5.19202974211242e-001

3.99999999999998e+004,-8.80307222648211e-001,-5.26450797242974e-001

4.05583791916010e+004,-8.80306547592053e-001,-5.33799796946225e-001

4.11245530662425e+004,-8.80305853558015e-001,-5.41251385730729e-001

4.16986304336447e+004,-8.80305140012740e-001,-5.48806995722776e-001

4.22807216224550e+004,-8.80304406407685e-001,-5.56468079043042e-001

4.28709385014515e+004,-8.80303652178912e-001,-5.64236108084145e-001

4.34693945010421e+004,-8.80302876746643e-001,-5.72112575794905e-001

4.40762046350642e+004,-8.80302079514804e-001,-5.80098995966080e-001

4.46914855228886e+004,-8.80301259870613e-001,-5.88196903522156e-001

4.53153554118317e+004,-8.80300417183996e-001,-5.96407854816344e-001

4.59479341998812e+004,-8.80299550807269e-001,-6.04733427929314e-001

4.65893434587380e+004,-8.80298660074281e-001,-6.13175222974289e-001

4.72397064571810e+004,-8.80297744300521e-001,-6.21734862401971e-001

4.78991481847569e+004,-8.80296802781983e-001,-6.30413991314757e-001

4.85677953758016e+004,-8.80295834794947e-001,-6.39214277781762e-001

4.92457765337964e+004,-8.80294839595350e-001,-6.48137413160574e-001

4.99332219560642e+004,-8.80293816418274e-001,-6.57185112420466e-001

5.06302637588109e+004,-8.80292764477178e-001,-6.66359114475147e-001

5.13370359025159e+004,-8.80291682963510e-001,-6.75661182514429e-001

5.20536742176771e+004,-8.80290571045925e-001,-6.85093104344631e-001

5.27803164309155e+004,-8.80289427869788e-001,-6.94656692731747e-001

5.35171021914442e+004,-8.80288252556361e-001,-7.04353785750522e-001

5.42641730979066e+004,-8.80287044202212e-001,-7.14186247137405e-001

5.50216727255895e+004,-8.80285801878670e-001,-7.24155966648498e-001

5.57897466540159e+004,-8.80284524630691e-001,-7.34264860424909e-001

5.65685424949235e+004,-8.80283211476631e-001,-7.44514871358433e-001

5.73582099206328e+004,-8.80281861407092e-001,-7.54907969467467e-001

5.81589006928121e+004,-8.80280473384459e-001,-7.65446152274053e-001

5.89707686916437e+004,-8.80279046341789e-001,-7.76131445189804e-001

5.97939699453972e+004,-8.80277579182267e-001,-7.86965901903700e-001

6.06286626604156e+004,-8.80276070778198e-001,-7.97951604778101e-001

6.14750072515201e+004,-8.80274519970207e-001,-8.09090665249229e-001

6.23331663728396e+004,-8.80272925566375e-001,-8.20385224231605e-001

6.32033049490698e+004,-8.80271286341161e-001,-8.31837452532781e-001

6.40855902071694e+004,-8.80269601034729e-001,-8.43449551267551e-001

6.49801917084985e+004,-8.80267868351748e-001,-8.55223752283860e-001

6.58872813814055e+004,-8.80266086960465e-001,-8.67162318590477e-001

6.68070335542691e+004,-8.80264255491775e-001,-8.79267544793251e-001

6.77396249890018e+004,-8.80262372538050e-001,-8.91541757534931e-001

6.86852349150199e+004,-8.80260436652142e-001,-9.03987315944771e-001

6.96440450636895e+004,-8.80258446346142e-001,-9.16606612091009e-001

7.06162397032520e+004,-8.80256400090455e-001,-9.29402071440673e-001

7.16020056742374e+004,-8.80254296312352e-001,-9.42376153327509e-001

7.26015324253724e+004,-8.80252133394992e-001,-9.55531351423456e-001

7.36150120499896e+004,-8.80249909676131e-001,-9.68870194219356e-001

7.46426393229441e+004,-8.80247623446704e-001,-9.82395245511113e-001

7.56846117380472e+004,-8.80245272949752e-001,-9.96109104892668e-001

7.67411295460207e+004,-8.80242856378874e-001,-1.01001440825665e+000

7.78123957929823e+004,-8.80240371876855e-001,-1.02411382830078e+000

7.88986163594682e+004,-8.80237817534395e-001,-1.03841007504264e+000

7.99999999999995e+004,-8.80235191388417e-001,-1.05290589634084e+000

8.11167583832018e+004,-8.80232491420823e-001,-1.06760407842356e+000

8.22491061324848e+004,-8.80229715556706e-001,-1.08250744642484e+000

8.33972608672892e+004,-8.80226861662911e-001,-1.09761886492830e+000

8.45614432449099e+004,-8.80223927546322e-001,-1.11294123851783e+000

8.57418770029029e+004,-8.80220910952196e-001,-1.12847751233728e+000

8.69387890020841e+004,-8.80217809562415e-001,-1.14423067265661e+000

8.81524092701283e+004,-8.80214620993774e-001,-1.16020374744655e+000

8.93829710457770e+004,-8.80211342796106e-001,-1.17639980696156e+000

9.06307108236633e+004,-8.80207972450356e-001,-1.19282196433092e+000

9.18958683997622e+004,-8.80204507366756e-001,-1.20947337615739e+000

9.31786869174758e+004,-8.80200944882682e-001,-1.22635724312529e+000

9.44794129143618e+004,-8.80197282260807e-001,-1.24347681061595e+000

9.57982963695136e+004,-8.80193516686877e-001,-1.26083536933264e+000

9.71355907516031e+004,-8.80189645267507e-001,-1.27843625593473e+000

9.84915530675926e+004,-8.80185665028101e-001,-1.29628285367874e+000

9.98664439121282e+004,-8.80181572910518e-001,-1.31437859307055e+000

1.01260527517622e+005,-8.80177365770585e-001,-1.33272695252587e+000

1.02674071805032e+005,-8.80173040375912e-001,-1.35133145903922e+000

1.04107348435354e+005,-8.80168593403241e-001,-1.37019568886404e+000

1.05560632861831e+005,-8.80164021436083e-001,-1.38932326820000e+000

1.07034204382888e+005,-8.80159320961855e-001,-1.40871787389261e+000

1.08528346195813e+005,-8.80154488369349e-001,-1.42838323414052e+000

1.10043345451179e+005,-8.80149519945934e-001,-1.44832312921355e+000

1.11579493308032e+005,-8.80144411874664e-001,-1.46854139218121e+000

1.13137084989847e+005,-8.80139160231428e-001,-1.48904190965035e+000

1.14716419841265e+005,-8.80133760981941e-001,-1.50982862251389e+000

1.16317801385624e+005,-8.80128209978497e-001,-1.53090552671065e+000

1.17941537383287e+005,-8.80122502957004e-001,-1.55227667399436e+000

1.19587939890794e+005,-8.80116635533585e-001,-1.57394617271429e+000

1.21257325320831e+005,-8.80110603201280e-001,-1.59591818860738e+000

1.22950014503040e+005,-8.80104401326487e-001,-1.61819694560038e+000

1.24666332745679e+005,-8.80098025145529e-001,-1.64078672662416e+000

1.26406609898139e+005,-8.80091469761033e-001,-1.66369187443852e+000

1.28171180414339e+005,-8.80084730138039e-001,-1.68691679246953e+000

1.29960383416997e+005,-8.80077801100237e-001,-1.71046594565852e+000

1.31774562762811e+005,-8.80070677325927e-001,-1.73434386132248e+000

1.33614067108538e+005,-8.80063353344072e-001,-1.75855513002619e+000

1.35479249978003e+005,-8.80055823530000e-001,-1.78310440646826e+000

1.37370469830040e+005,-8.80048082101159e-001,-1.80799641037812e+000

1.39288090127379e+005,-8.80040123112601e-001,-1.83323592742556e+000

1.41232479406504e+005,-8.80031940452609e-001,-1.85882781014461e+000

1.43204011348474e+005,-8.80023527837771e-001,-1.88477697886884e+000

1.45203064850745e+005,-8.80014878808375e-001,-1.91108842268042e+000

1.47230024099979e+005,-8.80005986723403e-001,-1.93776720037234e+000

1.49285278645888e+005,-8.79996844755415e-001,-1.96481844142481e+000

1.51369223476094e+005,-8.79987445885393e-001,-1.99224734699445e+000

1.53482259092041e+005,-8.79977782897326e-001,-2.02005919091811e+000

1.55624791585964e+005,-8.79967848372683e-001,-2.04825932073073e+000

1.57797232718936e+005,-8.79957634684796e-001,-2.07685315869726e+000

1.59999999999999e+005,-8.79947133992938e-001,-2.10584620285946e+000

1.62233516766403e+005,-8.79936338236441e-001,-2.13524402809706e+000

1.64498212264969e+005,-8.79925239128405e-001,-2.16505228720448e+000

1.66794521734578e+005,-8.79913828149556e-001,-2.19527671198195e+000

1.69122886489819e+005,-8.79902096541550e-001,-2.22592311434256e+000

1.71483754005805e+005,-8.79890035300376e-001,-2.25699738743537e+000

1.73877578004168e+005,-8.79877635169450e-001,-2.28850550678320e+000

1.76304818540256e+005,-8.79864886632580e-001,-2.32045353143738e+000

1.78765942091554e+005,-8.79851779906620e-001,-2.35284760514859e+000

1.81261421647326e+005,-8.79838304934170e-001,-2.38569395755423e+000

1.83791736799524e+005,-8.79824451375688e-001,-2.41899890538249e+000

1.86357373834951e+005,-8.79810208601789e-001,-2.45276885367360e+000

1.88958825828723e+005,-8.79795565685033e-001,-2.48701029701826e+000

1.91596592739027e+005,-8.79780511391556e-001,-2.52172982081394e+000

1.94271181503206e+005,-8.79765034172650e-001,-2.55693410253802e+000

1.96983106135185e+005,-8.79749122155870e-001,-2.59262991303990e+000

1.99732887824256e+005,-8.79732763135894e-001,-2.62882411785193e+000

2.02521055035243e+005,-8.79715944565450e-001,-2.66552367851650e+000

2.05348143610063e+005,-8.79698653545532e-001,-2.70273565393504e+000

2.08214696870707e+005,-8.79680876815781e-001,-2.74046720173363e+000

2.11121265723661e+005,-8.79662600744184e-001,-2.77872557964998e+000

2.14068408765776e+005,-8.79643811316836e-001,-2.81751814693871e+000

2.17056692391625e+005,-8.79624494127317e-001,-2.85685236579654e+000

2.20086690902357e+005,-8.79604634365525e-001,-2.89673580280954e+000

2.23158986616063e+005,-8.79584216806716e-001,-2.93717613041828e+000

2.26274169979693e+005,-8.79563225799603e-001,-2.97818112840663e+000

2.29432839682530e+005,-8.79541645254754e-001,-3.01975868540903e+000

2.32635602771247e+005,-8.79519458632202e-001,-3.06191680044144e+000

2.35883074766574e+005,-8.79496648928898e-001,-3.10466358445303e+000

2.39175879781588e+005,-8.79473198665864e-001,-3.14800726190006e+000

2.42514650641661e+005,-8.79449089874906e-001,-3.19195617234243e+000

2.45900029006080e+005,-8.79424304084945e-001,-3.23651877206294e+000

2.49332665491357e+005,-8.79398822308084e-001,-3.28170363570967e+000

2.52813219796278e+005,-8.79372625025116e-001,-3.32751945796214e+000

2.56342360828676e+005,-8.79345692170867e-001,-3.37397505522030e+000

2.59920766833993e+005,-8.79318003118851e-001,-3.42107936731936e+000

2.63549125525621e+005,-8.79289536665740e-001,-3.46884145926751e+000

2.67228134217075e+005,-8.79260271015391e-001,-3.51727052300962e+000

2.70958499956006e+005,-8.79230183762199e-001,-3.56637587921559e+000

2.74740939660078e+005,-8.79199251874270e-001,-3.61616697909526e+000

2.78576180254757e+005,-8.79167451675953e-001,-3.66665340623816e+000

2.82464958813007e+005,-8.79134758830017e-001,-3.71784487848062e+000

2.86408022696948e+005,-8.79101148319256e-001,-3.76975124979951e+000

2.90406129701488e+005,-8.79066594427594e-001,-3.82238251223324e+000

2.94460048199957e+005,-8.79031070720688e-001,-3.87574879783025e+000

2.98570557291775e+005,-8.78994550026071e-001,-3.92986038062593e+000

3.02738446952187e+005,-8.78957004412608e-001,-3.98472767864778e+000

3.06964518184081e+005,-8.78918405169525e-001,-4.04036125594980e+000

3.11249583171928e+005,-8.78878722784743e-001,-4.09677182467590e+000

3.15594465437872e+005,-8.78837926922749e-001,-4.15397024715408e+000

3.19999999999997e+005,-8.78795986401737e-001,-4.21196753801968e+000

3.24467033532806e+005,-8.78752869170354e-001,-4.27077486637026e+000

3.28996424529938e+005,-8.78708542283383e-001,-4.33040355795190e+000

3.33589043469155e+005,-8.78662971877215e-001,-4.39086509737679e+000

3.38245772979638e+005,-8.78616123144538e-001,-4.45217113037263e+000

3.42967508011610e+005,-8.78567960308023e-001,-4.51433346606675e+000

3.47755156008335e+005,-8.78518446593774e-001,-4.57736407930104e+000

3.52609637080511e+005,-8.78467544203798e-001,-4.64127511298214e+000

3.57531884183106e+005,-8.78415214287676e-001,-4.70607888046628e+000

3.62522843294651e+005,-8.78361416913608e-001,-4.77178786797759e+000

3.67583473599047e+005,-8.78306111038634e-001,-4.83841473706325e+000

3.72714747669902e+005,-8.78249254478096e-001,-4.90597232708381e+000

3.77917651657445e+005,-8.78190803874123e-001,-4.97447365774050e+000

3.83193185478053e+005,-8.78130714663489e-001,-5.04393193163958e+000

3.88542363006410e+005,-8.78068941044443e-001,-5.11436053689446e+000

3.93966212270369e+005,-8.78005435942631e-001,-5.18577304976623e+000

3.99465775648511e+005,-8.77940150976379e-001,-5.25818323734312e+000

4.05042110070485e+005,-8.77873036420633e-001,-5.33160506025972e+000

4.10696287220124e+005,-8.77804041170282e-001,-5.40605267545654e+000

4.16429393741414e+005,-8.77733112702332e-001,-5.48154043898000e+000

4.22242531447321e+005,-8.77660197037201e-001,-5.55808290882481e+000

4.28136817531551e+005,-8.77585238698733e-001,-5.63569484781839e+000

4.34113384783250e+005,-8.77508180673516e-001,-5.71439122654757e+000

4.40173381804713e+005,-8.77428964368765e-001,-5.79418722633037e+000

4.46317973232124e+005,-8.77347529569394e-001,-5.87509824223090e+000

4.52548339959385e+005,-8.77263814393769e-001,-5.95713988612027e+000

4.58865679365059e+005,-8.77177755248334e-001,-6.04032798978321e+000

4.65271205542494e+005,-8.77089286781080e-001,-6.12467860807158e+000

4.71766149533147e+005,-8.76998341833884e-001,-6.21020802210473e+000

4.78351759563174e+005,-8.76904851393280e-001,-6.29693274251934e+000

4.85029301283321e+005,-8.76808744540330e-001,-6.38486951276739e+000

4.91800058012158e+005,-8.76709948399051e-001,-6.47403531246458e+000

4.98665330982714e+005,-8.76608388083418e-001,-6.56444736078944e+000

5.05626439592555e+005,-8.76503986642924e-001,-6.65612311993468e+000

5.12684721657352e+005,-8.76396665007264e-001,-6.74908029861028e+000

5.19841533667984e+005,-8.76286341928730e-001,-6.84333685560109e+000

5.27098251051240e+005,-8.76172933923971e-001,-6.93891100337805e+000

5.34456268434150e+005,-8.76056355213634e-001,-7.03582121176585e+000

5.41916999912011e+005,-8.75936517660948e-001,-7.13408621166605e+000

