Freq.,VOut,OutRef

1.00000000000000e+004,-1.68745359564509e+001,-6.13230291927236e-002

1.01395947979003e+004,-1.68745359825989e+001,-6.21790667161903e-002

1.02811382665607e+004,-1.68745360094819e+001,-6.30470540760670e-002

1.04246576084112e+004,-1.68745360371205e+001,-6.39271580860668e-002

1.05701804056138e+004,-1.68745360655364e+001,-6.48195478857119e-002

1.07177346253629e+004,-1.68745360947509e+001,-6.57243949817465e-002

1.08673486252606e+004,-1.68745361247870e+001,-6.66418732678509e-002

1.10190511587661e+004,-1.68745361556674e+001,-6.75721590707459e-002

1.11728713807222e+004,-1.68745361874161e+001,-6.85154311753411e-002

1.13288388529580e+004,-1.68745362200572e+001,-6.94718708653519e-002

1.14869835499703e+004,-1.68745362536158e+001,-7.04416619535336e-002

1.16473358646846e+004,-1.68745362881182e+001,-7.14249908144206e-002

1.18099266142953e+004,-1.68745363235905e+001,-7.24220464312131e-002

1.19747870461893e+004,-1.68745363600600e+001,-7.34330204225262e-002

1.21419488439505e+004,-1.68745363975550e+001,-7.44581070789331e-002

1.23114441334492e+004,-1.68745364361039e+001,-7.54975034085053e-002

1.24833054890161e+004,-1.68745364757365e+001,-7.65514091655137e-002

1.26575659397028e+004,-1.68745365164836e+001,-7.76200268925745e-002

1.28342589756290e+004,-1.68745365583759e+001,-7.87035619637845e-002

1.30134185544193e+004,-1.68745366014463e+001,-7.98022226130788e-002

1.31950791077289e+004,-1.68745366457273e+001,-8.09162199903385e-002

1.33792755478611e+004,-1.68745366912534e+001,-8.20457681840385e-002

1.35660432744767e+004,-1.68745367380594e+001,-8.31910842771843e-002

1.37554181813974e+004,-1.68745367861811e+001,-8.43523883815116e-002

1.39474366635040e+004,-1.68745368356560e+001,-8.55299036788655e-002

1.41421356237309e+004,-1.68745368865215e+001,-8.67238564723010e-002

1.43395524801583e+004,-1.68745369388173e+001,-8.79344762169533e-002

1.45397251732031e+004,-1.68745369925831e+001,-8.91619955769804e-002

1.47426921729110e+004,-1.68745370478606e+001,-9.04066504601136e-002

1.49484924863494e+004,-1.68745371046921e+001,-9.16686800705015e-002

1.51571656651040e+004,-1.68745371631216e+001,-9.29483269476132e-002

1.53687518128801e+004,-1.68745372231934e+001,-9.42458370227223e-002

1.55832915932100e+004,-1.68745372849543e+001,-9.55614596523111e-002

1.58008262372675e+004,-1.68745373484513e+001,-9.68954476816851e-002

1.60213975517924e+004,-1.68745374137337e+001,-9.82480574783532e-002

1.62450479271247e+004,-1.68745374808513e+001,-9.96195489945134e-002

1.64718203453514e+004,-1.68745375498559e+001,-1.01010185807308e-001

1.67017583885674e+004,-1.68745376208005e+001,-1.02420235175541e-001

1.69349062472505e+004,-1.68745376937395e+001,-1.03849968087466e-001

1.71713087287550e+004,-1.68745377687290e+001,-1.05299659316223e-001

1.74110112659224e+004,-1.68745378458269e+001,-1.06769587465969e-001

1.76540599258131e+004,-1.68745379250924e+001,-1.08260035033984e-001

1.79005014185594e+004,-1.68745380065862e+001,-1.09771288462005e-001

1.81503831063432e+004,-1.68745380903712e+001,-1.11303638186397e-001

1.84037530124975e+004,-1.68745381765117e+001,-1.12857378701229e-001

1.86606598307361e+004,-1.68745382650739e+001,-1.14432808609247e-001

1.89211529345119e+004,-1.68745383561259e+001,-1.16030230682875e-001

1.91852823865052e+004,-1.68745384497377e+001,-1.17649951919814e-001

1.94530989482457e+004,-1.68745385459815e+001,-1.19292283604418e-001

1.97246540898671e+004,-1.68745386449309e+001,-1.20957541366839e-001

1.99999999999999e+004,-1.68745387466621e+001,-1.22646045242015e-001

2.02791895958005e+004,-1.68745388512534e+001,-1.24358119732813e-001

2.05622765331213e+004,-1.68745389587851e+001,-1.26094093871504e-001

2.08493152168224e+004,-1.68745390693401e+001,-1.27854301282842e-001

2.11403608112276e+004,-1.68745391830031e+001,-1.29639080251898e-001

2.14354692507258e+004,-1.68745392998615e+001,-1.31448773783204e-001

2.17346972505211e+004,-1.68745394200054e+001,-1.33283729669125e-001

2.20381023175322e+004,-1.68745395435268e+001,-1.35144300559410e-001

2.23457427614443e+004,-1.68745396705211e+001,-1.37030844023116e-001

2.26576777059159e+004,-1.68745398010855e+001,-1.38943722624301e-001

2.29739670999406e+004,-1.68745399353207e+001,-1.40883303986050e-001

2.32946717293690e+004,-1.68745400733298e+001,-1.42849960863224e-001

2.36198532285905e+004,-1.68745402152187e+001,-1.44844071215584e-001

2.39495740923785e+004,-1.68745403610967e+001,-1.46866018277802e-001

2.42838976879009e+004,-1.68745405110759e+001,-1.48916190634079e-001

2.46228882668982e+004,-1.68745406652715e+001,-1.50994982293320e-001

2.49666109780322e+004,-1.68745408238022e+001,-1.53102792764686e-001

2.53151318794055e+004,-1.68745409867898e+001,-1.55240027134911e-001

2.56685179512580e+004,-1.68745411543595e+001,-1.57407096143430e-001

2.60268371088386e+004,-1.68745413266405e+001,-1.59604416263930e-001

2.63901582154578e+004,-1.68745415037647e+001,-1.61832409786495e-001

2.67585510957221e+004,-1.68745416858685e+001,-1.64091504893024e-001

2.71320865489533e+004,-1.68745418730920e+001,-1.66382135742929e-001

2.75108363627948e+004,-1.68745420655792e+001,-1.68704742556688e-001

2.78948733270080e+004,-1.68745422634778e+001,-1.71059771701198e-001

2.82842712474618e+004,-1.68745424669400e+001,-1.73447675772061e-001

2.86791049603164e+004,-1.68745426761225e+001,-1.75868913683065e-001

2.90794503464061e+004,-1.68745428911857e+001,-1.78323950757283e-001

2.94853843458219e+004,-1.68745431122953e+001,-1.80813258808187e-001

2.98969849726987e+004,-1.68745433396210e+001,-1.83337316239613e-001

3.03143313302078e+004,-1.68745435733377e+001,-1.85896608132085e-001

3.07375036257601e+004,-1.68745438136251e+001,-1.88491626337088e-001

3.11665831864199e+004,-1.68745440606679e+001,-1.91122869571687e-001

3.16016524745350e+004,-1.68745443146559e+001,-1.93790843516725e-001

3.20427951035848e+004,-1.68745445757845e+001,-1.96496060910041e-001

3.24900958542493e+004,-1.68745448442544e+001,-1.99239041647318e-001

3.29436406907028e+004,-1.68745451202721e+001,-2.02020312880407e-001

3.34035167771346e+004,-1.68745454040496e+001,-2.04840409122711e-001

3.38698124945009e+004,-1.68745456958051e+001,-2.07699872347514e-001

3.43426174575100e+004,-1.68745459957630e+001,-2.10599252091776e-001

3.48220225318448e+004,-1.68745463041538e+001,-2.13539105566415e-001

3.53081198516260e+004,-1.68745466212147e+001,-2.16519997758082e-001

3.58010028371187e+004,-1.68745469471892e+001,-2.19542501542892e-001

3.63007662126863e+004,-1.68745472823282e+001,-2.22607197790895e-001

3.68075060249948e+004,-1.68745476268893e+001,-2.25714675482338e-001

3.73213196614721e+004,-1.68745479811370e+001,-2.28865531820146e-001

3.78423058690237e+004,-1.68745483453442e+001,-2.32060372339788e-001

3.83705647730104e+004,-1.68745487197905e+001,-2.35299811034203e-001

3.89061978964912e+004,-1.68745491047638e+001,-2.38584470463967e-001

3.94493081797342e+004,-1.68745495005602e+001,-2.41914981880373e-001

3.99999999999998e+004,-1.68745499074840e+001,-2.45291985346818e-001

4.05583791916010e+004,-1.68745503258478e+001,-2.48716129863283e-001

4.11245530662425e+004,-1.68745507559734e+001,-2.52188073485523e-001

4.16986304336447e+004,-1.68745511981915e+001,-2.55708483457985e-001

4.22807216224550e+004,-1.68745516528419e+001,-2.59278036337522e-001

4.28709385014515e+004,-1.68745521202741e+001,-2.62897418126983e-001

4.34693945010421e+004,-1.68745526008477e+001,-2.66567324402590e-001

4.40762046350642e+004,-1.68745530949320e+001,-2.70288460451035e-001

4.46914855228886e+004,-1.68745536029067e+001,-2.74061541406195e-001

4.53153554118317e+004,-1.68745541251626e+001,-2.77887292380848e-001

4.59479341998812e+004,-1.68745546621009e+001,-2.81766448612639e-001

4.65893434587380e+004,-1.68745552141345e+001,-2.85699755600589e-001

4.72397064571810e+004,-1.68745557816879e+001,-2.89687969250334e-001

4.78991481847569e+004,-1.68745563651972e+001,-2.93731856020661e-001

4.85677953758016e+004,-1.68745569651111e+001,-2.97832193066661e-001

4.92457765337964e+004,-1.68745575818908e+001,-3.01989768393092e-001

4.99332219560642e+004,-1.68745582160104e+001,-3.06205381004845e-001

5.06302637588109e+004,-1.68745588679574e+001,-3.10479841058925e-001

5.13370359025159e+004,-1.68745595382330e+001,-3.14813970021593e-001

5.20536742176771e+004,-1.68745602273524e+001,-3.19208600826118e-001

5.27803164309155e+004,-1.68745609358456e+001,-3.23664578031576e-001

5.35171021914442e+004,-1.68745616642570e+001,-3.28182757986677e-001

5.42641730979066e+004,-1.68745624131467e+001,-3.32764008993920e-001

5.50216727255895e+004,-1.68745631830904e+001,-3.37409211475406e-001

5.57897466540159e+004,-1.68745639746800e+001,-3.42119258143046e-001

5.65685424949235e+004,-1.68745647885239e+001,-3.46895054170879e-001

5.73582099206328e+004,-1.68745656252480e+001,-3.51737517366263e-001

5.81589006928121e+004,-1.68745664854954e+001,-3.56647578348588e-001

5.89707686916437e+004,-1.68745673699273e+001,-3.61626180727981e-001

5.97939699453972e+004,-1.68745682792239e+001,-3.66674281284640e-001

6.06286626604156e+004,-1.68745692140839e+001,-3.71792850155486e-001

6.14750072515201e+004,-1.68745701752262e+001,-3.76982871018479e-001

6.23331663728396e+004,-1.68745711633896e+001,-3.82245341281551e-001

6.32033049490698e+004,-1.68745721793338e+001,-3.87581272276114e-001

6.40855902071694e+004,-1.68745732238397e+001,-3.92991689449136e-001

6.49801917084985e+004,-1.68745742977104e+001,-3.98477632561957e-001

6.58872813814055e+004,-1.68745754017714e+001,-4.04040155888866e-001

6.68070335542691e+004,-1.68745765368713e+001,-4.09680328420452e-001

6.77396249890018e+004,-1.68745777038830e+001,-4.15399234067557e-001

6.86852349150199e+004,-1.68745789037033e+001,-4.21197971872395e-001

6.96440450636895e+004,-1.68745801372547e+001,-4.27077656216038e-001

7.06162397032520e+004,-1.68745814054855e+001,-4.33039417035653e-001

7.16020056742374e+004,-1.68745827093707e+001,-4.39084400038988e-001

7.26015324253724e+004,-1.68745840499125e+001,-4.45213766926903e-001

7.36150120499896e+004,-1.68745854281416e+001,-4.51428695614523e-001

7.46426393229441e+004,-1.68745868451174e+001,-4.57730380458908e-001

7.56846117380472e+004,-1.68745883019292e+001,-4.64120032487697e-001

7.67411295460207e+004,-1.68745897996969e+001,-4.70598879632439e-001

7.78123957929823e+004,-1.68745913395719e+001,-4.77168166963166e-001

7.88986163594682e+004,-1.68745929227380e+001,-4.83829156929682e-001

7.99999999999995e+004,-1.68745945504122e+001,-4.90583129601365e-001

8.11167583832018e+004,-1.68745962238458e+001,-4.97431382916056e-001

8.22491061324848e+004,-1.68745979443251e+001,-5.04375232927057e-001

8.33972608672892e+004,-1.68745997131728e+001,-5.11416014056489e-001

8.45614432449099e+004,-1.68746015317486e+001,-5.18555079352945e-001

8.57418770029029e+004,-1.68746034014506e+001,-5.25793800748653e-001

8.69387890020841e+004,-1.68746053237160e+001,-5.33133569326197e-001

8.81524092701283e+004,-1.68746073000225e+001,-5.40575795583758e-001

8.93829710457770e+004,-1.68746093318893e+001,-5.48121909706474e-001

9.06307108236633e+004,-1.68746114208785e+001,-5.55773361839638e-001

9.18958683997622e+004,-1.68746135685959e+001,-5.63531622371462e-001

9.31786869174758e+004,-1.68746157766924e+001,-5.71398182210419e-001

9.44794129143618e+004,-1.68746180468655e+001,-5.79374553074530e-001

9.57982963695136e+004,-1.68746203808603e+001,-5.87462267781736e-001

9.71355907516031e+004,-1.68746227804710e+001,-5.95662880543024e-001

9.84915530675926e+004,-1.68746252475422e+001,-6.03977967261109e-001

9.98664439121282e+004,-1.68746277839703e+001,-6.12409125834564e-001

1.01260527517622e+005,-1.68746303917053e+001,-6.20957976462145e-001

1.02674071805032e+005,-1.68746330727515e+001,-6.29626161956602e-001

1.04107348435354e+005,-1.68746358291702e+001,-6.38415348058251e-001

1.05560632861831e+005,-1.68746386630799e+001,-6.47327223756093e-001

1.07034204382888e+005,-1.68746415766594e+001,-6.56363501610733e-001

1.08528346195813e+005,-1.68746445721482e+001,-6.65525918084520e-001

1.10043345451179e+005,-1.68746476518489e+001,-6.74816233874944e-001

1.11579493308032e+005,-1.68746508181289e+001,-6.84236234251455e-001

1.13137084989847e+005,-1.68746540734222e+001,-6.93787729399921e-001

1.14716419841265e+005,-1.68746574202310e+001,-7.03472554768844e-001

1.16317801385624e+005,-1.68746608611279e+001,-7.13292571422242e-001

1.17941537383287e+005,-1.68746643987583e+001,-7.23249666396534e-001

1.19587939890794e+005,-1.68746680358411e+001,-7.33345753064806e-001

1.21257325320831e+005,-1.68746717751722e+001,-7.43582771500871e-001

1.22950014503040e+005,-1.68746756196261e+001,-7.53962688854224e-001

1.24666332745679e+005,-1.68746795721578e+001,-7.64487499727562e-001

1.26406609898139e+005,-1.68746836358057e+001,-7.75159226557323e-001

1.28171180414339e+005,-1.68746878136932e+001,-7.85979920005203e-001

1.29960383416997e+005,-1.68746921090319e+001,-7.96951659349551e-001

1.31774562762811e+005,-1.68746965251235e+001,-8.08076552884770e-001

1.33614067108538e+005,-1.68747010653624e+001,-8.19356738327074e-001

1.35479249978003e+005,-1.68747057332386e+001,-8.30794383223349e-001

1.37370469830040e+005,-1.68747105323402e+001,-8.42391685367775e-001

1.39288090127379e+005,-1.68747154663559e+001,-8.54150873224643e-001

1.41232479406504e+005,-1.68747205390783e+001,-8.66074206353692e-001

1.43204011348474e+005,-1.68747257544067e+001,-8.78163975846007e-001

1.45203064850745e+005,-1.68747311163497e+001,-8.90422504762263e-001

1.47230024099979e+005,-1.68747366290287e+001,-9.02852148579317e-001

1.49285278645888e+005,-1.68747422966813e+001,-9.15455295640747e-001

1.51369223476094e+005,-1.68747481236634e+001,-9.28234367618303e-001

1.53482259092041e+005,-1.68747541144541e+001,-9.41191819971910e-001

1.55624791585964e+005,-1.68747602736582e+001,-9.54330142424478e-001

1.57797232718936e+005,-1.68747666060096e+001,-9.67651859438106e-001

1.59999999999999e+005,-1.68747731163755e+001,-9.81159530698777e-001

1.62233516766403e+005,-1.68747798097600e+001,-9.94855751606489e-001

1.64498212264969e+005,-1.68747866913077e+001,-1.00874315377362e+000

1.66794521734578e+005,-1.68747937663078e+001,-1.02282440553070e+000

1.69122886489819e+005,-1.68748010401981e+001,-1.03710221243569e+000

1.71483754005805e+005,-1.68748085185695e+001,-1.05157931779550e+000

1.73877578004168e+005,-1.68748162071696e+001,-1.06625850319039e+000

1.76304818540256e+005,-1.68748241119079e+001,-1.08114258900811e+000

1.78765942091554e+005,-1.68748322388600e+001,-1.09623443498412e+000

1.81261421647326e+005,-1.68748405942717e+001,-1.11153694075092e+000

1.83791736799524e+005,-1.68748491845652e+001,-1.12705304639169e+000

1.86357373834951e+005,-1.68748580163424e+001,-1.14278573300762e+000

1.88958825828723e+005,-1.68748670963913e+001,-1.15873802328519e+000

1.91596592739027e+005,-1.68748764316903e+001,-1.17491298207879e+000

1.94271181503206e+005,-1.68748860294140e+001,-1.19131371699640e+000

1.96983106135185e+005,-1.68748958969388e+001,-1.20794337899628e+000

1.99732887824256e+005,-1.68749060418481e+001,-1.22480516298906e+000

2.02521055035243e+005,-1.68749164719388e+001,-1.24190230845171e+000

2.05348143610063e+005,-1.68749271952265e+001,-1.25923810004785e+000

2.08214696870707e+005,-1.68749382199522e+001,-1.27681586825653e+000

2.11121265723661e+005,-1.68749495545886e+001,-1.29463899001037e+000

2.14068408765776e+005,-1.68749612078464e+001,-1.31271088934222e+000

2.17056692391625e+005,-1.68749731886809e+001,-1.33103503804206e+000

2.20086690902357e+005,-1.68749855062994e+001,-1.34961495632073e+000

2.23158986616063e+005,-1.68749981701677e+001,-1.36845421348360e+000

2.26274169979693e+005,-1.68750111900175e+001,-1.38755642861674e+000

2.29432839682530e+005,-1.68750245758542e+001,-1.40692527127545e+000

2.32635602771247e+005,-1.68750383379640e+001,-1.42656446219166e+000

2.35883074766574e+005,-1.68750524869225e+001,-1.44647777398154e+000

2.39175879781588e+005,-1.68750670336021e+001,-1.46666903187105e+000

2.42514650641661e+005,-1.68750819891808e+001,-1.48714211442649e+000

2.45900029006080e+005,-1.68750973651508e+001,-1.50790095429590e+000

2.49332665491357e+005,-1.68751131733271e+001,-1.52894953896291e+000

2.52813219796278e+005,-1.68751294258566e+001,-1.55029191150921e+000

2.56342360828676e+005,-1.68751461352274e+001,-1.57193217138725e+000

2.59920766833993e+005,-1.68751633142785e+001,-1.59387447520527e+000

2.63549125525621e+005,-1.68751809762097e+001,-1.61612303752061e+000

2.67228134217075e+005,-1.68751991345917e+001,-1.63868213164674e+000

2.70958499956006e+005,-1.68752178033760e+001,-1.66155609047096e+000

2.74740939660078e+005,-1.68752369969064e+001,-1.68474930727986e+000

2.78576180254757e+005,-1.68752567299296e+001,-1.70826623660179e+000

2.82464958813007e+005,-1.68752770176065e+001,-1.73211139505633e+000

2.86408022696948e+005,-1.68752978755238e+001,-1.75628936221816e+000

2.90406129701488e+005,-1.68753193197062e+001,-1.78080478149054e+000

2.94460048199957e+005,-1.68753413666282e+001,-1.80566236099360e+000

2.98570557291775e+005,-1.68753640332274e+001,-1.83086687446300e+000

3.02738446952187e+005,-1.68753873369168e+001,-1.85642316216026e+000

3.06964518184081e+005,-1.68754112955989e+001,-1.88233613179787e+000

3.11249583171928e+005,-1.68754359276784e+001,-1.90861075947602e+000

3.15594465437872e+005,-1.68754612520775e+001,-1.93525209063064e+000

3.19999999999997e+005,-1.68754872882495e+001,-1.96226524099708e+000

3.24467033532806e+005,-1.68755140561939e+001,-1.98965539758642e+000

3.28996424529938e+005,-1.68755415764722e+001,-2.01742781967230e+000

3.33589043469155e+005,-1.68755698702230e+001,-2.04558783979630e+000

3.38245772979638e+005,-1.68755989591786e+001,-2.07414086478236e+000

3.42967508011610e+005,-1.68756288656816e+001,-2.10309237676790e+000

3.47755156008335e+005,-1.68756596127017e+001,-2.13244793424822e+000

3.52609637080511e+005,-1.68756912238539e+001,-2.16221317313492e+000

3.57531884183106e+005,-1.68757237234159e+001,-2.19239380782961e+000

3.62522843294651e+005,-1.68757571363473e+001,-2.22299563231092e+000

3.67583473599047e+005,-1.68757914883083e+001,-2.25402452123794e+000

3.72714747669902e+005,-1.68758268056793e+001,-2.28548643106801e+000

3.77917651657445e+005,-1.68758631155816e+001,-2.31738740118862e+000

3.83193185478053e+005,-1.68759004458976e+001,-2.34973355506714e+000

3.88542363006410e+005,-1.68759388252924e+001,-2.38253110141439e+000

3.93966212270369e+005,-1.68759782832359e+001,-2.41578633536396e+000

3.99465775648511e+005,-1.68760188500247e+001,-2.44950563966936e+000

4.05042110070485e+005,-1.68760605568063e+001,-2.48369548591495e+000

4.10696287220124e+005,-1.68761034356017e+001,-2.51836243574565e+000

4.16429393741414e+005,-1.68761475193312e+001,-2.55351314211140e+000

4.22242531447321e+005,-1.68761928418384e+001,-2.58915435052982e+000

4.28136817531551e+005,-1.68762394379169e+001,-2.62529290036586e+000

4.34113384783250e+005,-1.68762873433363e+001,-2.66193572612753e+000

4.40173381804713e+005,-1.68763365948699e+001,-2.69908985878110e+000

4.46317973232124e+005,-1.68763872303231e+001,-2.73676242708149e+000

4.52548339959385e+005,-1.68764392885613e+001,-2.77496065892409e+000

4.58865679365059e+005,-1.68764928095405e+001,-2.81369188271122e+000

4.65271205542494e+005,-1.68765478343376e+001,-2.85296352873953e+000

4.71766149533147e+005,-1.68766044051815e+001,-2.89278313060455e+000

4.78351759563174e+005,-1.68766625654857e+001,-2.93315832662508e+000

4.85029301283321e+005,-1.68767223598810e+001,-2.97409686128664e+000

4.91800058012158e+005,-1.68767838342501e+001,-3.01560658670328e+000

4.98665330982714e+005,-1.68768470357621e+001,-3.05769546410041e+000

5.05626439592555e+005,-1.68769120129088e+001,-3.10037156531581e+000

5.12684721657352e+005,-1.68769788155417e+001,-3.14364307432240e+000

5.19841533667984e+005,-1.68770474949098e+001,-3.18751828877070e+000

5.27098251051240e+005,-1.68771181036989e+001,-3.23200562155049e+000

5.34456268434150e+005,-1.68771906960714e+001,-3.27711360237628e+000

5.41916999912011e+005,-1.68772653277081e+001,-3.32285087939021e+000

