Freq.,VOut,OutRef

1.00000000000000e+004,-2.03273247631217e+001,-6.04038155766155e-002

1.01395947979003e+004,-2.03273248024766e+001,-6.12470213178491e-002

1.02811382665607e+004,-2.03273248429378e+001,-6.21019977691550e-002

1.04246576084112e+004,-2.03273248845367e+001,-6.29689092418861e-002

1.05701804056138e+004,-2.03273249273049e+001,-6.38479223436602e-002

1.07177346253629e+004,-2.03273249712757e+001,-6.47392060052909e-002

1.08673486252606e+004,-2.03273250164826e+001,-6.56429315187818e-002

1.10190511587661e+004,-2.03273250629603e+001,-6.65592725659199e-002

1.11728713807222e+004,-2.03273251107449e+001,-6.74884052498626e-002

1.13288388529580e+004,-2.03273251598728e+001,-6.84305081379053e-002

1.14869835499703e+004,-2.03273252103817e+001,-6.93857622873513e-002

1.16473358646846e+004,-2.03273252623109e+001,-7.03543512797476e-002

1.18099266142953e+004,-2.03273253156998e+001,-7.13364612655967e-002

1.19747870461893e+004,-2.03273253705899e+001,-7.23322809876472e-002

1.21419488439505e+004,-2.03273254270228e+001,-7.33420018298907e-002

1.23114441334492e+004,-2.03273254850426e+001,-7.43658178403936e-002

1.24833054890161e+004,-2.03273255446935e+001,-7.54039257828210e-002

1.26575659397028e+004,-2.03273256060212e+001,-7.64565251646747e-002

1.28342589756290e+004,-2.03273256690732e+001,-7.75238182775740e-002

1.30134185544193e+004,-2.03273257338978e+001,-7.86060102387324e-002

1.31950791077289e+004,-2.03273258005449e+001,-7.97033090273794e-002

1.33792755478611e+004,-2.03273258690657e+001,-8.08159255266370e-002

1.35660432744767e+004,-2.03273259395129e+001,-8.19440735639470e-002

1.37554181813974e+004,-2.03273260119406e+001,-8.30879699501399e-002

1.39474366635040e+004,-2.03273260864045e+001,-8.42478345248444e-002

1.41421356237309e+004,-2.03273261629620e+001,-8.54238901934253e-002

1.43395524801583e+004,-2.03273262416717e+001,-8.66163629765073e-002

1.45397251732031e+004,-2.03273263225942e+001,-8.78254820471053e-002

1.47426921729110e+004,-2.03273264057919e+001,-8.90514797778220e-002

1.49484924863494e+004,-2.03273264913284e+001,-9.02945917865612e-002

1.51571656651040e+004,-2.03273265792698e+001,-9.15550569779480e-002

1.53687518128801e+004,-2.03273266696836e+001,-9.28331175934283e-002

1.55832915932100e+004,-2.03273267626392e+001,-9.41290192551265e-002

1.58008262372675e+004,-2.03273268582082e+001,-9.54430110141079e-002

1.60213975517924e+004,-2.03273269564639e+001,-9.67753453992129e-002

1.62450479271247e+004,-2.03273270574819e+001,-9.81262784621701e-002

1.64718203453514e+004,-2.03273271613400e+001,-9.94960698297552e-002

1.67017583885674e+004,-2.03273272681179e+001,-1.00884982754629e-001

1.69349062472505e+004,-2.03273273778978e+001,-1.02293284161033e-001

1.71713087287550e+004,-2.03273274907640e+001,-1.03721244703228e-001

1.74110112659224e+004,-2.03273276068032e+001,-1.05169138811161e-001

1.76540599258131e+004,-2.03273277261049e+001,-1.06637244744940e-001

1.79005014185594e+004,-2.03273278487604e+001,-1.08125844652468e-001

1.81503831063432e+004,-2.03273279748645e+001,-1.09635224615067e-001

1.84037530124975e+004,-2.03273281045135e+001,-1.11165674713912e-001

1.86606598307361e+004,-2.03273282378077e+001,-1.12717489072969e-001

1.89211529345119e+004,-2.03273283748493e+001,-1.14290965926672e-001

1.91852823865052e+004,-2.03273285157436e+001,-1.15886407670925e-001

1.94530989482457e+004,-2.03273286605989e+001,-1.17504120922917e-001

1.97246540898671e+004,-2.03273288095267e+001,-1.19144416580303e-001

1.99999999999999e+004,-2.03273289626413e+001,-1.20807609880824e-001

2.02791895958005e+004,-2.03273291200607e+001,-1.22494020460308e-001

2.05622765331213e+004,-2.03273292819056e+001,-1.24203972421347e-001

2.08493152168224e+004,-2.03273294483006e+001,-1.25937794385650e-001

2.11403608112276e+004,-2.03273296193738e+001,-1.27695819564719e-001

2.14354692507258e+004,-2.03273297952564e+001,-1.29478385821966e-001

2.17346972505211e+004,-2.03273299760837e+001,-1.31285835737069e-001

2.20381023175322e+004,-2.03273301619948e+001,-1.33118516669911e-001

2.23457427614443e+004,-2.03273303531324e+001,-1.34976780831623e-001

2.26576777059159e+004,-2.03273305496437e+001,-1.36860985347820e-001

2.29739670999406e+004,-2.03273307516797e+001,-1.38771492331573e-001

2.32946717293690e+004,-2.03273309593957e+001,-1.40708668948537e-001

2.36198532285905e+004,-2.03273311729514e+001,-1.42672887490902e-001

2.39495740923785e+004,-2.03273313925109e+001,-1.44664525448764e-001

2.42838976879009e+004,-2.03273316182431e+001,-1.46683965579919e-001

2.46228882668982e+004,-2.03273318503213e+001,-1.48731595986135e-001

2.49666109780322e+004,-2.03273320889243e+001,-1.50807810185638e-001

2.53151318794055e+004,-2.03273323342355e+001,-1.52913007190133e-001

2.56685179512580e+004,-2.03273325864430e+001,-1.55047591584475e-001

2.60268371088386e+004,-2.03273328457409e+001,-1.57211973597170e-001

2.63901582154578e+004,-2.03273331123290e+001,-1.59406569182964e-001

2.67585510957221e+004,-2.03273333864116e+001,-1.61631800106797e-001

2.71320865489533e+004,-2.03273336681999e+001,-1.63888094017231e-001

2.75108363627948e+004,-2.03273339579103e+001,-1.66175884534552e-001

2.78948733270080e+004,-2.03273342557655e+001,-1.68495611331740e-001

2.82842712474618e+004,-2.03273345619945e+001,-1.70847720219158e-001

2.86791049603164e+004,-2.03273348768327e+001,-1.73232663230402e-001

2.90794503464061e+004,-2.03273352005224e+001,-1.75650898707061e-001

2.94853843458219e+004,-2.03273355333120e+001,-1.78102891393030e-001

2.98969849726987e+004,-2.03273358754576e+001,-1.80589112515080e-001

3.03143313302078e+004,-2.03273362272222e+001,-1.83110039881318e-001

3.07375036257601e+004,-2.03273365888763e+001,-1.85666157966517e-001

3.11665831864199e+004,-2.03273369606978e+001,-1.88257958011490e-001

3.16016524745350e+004,-2.03273373429725e+001,-1.90885938112416e-001

3.20427951035848e+004,-2.03273377359945e+001,-1.93550603317705e-001

3.24900958542493e+004,-2.03273381400658e+001,-1.96252465728282e-001

3.29436406907028e+004,-2.03273385554970e+001,-1.98992044591221e-001

3.34035167771346e+004,-2.03273389826077e+001,-2.01769866402033e-001

3.38698124945009e+004,-2.03273394217259e+001,-2.04586465007419e-001

3.43426174575100e+004,-2.03273398731892e+001,-2.07442381704787e-001

3.48220225318448e+004,-2.03273403373450e+001,-2.10338165346180e-001

3.53081198516260e+004,-2.03273408145499e+001,-2.13274372446813e-001

3.58010028371187e+004,-2.03273413051709e+001,-2.16251567289759e-001

3.63007662126863e+004,-2.03273418095850e+001,-2.19270322035881e-001

3.68075060249948e+004,-2.03273423281800e+001,-2.22331216830286e-001

3.73213196614721e+004,-2.03273428613547e+001,-2.25434839918255e-001

3.78423058690237e+004,-2.03273434095189e+001,-2.28581787756155e-001

3.83705647730104e+004,-2.03273439730939e+001,-2.31772665126679e-001

3.89061978964912e+004,-2.03273445525132e+001,-2.35008085251436e-001

3.94493081797342e+004,-2.03273451482221e+001,-2.38288669916142e-001

3.99999999999998e+004,-2.03273457606785e+001,-2.41615049583270e-001

4.05583791916010e+004,-2.03273463903534e+001,-2.44987863516735e-001

4.11245530662425e+004,-2.03273470377308e+001,-2.48407759903055e-001

4.16986304336447e+004,-2.03273477033081e+001,-2.51875395978570e-001

4.22807216224550e+004,-2.03273483875975e+001,-2.55391438150099e-001

4.28709385014515e+004,-2.03273490911246e+001,-2.58956562131122e-001

4.34693945010421e+004,-2.03273498144305e+001,-2.62571453063317e-001

4.40762046350642e+004,-2.03273505580712e+001,-2.66236805654670e-001

4.46914855228886e+004,-2.03273513226183e+001,-2.69953324308264e-001

4.53153554118317e+004,-2.03273521086596e+001,-2.73721723262216e-001

4.59479341998812e+004,-2.03273529167995e+001,-2.77542726720888e-001

4.65893434587380e+004,-2.03273537476590e+001,-2.81417069001588e-001

4.72397064571810e+004,-2.03273546018770e+001,-2.85345494668837e-001

4.78991481847569e+004,-2.03273554801101e+001,-2.89328758680778e-001

4.85677953758016e+004,-2.03273563830335e+001,-2.93367626534045e-001

4.92457765337964e+004,-2.03273573113414e+001,-2.97462874409089e-001

4.99332219560642e+004,-2.03273582657474e+001,-3.01615289322624e-001

5.06302637588109e+004,-2.03273592469852e+001,-3.05825669275283e-001

5.13370359025159e+004,-2.03273602558091e+001,-3.10094823408262e-001

5.20536742176771e+004,-2.03273612929946e+001,-3.14423572154538e-001

5.27803164309155e+004,-2.03273623593390e+001,-3.18812747401561e-001

5.35171021914442e+004,-2.03273634556623e+001,-3.23263192645842e-001

5.42641730979066e+004,-2.03273645828071e+001,-3.27775763159229e-001

5.50216727255895e+004,-2.03273657416399e+001,-3.32351326152110e-001

5.57897466540159e+004,-2.03273669330517e+001,-3.36990760937841e-001

5.65685424949235e+004,-2.03273681579583e+001,-3.41694959105164e-001

5.73582099206328e+004,-2.03273694173012e+001,-3.46464824686599e-001

5.81589006928121e+004,-2.03273707120487e+001,-3.51301274333387e-001

5.89707686916437e+004,-2.03273720431962e+001,-3.56205237491263e-001

5.97939699453972e+004,-2.03273734117668e+001,-3.61177656579509e-001

6.06286626604156e+004,-2.03273748188127e+001,-3.66219487171412e-001

6.14750072515201e+004,-2.03273762654156e+001,-3.71331698178007e-001

6.23331663728396e+004,-2.03273777526876e+001,-3.76515272033956e-001

6.32033049490698e+004,-2.03273792817719e+001,-3.81771204887740e-001

6.40855902071694e+004,-2.03273808538440e+001,-3.87100506791054e-001

6.49801917084985e+004,-2.03273824701125e+001,-3.92504201892530e-001

6.58872813814055e+004,-2.03273841318198e+001,-3.97983328636920e-001

6.68070335542691e+004,-2.03273858402435e+001,-4.03538939962592e-001

6.77396249890018e+004,-2.03273875966967e+001,-4.09172103505282e-001

6.86852349150199e+004,-2.03273894025298e+001,-4.14883901800570e-001

6.96440450636895e+004,-2.03273912591309e+001,-4.20675432495126e-001

7.06162397032520e+004,-2.03273931679275e+001,-4.26547808554227e-001

7.16020056742374e+004,-2.03273951303866e+001,-4.32502158478949e-001

7.26015324253724e+004,-2.03273971480170e+001,-4.38539626519745e-001

7.36150120499896e+004,-2.03273992223698e+001,-4.44661372897901e-001

7.46426393229441e+004,-2.03274013550396e+001,-4.50868574028743e-001

7.56846117380472e+004,-2.03274035476657e+001,-4.57162422745915e-001

7.67411295460207e+004,-2.03274058019337e+001,-4.63544128532806e-001

7.78123957929823e+004,-2.03274081195766e+001,-4.70014917751823e-001

7.88986163594682e+004,-2.03274105023760e+001,-4.76576033882818e-001

7.99999999999995e+004,-2.03274129521636e+001,-4.83228737759530e-001

8.11167583832018e+004,-2.03274154708226e+001,-4.89974307814306e-001

8.22491061324848e+004,-2.03274180602893e+001,-4.96814040319689e-001

8.33972608672892e+004,-2.03274207225540e+001,-5.03749249642799e-001

8.45614432449099e+004,-2.03274234596636e+001,-5.10781268491925e-001

8.57418770029029e+004,-2.03274262737218e+001,-5.17911448177309e-001

8.69387890020841e+004,-2.03274291668921e+001,-5.25141158866639e-001

8.81524092701283e+004,-2.03274321413984e+001,-5.32471789851233e-001

8.93829710457770e+004,-2.03274351995273e+001,-5.39904749810481e-001

9.06307108236633e+004,-2.03274383436297e+001,-5.47441467084201e-001

9.18958683997622e+004,-2.03274415761223e+001,-5.55083389945809e-001

9.31786869174758e+004,-2.03274448994902e+001,-5.62831986880338e-001

9.44794129143618e+004,-2.03274483162878e+001,-5.70688746867164e-001

9.57982963695136e+004,-2.03274518291419e+001,-5.78655179663784e-001

9.71355907516031e+004,-2.03274554407528e+001,-5.86732816098642e-001

9.84915530675926e+004,-2.03274591538966e+001,-5.94923208363295e-001

9.98664439121282e+004,-2.03274629714277e+001,-6.03227930310011e-001

1.01260527517622e+005,-2.03274668962807e+001,-6.11648577754744e-001

1.02674071805032e+005,-2.03274709314725e+001,-6.20186768782835e-001

1.04107348435354e+005,-2.03274750801051e+001,-6.28844144059752e-001

1.05560632861831e+005,-2.03274793453673e+001,-6.37622367147303e-001

1.07034204382888e+005,-2.03274837305379e+001,-6.46523124820151e-001

1.08528346195813e+005,-2.03274882389878e+001,-6.55548127391664e-001

1.10043345451179e+005,-2.03274928741824e+001,-6.64699109041893e-001

1.11579493308032e+005,-2.03274976396848e+001,-6.73977828149991e-001

1.13137084989847e+005,-2.03275025391582e+001,-6.83386067630997e-001

1.14716419841265e+005,-2.03275075763686e+001,-6.92925635279609e-001

1.16317801385624e+005,-2.03275127551881e+001,-7.02598364114962e-001

1.17941537383287e+005,-2.03275180795974e+001,-7.12406112734605e-001

1.19587939890794e+005,-2.03275235536892e+001,-7.22350765669440e-001

1.21257325320831e+005,-2.03275291816714e+001,-7.32434233745047e-001

1.22950014503040e+005,-2.03275349678699e+001,-7.42658454450355e-001

1.24666332745679e+005,-2.03275409167325e+001,-7.53025392306365e-001

1.26406609898139e+005,-2.03275470328316e+001,-7.63537039246273e-001

1.28171180414339e+005,-2.03275533208684e+001,-7.74195414994537e-001

1.29960383416997e+005,-2.03275597856764e+001,-7.85002567456043e-001

1.31774562762811e+005,-2.03275664322246e+001,-7.95960573107701e-001

1.33614067108538e+005,-2.03275732656219e+001,-8.07071537398373e-001

1.35479249978003e+005,-2.03275802911207e+001,-8.18337595151335e-001

1.37370469830040e+005,-2.03275875141210e+001,-8.29760910973295e-001

1.39288090127379e+005,-2.03275949401747e+001,-8.41343679670635e-001

1.41232479406504e+005,-2.03276025749897e+001,-8.53088126668985e-001

1.43204011348474e+005,-2.03276104244342e+001,-8.64996508441659e-001

1.45203064850745e+005,-2.03276184945416e+001,-8.77071112940159e-001

1.47230024099979e+005,-2.03276267915146e+001,-8.89314260033278e-001

1.49285278645888e+005,-2.03276353217303e+001,-9.01728301954161e-001

1.51369223476094e+005,-2.03276440917452e+001,-9.14315623746708e-001

1.53482259092041e+005,-2.03276531083000e+001,-9.27078643726685e-001

1.55624791585964e+005,-2.03276623783246e+001,-9.40019813943378e-001

1.57797232718936e+005,-2.03276719089440e+001,-9.53141620649218e-001

1.59999999999999e+005,-2.03276817074834e+001,-9.66446584776615e-001

1.62233516766403e+005,-2.03276917814736e+001,-9.79937262421893e-001

1.64498212264969e+005,-2.03277021386574e+001,-9.93616245332413e-001

1.66794521734578e+005,-2.03277127869949e+001,-1.00748616140621e+000

1.69122886489819e+005,-2.03277237346701e+001,-1.02154967519203e+000

1.71483754005805e+005,-2.03277349900970e+001,-1.03580948840276e+000

1.73877578004168e+005,-2.03277465619259e+001,-1.05026834043114e+000

1.76304818540256e+005,-2.03277584590504e+001,-1.06492900887315e+000

1.78765942091554e+005,-2.03277706906139e+001,-1.07979431006303e+000

1.81261421647326e+005,-2.03277832660167e+001,-1.09486709960949e+000

1.83791736799524e+005,-2.03277961949233e+001,-1.11015027294376e+000

1.86357373834951e+005,-2.03278094872701e+001,-1.12564676587260e+000

1.88958825828723e+005,-2.03278231532723e+001,-1.14135955514245e+000

1.91596592739027e+005,-2.03278372034323e+001,-1.15729165900589e+000

1.94271181503206e+005,-2.03278516485475e+001,-1.17344613780216e+000

1.96983106135185e+005,-2.03278664997192e+001,-1.18982609453972e+000

1.99732887824256e+005,-2.03278817683600e+001,-1.20643467549232e+000

2.02521055035243e+005,-2.03278974662035e+001,-1.22327507079972e+000

2.05348143610063e+005,-2.03279136053130e+001,-1.24035051507663e+000

2.08214696870707e+005,-2.03279301980908e+001,-1.25766428803356e+000

2.11121265723661e+005,-2.03279472572875e+001,-1.27521971510098e+000

2.14068408765776e+005,-2.03279647960122e+001,-1.29302016806734e+000

2.17056692391625e+005,-2.03279828277420e+001,-1.31106906572273e+000

2.20086690902357e+005,-2.03280013663331e+001,-1.32936987451138e+000

2.23158986616063e+005,-2.03280204260306e+001,-1.34792610919432e+000

2.26274169979693e+005,-2.03280400214800e+001,-1.36674133352199e+000

2.29432839682530e+005,-2.03280601677383e+001,-1.38581916091293e+000

2.32635602771247e+005,-2.03280808802855e+001,-1.40516325514468e+000

2.35883074766574e+005,-2.03281021750365e+001,-1.42477733105393e+000

2.39175879781588e+005,-2.03281240683532e+001,-1.44466515524443e+000

2.42514650641661e+005,-2.03281465770572e+001,-1.46483054680681e+000

2.45900029006080e+005,-2.03281697184427e+001,-1.48527737804650e+000

2.49332665491357e+005,-2.03281935102898e+001,-1.50600957522283e+000

2.52813219796278e+005,-2.03282179708780e+001,-1.52703111929827e+000

2.56342360828676e+005,-2.03282431190001e+001,-1.54834604669662e+000

2.59920766833993e+005,-2.03282689739771e+001,-1.56995845007390e+000

2.63549125525621e+005,-2.03282955556725e+001,-1.59187247909670e+000

2.67228134217075e+005,-2.03283228845077e+001,-1.61409234123479e+000

2.70958499956006e+005,-2.03283509814779e+001,-1.63662230256105e+000

2.74740939660078e+005,-2.03283798681678e+001,-1.65946668856563e+000

2.78576180254757e+005,-2.03284095667685e+001,-1.68262988497763e+000

2.82464958813007e+005,-2.03284401000941e+001,-1.70611633860235e+000

2.86408022696948e+005,-2.03284714915997e+001,-1.72993055816587e+000

2.90406129701488e+005,-2.03285037653991e+001,-1.75407711517302e+000

2.94460048199957e+005,-2.03285369462829e+001,-1.77856064477834e+000

2.98570557291775e+005,-2.03285710597383e+001,-1.80338584666626e+000

3.02738446952187e+005,-2.03286061319680e+001,-1.82855748594396e+000

3.06964518184081e+005,-2.03286421899107e+001,-1.85408039404891e+000

3.11249583171928e+005,-2.03286792612612e+001,-1.87995946966509e+000

3.15594465437872e+005,-2.03287173744922e+001,-1.90619967965419e+000

3.19999999999997e+005,-2.03287565588757e+001,-1.93280605999792e+000

3.24467033532806e+005,-2.03287968445056e+001,-1.95978371675465e+000

3.28996424529938e+005,-2.03288382623206e+001,-1.98713782702758e+000

3.33589043469155e+005,-2.03288808441283e+001,-2.01487363994640e+000

3.38245772979638e+005,-2.03289246226287e+001,-2.04299647766363e+000

3.42967508011610e+005,-2.03289696314402e+001,-2.07151173636156e+000

3.47755156008335e+005,-2.03290159051249e+001,-2.10042488727561e+000

3.52609637080511e+005,-2.03290634792147e+001,-2.12974147773068e+000

3.57531884183106e+005,-2.03291123902391e+001,-2.15946713218990e+000

3.62522843294651e+005,-2.03291626757529e+001,-2.18960755331955e+000

3.67583473599047e+005,-2.03292143743647e+001,-2.22016852306741e+000

3.72714747669902e+005,-2.03292675257668e+001,-2.25115590375613e+000

3.77917651657445e+005,-2.03293221707653e+001,-2.28257563919016e+000

3.83193185478053e+005,-2.03293783513114e+001,-2.31443375577840e+000

3.88542363006410e+005,-2.03294361105336e+001,-2.34673636367233e+000

3.93966212270369e+005,-2.03294954927703e+001,-2.37948965791776e+000

3.99465775648511e+005,-2.03295565436041e+001,-2.41269991962399e+000

4.05042110070485e+005,-2.03296193098964e+001,-2.44637351714648e+000

4.10696287220124e+005,-2.03296838398230e+001,-2.48051690728795e+000

4.16429393741414e+005,-2.03297501829115e+001,-2.51513663651189e+000

4.22242531447321e+005,-2.03298183900786e+001,-2.55023934217589e+000

4.28136817531551e+005,-2.03298885136692e+001,-2.58583175377814e+000

4.34113384783250e+005,-2.03299606074961e+001,-2.62192069422353e+000

4.40173381804713e+005,-2.03300347268818e+001,-2.65851308110355e+000

4.46317973232124e+005,-2.03301109286996e+001,-2.69561592799485e+000

4.52548339959385e+005,-2.03301892714179e+001,-2.73323634577565e+000

4.58865679365059e+005,-2.03302698151445e+001,-2.77138154395626e+000

4.65271205542494e+005,-2.03303526216724e+001,-2.81005883203132e+000

4.71766149533147e+005,-2.03304377545270e+001,-2.84927562084616e+000

4.78351759563174e+005,-2.03305252790143e+001,-2.88903942398329e+000

4.85029301283321e+005,-2.03306152622710e+001,-2.92935785916619e+000

4.91800058012158e+005,-2.03307077733156e+001,-2.97023864968144e+000

4.98665330982714e+005,-2.03308028831006e+001,-3.01168962581974e+000

5.05626439592555e+005,-2.03309006645670e+001,-3.05371872633483e+000

5.12684721657352e+005,-2.03310011926997e+001,-3.09633399992209e+000

5.19841533667984e+005,-2.03311045445842e+001,-3.13954360671652e+000

5.27098251051240e+005,-2.03312107994660e+001,-3.18335581980878e+000

5.34456268434150e+005,-2.03313200388100e+001,-3.22777902678251e+000

5.41916999912011e+005,-2.03314323463633e+001,-3.27282173126934e+000

