Freq.,VOut,OutRef

1.00000000000000e+004,-2.19667100399879e+001,-1.45089425934896e-001

1.01395947979003e+004,-2.19667102916040e+001,-1.47114797267346e-001

1.02811382665607e+004,-2.19667105502940e+001,-1.49168441662532e-001

1.04246576084112e+004,-2.19667108162565e+001,-1.51250753796531e-001

1.05701804056138e+004,-2.19667110896964e+001,-1.53362133851188e-001

1.07177346253629e+004,-2.19667113708237e+001,-1.55502987597527e-001

1.08673486252606e+004,-2.19667116598546e+001,-1.57673726468795e-001

1.10190511587661e+004,-2.19667119570110e+001,-1.59874767644122e-001

1.11728713807222e+004,-2.19667122625218e+001,-1.62106534122944e-001

1.13288388529580e+004,-2.19667125766217e+001,-1.64369454810460e-001

1.14869835499703e+004,-2.19667128995520e+001,-1.66663964600796e-001

1.16473358646846e+004,-2.19667132315611e+001,-1.68990504456804e-001

1.18099266142953e+004,-2.19667135729042e+001,-1.71349521497888e-001

1.19747870461893e+004,-2.19667139238438e+001,-1.73741469083313e-001

1.21419488439505e+004,-2.19667142846497e+001,-1.76166806902159e-001

1.23114441334492e+004,-2.19667146555989e+001,-1.78626001061581e-001

1.24833054890161e+004,-2.19667150369771e+001,-1.81119524171361e-001

1.26575659397028e+004,-2.19667154290774e+001,-1.83647855441354e-001

1.28342589756290e+004,-2.19667158322008e+001,-1.86211480771375e-001

1.30134185544193e+004,-2.19667162466577e+001,-1.88810892840929e-001

1.31950791077289e+004,-2.19667166727664e+001,-1.91446591209393e-001

1.33792755478611e+004,-2.19667171108547e+001,-1.94119082408354e-001

1.35660432744767e+004,-2.19667175612594e+001,-1.96828880040123e-001

1.37554181813974e+004,-2.19667180243265e+001,-1.99576504877190e-001

1.39474366635040e+004,-2.19667185004121e+001,-2.02362484960320e-001

1.41421356237309e+004,-2.19667189898823e+001,-2.05187355702257e-001

1.43395524801583e+004,-2.19667194931133e+001,-2.08051659988563e-001

1.45397251732031e+004,-2.19667200104920e+001,-2.10955948283128e-001

1.47426921729110e+004,-2.19667205424161e+001,-2.13900778734191e-001

1.49484924863494e+004,-2.19667210892947e+001,-2.16886717280352e-001

1.51571656651040e+004,-2.19667216515480e+001,-2.19914337760742e-001

1.53687518128801e+004,-2.19667222296083e+001,-2.22984222024330e-001

1.55832915932100e+004,-2.19667228239200e+001,-2.26096960042466e-001

1.58008262372675e+004,-2.19667234349399e+001,-2.29253150021315e-001

1.60213975517924e+004,-2.19667240631379e+001,-2.32453398516856e-001

1.62450479271247e+004,-2.19667247089970e+001,-2.35698320552070e-001

1.64718203453514e+004,-2.19667253730135e+001,-2.38988539735459e-001

1.67017583885674e+004,-2.19667260556979e+001,-2.42324688380157e-001

1.69349062472505e+004,-2.19667267575750e+001,-2.45707407625724e-001

1.71713087287550e+004,-2.19667274791846e+001,-2.49137347559745e-001

1.74110112659224e+004,-2.19667282210811e+001,-2.52615167346628e-001

1.76540599258131e+004,-2.19667289838351e+001,-2.56141535348809e-001

1.79005014185594e+004,-2.19667297680329e+001,-2.59717129260957e-001

1.81503831063432e+004,-2.19667305742773e+001,-2.63342636235895e-001

1.84037530124975e+004,-2.19667314031883e+001,-2.67018753017334e-001

1.86606598307361e+004,-2.19667322554029e+001,-2.70746186077136e-001

1.89211529345119e+004,-2.19667331315765e+001,-2.74525651745274e-001

1.91852823865052e+004,-2.19667340323823e+001,-2.78357876353645e-001

1.94530989482457e+004,-2.19667349585131e+001,-2.82243596370706e-001

1.97246540898671e+004,-2.19667359106808e+001,-2.86183558544851e-001

1.99999999999999e+004,-2.19667368896173e+001,-2.90178520048351e-001

2.02791895958005e+004,-2.19667378960753e+001,-2.94229248622521e-001

2.05622765331213e+004,-2.19667389308284e+001,-2.98336522724816e-001

2.08493152168224e+004,-2.19667399946722e+001,-3.02501131678802e-001

2.11403608112276e+004,-2.19667410884244e+001,-3.06723875824805e-001

2.14354692507258e+004,-2.19667422129259e+001,-3.11005566675937e-001

2.17346972505211e+004,-2.19667433690411e+001,-3.15347027071456e-001

2.20381023175322e+004,-2.19667445576589e+001,-3.19749091336269e-001

2.23457427614443e+004,-2.19667457796929e+001,-3.24212605440832e-001

2.26576777059159e+004,-2.19667470360826e+001,-3.28738427163788e-001

2.29739670999406e+004,-2.19667483277939e+001,-3.33327426256703e-001

2.32946717293690e+004,-2.19667496558198e+001,-3.37980484610690e-001

2.36198532285905e+004,-2.19667510211810e+001,-3.42698496427650e-001

2.39495740923785e+004,-2.19667524249275e+001,-3.47482368388310e-001

2.42838976879009e+004,-2.19667538681382e+001,-3.52333019830724e-001

2.46228882668982e+004,-2.19667553519224e+001,-3.57251382924971e-001

2.49666109780322e+004,-2.19667568774211e+001,-3.62238402850191e-001

2.53151318794055e+004,-2.19667584458068e+001,-3.67295037980219e-001

2.56685179512580e+004,-2.19667600582854e+001,-3.72422260063653e-001

2.60268371088386e+004,-2.19667617160962e+001,-3.77621054414224e-001

2.63901582154578e+004,-2.19667634205137e+001,-3.82892420098217e-001

2.67585510957221e+004,-2.19667651728484e+001,-3.88237370123884e-001

2.71320865489533e+004,-2.19667669744471e+001,-3.93656931641052e-001

2.75108363627948e+004,-2.19667688266949e+001,-3.99152146135268e-001

2.78948733270080e+004,-2.19667707310158e+001,-4.04724069627394e-001

2.82842712474618e+004,-2.19667726888735e+001,-4.10373772879397e-001

2.86791049603164e+004,-2.19667747017731e+001,-4.16102341596741e-001

2.90794503464061e+004,-2.19667767712622e+001,-4.21910876638448e-001

2.94853843458219e+004,-2.19667788989315e+001,-4.27800494228656e-001

2.98969849726987e+004,-2.19667810864167e+001,-4.33772326170340e-001

3.03143313302078e+004,-2.19667833353994e+001,-4.39827520063430e-001

3.07375036257601e+004,-2.19667856476084e+001,-4.45967239524075e-001

3.11665831864199e+004,-2.19667880248212e+001,-4.52192664409460e-001

3.16016524745350e+004,-2.19667904688652e+001,-4.58504991043984e-001

3.20427951035848e+004,-2.19667929816194e+001,-4.64905432447139e-001

3.24900958542493e+004,-2.19667955650151e+001,-4.71395218570841e-001

3.29436406907028e+004,-2.19667982210384e+001,-4.77975596530065e-001

3.34035167771346e+004,-2.19668009517311e+001,-4.84647830845942e-001

3.38698124945009e+004,-2.19668037591923e+001,-4.91413203689184e-001

3.43426174575100e+004,-2.19668066455801e+001,-4.98273015122465e-001

3.48220225318448e+004,-2.19668096131134e+001,-5.05228583353527e-001

3.53081198516260e+004,-2.19668126640734e+001,-5.12281244987466e-001

3.58010028371187e+004,-2.19668158008054e+001,-5.19432355282003e-001

3.63007662126863e+004,-2.19668190257206e+001,-5.26683288409555e-001

3.68075060249948e+004,-2.19668223412981e+001,-5.34035437720106e-001

3.73213196614721e+004,-2.19668257500866e+001,-5.41490216007700e-001

3.78423058690237e+004,-2.19668292547065e+001,-5.49049055784057e-001

3.83705647730104e+004,-2.19668328578519e+001,-5.56713409551558e-001

3.89061978964912e+004,-2.19668365622924e+001,-5.64484750082698e-001

3.94493081797342e+004,-2.19668403708758e+001,-5.72364570703104e-001

3.99999999999998e+004,-2.19668442865296e+001,-5.80354385577731e-001

4.05583791916010e+004,-2.19668483122639e+001,-5.88455730001939e-001

4.11245530662425e+004,-2.19668524511733e+001,-5.96670160695287e-001

4.16986304336447e+004,-2.19668567064392e+001,-6.04999256101949e-001

4.22807216224550e+004,-2.19668610813327e+001,-6.13444616691257e-001

4.28709385014515e+004,-2.19668655792169e+001,-6.22007865267479e-001

4.34693945010421e+004,-2.19668702035490e+001,-6.30690647279727e-001

4.40762046350642e+004,-2.19668749578838e+001,-6.39494631137037e-001

4.46914855228886e+004,-2.19668798458759e+001,-6.48421508530678e-001

4.53153554118317e+004,-2.19668848712827e+001,-6.57472994756820e-001

4.59479341998812e+004,-2.19668900379669e+001,-6.66650829046643e-001

4.65893434587380e+004,-2.19668953499004e+001,-6.75956774899026e-001

4.72397064571810e+004,-2.19669008111660e+001,-6.85392620420913e-001

4.78991481847569e+004,-2.19669064259617e+001,-6.94960178668821e-001

4.85677953758016e+004,-2.19669121986035e+001,-7.04661287994931e-001

4.92457765337964e+004,-2.19669181335287e+001,-7.14497812404271e-001

4.99332219560642e+004,-2.19669242352991e+001,-7.24471641908786e-001

5.06302637588109e+004,-2.19669305086050e+001,-7.34584692889553e-001

5.13370359025159e+004,-2.19669369582684e+001,-7.44838908467401e-001

5.20536742176771e+004,-2.19669435892468e+001,-7.55236258872271e-001

5.27803164309155e+004,-2.19669504066373e+001,-7.65778741822610e-001

5.35171021914442e+004,-2.19669574156798e+001,-7.76468382909855e-001

5.42641730979066e+004,-2.19669646217620e+001,-7.87307235982823e-001

5.50216727255895e+004,-2.19669720304227e+001,-7.98297383546225e-001

5.57897466540159e+004,-2.19669796473564e+001,-8.09440937156408e-001

5.65685424949235e+004,-2.19669874784178e+001,-8.20740037827993e-001

5.73582099206328e+004,-2.19669955296261e+001,-8.32196856443399e-001

5.81589006928121e+004,-2.19670038071696e+001,-8.43813594169185e-001

5.89707686916437e+004,-2.19670123174106e+001,-8.55592482879246e-001

5.97939699453972e+004,-2.19670210668903e+001,-8.67535785579657e-001

6.06286626604156e+004,-2.19670300623335e+001,-8.79645796845716e-001

6.14750072515201e+004,-2.19670393106543e+001,-8.91924843259452e-001

6.23331663728396e+004,-2.19670488189609e+001,-9.04375283855263e-001

6.32033049490698e+004,-2.19670585945614e+001,-9.16999510574209e-001

6.40855902071694e+004,-2.19670686449693e+001,-9.29799948719432e-001

6.49801917084985e+004,-2.19670789779092e+001,-9.42779057421890e-001

6.58872813814055e+004,-2.19670896013227e+001,-9.55939330113233e-001

6.68070335542691e+004,-2.19671005233749e+001,-9.69283294999557e-001

6.77396249890018e+004,-2.19671117524600e+001,-9.82813515548799e-001

6.86852349150199e+004,-2.19671232972084e+001,-9.96532590980042e-001

6.96440450636895e+004,-2.19671351664930e+001,-1.01044315676195e+000

7.06162397032520e+004,-2.19671473694358e+001,-1.02454788511696e+000

7.16020056742374e+004,-2.19671599154155e+001,-1.03884948553247e+000

7.26015324253724e+004,-2.19671728140741e+001,-1.05335070527977e+000

7.36150120499896e+004,-2.19671860753248e+001,-1.06805432994050e+000

7.46426393229441e+004,-2.19671997093592e+001,-1.08296318393829e+000

7.56846117380472e+004,-2.19672137266553e+001,-1.09808013108098e+000

7.67411295460207e+004,-2.19672281379856e+001,-1.11340807510639e+000

7.78123957929823e+004,-2.19672429544254e+001,-1.12894996023941e+000

7.88986163594682e+004,-2.19672581873610e+001,-1.14470877175491e+000

7.99999999999995e+004,-2.19672738484988e+001,-1.16068753654780e+000

8.11167583832018e+004,-2.19672899498742e+001,-1.17688932371251e+000

8.22491061324848e+004,-2.19673065038608e+001,-1.19331724512964e+000

8.33972608672892e+004,-2.19673235231796e+001,-1.20997445606086e+000

8.45614432449099e+004,-2.19673410209094e+001,-1.22686415575151e+000

8.57418770029029e+004,-2.19673590104961e+001,-1.24398958804318e+000

8.69387890020841e+004,-2.19673775057640e+001,-1.26135404199150e+000

8.81524092701283e+004,-2.19673965209252e+001,-1.27896085249648e+000

8.93829710457770e+004,-2.19674160705914e+001,-1.29681340093866e+000

9.06307108236633e+004,-2.19674361697848e+001,-1.31491511582445e+000

9.18958683997622e+004,-2.19674568339496e+001,-1.33326947344142e+000

9.31786869174758e+004,-2.19674780789641e+001,-1.35187999852171e+000

9.44794129143618e+004,-2.19674999211525e+001,-1.37075026491428e+000

9.57982963695136e+004,-2.19675223772976e+001,-1.38988389626801e+000

9.71355907516031e+004,-2.19675454646538e+001,-1.40928456672223e+000

9.84915530675926e+004,-2.19675692009602e+001,-1.42895600160760e+000

9.98664439121282e+004,-2.19675936044542e+001,-1.44890197815714e+000

1.01260527517622e+005,-2.19676186938856e+001,-1.46912632622536e+000

1.02674071805032e+005,-2.19676444885308e+001,-1.48963292901952e+000

1.04107348435354e+005,-2.19676710082077e+001,-1.51042572383945e+000

1.05560632861831e+005,-2.19676982732910e+001,-1.53150870282679e+000

1.07034204382888e+005,-2.19677263047275e+001,-1.55288591372708e+000

1.08528346195813e+005,-2.19677551240526e+001,-1.57456146065916e+000

1.10043345451179e+005,-2.19677847534064e+001,-1.59653950489715e+000

1.11579493308032e+005,-2.19678152155509e+001,-1.61882426566290e+000

1.13137084989847e+005,-2.19678465338874e+001,-1.64142002092851e+000

1.14716419841265e+005,-2.19678787324746e+001,-1.66433110823011e+000

1.16317801385624e+005,-2.19679118360465e+001,-1.68756192549305e+000

1.17941537383287e+005,-2.19679458700323e+001,-1.71111693186755e+000

1.19587939890794e+005,-2.19679808605746e+001,-1.73500064857748e+000

1.21257325320831e+005,-2.19680168345508e+001,-1.75921765977795e+000

1.22950014503040e+005,-2.19680538195927e+001,-1.78377261342685e+000

1.24666332745679e+005,-2.19680918441082e+001,-1.80867022216795e+000

1.26406609898139e+005,-2.19681309373027e+001,-1.83391526422439e+000

1.28171180414339e+005,-2.19681711292016e+001,-1.85951258430636e+000

1.29960383416997e+005,-2.19682124506737e+001,-1.88546709452917e+000

1.31774562762811e+005,-2.19682549334541e+001,-1.91178377534585e+000

1.33614067108538e+005,-2.19682986101691e+001,-1.93846767649018e+000

1.35479249978003e+005,-2.19683435143609e+001,-1.96552391793382e+000

1.37370469830040e+005,-2.19683896805133e+001,-1.99295769085655e+000

1.39288090127379e+005,-2.19684371440781e+001,-2.02077425862790e+000

1.41232479406504e+005,-2.19684859415024e+001,-2.04897895780472e+000

1.43204011348474e+005,-2.19685361102563e+001,-2.07757719913947e+000

1.45203064850745e+005,-2.19685876888616e+001,-2.10657446860366e+000

1.47230024099979e+005,-2.19686407169213e+001,-2.13597632842454e+000

1.49285278645888e+005,-2.19686952351499e+001,-2.16578841813572e+000

1.51369223476094e+005,-2.19687512854046e+001,-2.19601645564282e+000

1.53482259092041e+005,-2.19688089107172e+001,-2.22666623830067e+000

1.55624791585964e+005,-2.19688681553270e+001,-2.25774364400859e+000

1.57797232718936e+005,-2.19689290647148e+001,-2.28925463231767e+000

1.59999999999999e+005,-2.19689916856373e+001,-2.32120524555333e+000

1.62233516766403e+005,-2.19690560661633e+001,-2.35360160995347e+000

1.64498212264969e+005,-2.19691222557101e+001,-2.38644993682197e+000

1.66794521734578e+005,-2.19691903050814e+001,-2.41975652369528e+000

1.69122886489819e+005,-2.19692602665059e+001,-2.45352775552790e+000

1.71483754005805e+005,-2.19693321936777e+001,-2.48777010589076e+000

1.73877578004168e+005,-2.19694061417966e+001,-2.52249013818728e+000

1.76304818540256e+005,-2.19694821676107e+001,-2.55769450688349e+000

1.78765942091554e+005,-2.19695603294597e+001,-2.59338995875667e+000

1.81261421647326e+005,-2.19696406873192e+001,-2.62958333415897e+000

1.83791736799524e+005,-2.19697233028467e+001,-2.66628156829760e+000

1.86357373834951e+005,-2.19698082394285e+001,-2.70349169253307e+000

1.88958825828723e+005,-2.19698955622280e+001,-2.74122083569205e+000

1.91596592739027e+005,-2.19699853382355e+001,-2.77947622540033e+000

1.94271181503206e+005,-2.19700776363193e+001,-2.81826518943113e+000

1.96983106135185e+005,-2.19701725272779e+001,-2.85759515707072e+000

1.99732887824256e+005,-2.19702700838943e+001,-2.89747366050429e+000

2.02521055035243e+005,-2.19703703809913e+001,-2.93790833621609e+000

2.05348143610063e+005,-2.19704734954885e+001,-2.97890692641079e+000

2.08214696870707e+005,-2.19705795064606e+001,-3.02047728045153e+000

2.11121265723661e+005,-2.19706884951981e+001,-3.06262735631749e+000

2.14068408765776e+005,-2.19708005452688e+001,-3.10536522207858e+000

2.17056692391625e+005,-2.19709157425814e+001,-3.14869905739078e+000

2.20086690902357e+005,-2.19710341754509e+001,-3.19263715500972e+000

2.23158986616063e+005,-2.19711559346657e+001,-3.23718792232351e+000

2.26274169979693e+005,-2.19712811135566e+001,-3.28235988290470e+000

2.29432839682530e+005,-2.19714098080679e+001,-3.32816167808322e+000

2.32635602771247e+005,-2.19715421168299e+001,-3.37460206853751e+000

2.35883074766574e+005,-2.19716781412340e+001,-3.42168993590719e+000

2.39175879781588e+005,-2.19718179855098e+001,-3.46943428442372e+000

2.42514650641661e+005,-2.19719617568038e+001,-3.51784424256500e+000

2.45900029006080e+005,-2.19721095652611e+001,-3.56692906472708e+000

2.49332665491357e+005,-2.19722615241085e+001,-3.61669813291815e+000

2.52813219796278e+005,-2.19724177497406e+001,-3.66716095847401e+000

2.56342360828676e+005,-2.19725783618078e+001,-3.71832718379361e+000

2.59920766833993e+005,-2.19727434833071e+001,-3.77020658409645e+000

2.63549125525621e+005,-2.19729132406748e+001,-3.82280906920180e+000

2.67228134217075e+005,-2.19730877638826e+001,-3.87614468532841e+000

2.70958499956006e+005,-2.19732671865357e+001,-3.93022361691677e+000

2.74740939660078e+005,-2.19734516459738e+001,-3.98505618847476e+000

2.78576180254757e+005,-2.19736412833747e+001,-4.04065286644215e+000

2.82464958813007e+005,-2.19738362438611e+001,-4.09702426108113e+000

2.86408022696948e+005,-2.19740366766103e+001,-4.15418112838577e+000

2.90406129701488e+005,-2.19742427349663e+001,-4.21213437201773e+000

2.94460048199957e+005,-2.19744545765555e+001,-4.27089504526128e+000

2.98570557291775e+005,-2.19746723634060e+001,-4.33047435300409e+000

3.02738446952187e+005,-2.19748962620688e+001,-4.39088365373884e+000

3.06964518184081e+005,-2.19751264437439e+001,-4.45213446158953e+000

3.11249583171928e+005,-2.19753630844086e+001,-4.51423844836059e+000

3.15594465437872e+005,-2.19756063649500e+001,-4.57720744560883e+000

3.19999999999997e+005,-2.19758564713009e+001,-4.64105344674031e+000

3.24467033532806e+005,-2.19761135945791e+001,-4.70578860912916e+000

3.28996424529938e+005,-2.19763779312315e+001,-4.77142525626147e+000

3.33589043469155e+005,-2.19766496831803e+001,-4.83797587990244e+000

3.38245772979638e+005,-2.19769290579755e+001,-4.90545314228744e+000

3.42967508011610e+005,-2.19772162689492e+001,-4.97386987833722e+000

3.47755156008335e+005,-2.19775115353762e+001,-5.04323909789658e+000

3.52609637080511e+005,-2.19778150826369e+001,-5.11357398799846e+000

3.57531884183106e+005,-2.19781271423864e+001,-5.18488791515020e+000

3.62522843294651e+005,-2.19784479527273e+001,-5.25719442764588e+000

3.67583473599047e+005,-2.19787777583867e+001,-5.33050725790154e+000

3.72714747669902e+005,-2.19791168108993e+001,-5.40484032481500e+000

3.77917651657445e+005,-2.19794653687942e+001,-5.48020773614999e+000

3.83193185478053e+005,-2.19798236977870e+001,-5.55662379094419e+000

3.88542363006410e+005,-2.19801920709779e+001,-5.63410298194089e+000

3.93966212270369e+005,-2.19805707690536e+001,-5.71265999804645e+000

3.99465775648511e+005,-2.19809600804961e+001,-5.79230972680896e+000

4.05042110070485e+005,-2.19813603017962e+001,-5.87306725692328e+000

4.10696287220124e+005,-2.19817717376725e+001,-5.95494788075852e+000

4.16429393741414e+005,-2.19821947012976e+001,-6.03796709690950e+000

4.22242531447321e+005,-2.19826295145281e+001,-6.12214061277181e+000

4.28136817531551e+005,-2.19830765081432e+001,-6.20748434713976e+000

4.34113384783250e+005,-2.19835360220876e+001,-6.29401443282791e+000

4.40173381804713e+005,-2.19840084057216e+001,-6.38174721931546e+000

4.46317973232124e+005,-2.19844940180785e+001,-6.47069927541302e+000

4.52548339959385e+005,-2.19849932281274e+001,-6.56088739195188e+000

4.58865679365059e+005,-2.19855064150439e+001,-6.65232858449600e+000

4.65271205542494e+005,-2.19860339684877e+001,-6.74504009607465e+000

4.71766149533147e+005,-2.19865762888872e+001,-6.83903939993757e+000

4.78351759563174e+005,-2.19871337877321e+001,-6.93434420233059e+000

4.85029301283321e+005,-2.19877068878728e+001,-7.03097244529237e+000

4.91800058012158e+005,-2.19882960238287e+001,-7.12894230947037e+000

4.98665330982714e+005,-2.19889016421030e+001,-7.22827221695851e+000

5.05626439592555e+005,-2.19895242015076e+001,-7.32898083415158e+000

5.12684721657352e+005,-2.19901641734946e+001,-7.43108707462056e+000

5.19841533667984e+005,-2.19908220424974e+001,-7.53461010200449e+000

5.27098251051240e+005,-2.19914983062800e+001,-7.63956933292032e+000

5.34456268434150e+005,-2.19921934762961e+001,-7.74598443989023e+000

5.41916999912011e+005,-2.19929080780562e+001,-7.85387535428357e+000

