Freq.,VOut,OutRef

1.00000000000000e+004,-1.01259697252924e+000,-1.34906224605890e-001

1.01395947979003e+004,-1.01259692183109e+000,-1.36789445714575e-001

1.02811382665607e+004,-1.01259686970770e+000,-1.38698955626361e-001

1.04246576084112e+004,-1.01259681611885e+000,-1.40635121321269e-001

1.05701804056138e+004,-1.01259676102348e+000,-1.42598314899458e-001

1.07177346253629e+004,-1.01259670437911e+000,-1.44588913658292e-001

1.08673486252606e+004,-1.01259664614231e+000,-1.46607300159525e-001

1.10190511587661e+004,-1.01259658626829e+000,-1.48653862306562e-001

1.11728713807222e+004,-1.01259652471095e+000,-1.50728993418121e-001

1.13288388529580e+004,-1.01259646142289e+000,-1.52833092303620e-001

1.14869835499703e+004,-1.01259639635573e+000,-1.54966563337145e-001

1.16473358646846e+004,-1.01259632945925e+000,-1.57129816540805e-001

1.18099266142953e+004,-1.01259626068189e+000,-1.59323267660268e-001

1.19747870461893e+004,-1.01259618997118e+000,-1.61547338241206e-001

1.21419488439505e+004,-1.01259611727240e+000,-1.63802455718573e-001

1.23114441334492e+004,-1.01259604252983e+000,-1.66089053491178e-001

1.24833054890161e+004,-1.01259596568587e+000,-1.68407571009757e-001

1.26575659397028e+004,-1.01259588668167e+000,-1.70758453856873e-001

1.28342589756290e+004,-1.01259580545635e+000,-1.73142153838274e-001

1.30134185544193e+004,-1.01259572194742e+000,-1.75559129065483e-001

1.31950791077289e+004,-1.01259563609074e+000,-1.78009844044841e-001

1.33792755478611e+004,-1.01259554782030e+000,-1.80494769767250e-001

1.35660432744767e+004,-1.01259545706831e+000,-1.83014383797844e-001

1.37554181813974e+004,-1.01259536376498e+000,-1.85569170369366e-001

1.39474366635040e+004,-1.01259526783843e+000,-1.88159620474630e-001

1.41421356237309e+004,-1.01259516921507e+000,-1.90786231959206e-001

1.43395524801583e+004,-1.01259506781907e+000,-1.93449509618554e-001

1.45397251732031e+004,-1.01259496357247e+000,-1.96149965295628e-001

1.47426921729110e+004,-1.01259485639512e+000,-1.98888117978109e-001

1.49484924863494e+004,-1.01259474620452e+000,-2.01664493899473e-001

1.51571656651040e+004,-1.01259463291612e+000,-2.04479626637560e-001

1.53687518128801e+004,-1.01259451644282e+000,-2.07334057219628e-001

1.55832915932100e+004,-1.01259439669493e+000,-2.10228334226091e-001

1.58008262372675e+004,-1.01259427358048e+000,-2.13163013894597e-001

1.60213975517924e+004,-1.01259414700486e+000,-2.16138660227570e-001

1.62450479271247e+004,-1.01259401687081e+000,-2.19155845100664e-001

1.64718203453514e+004,-1.01259388307804e+000,-2.22215148374525e-001

1.67017583885674e+004,-1.01259374552405e+000,-2.25317158001006e-001

1.69349062472505e+004,-1.01259360410275e+000,-2.28462470143627e-001

1.71713087287550e+004,-1.01259345870575e+000,-2.31651689284297e-001

1.74110112659224e+004,-1.01259330922105e+000,-2.34885428346231e-001

1.76540599258131e+004,-1.01259315553376e+000,-2.38164308807811e-001

1.79005014185594e+004,-1.01259299752569e+000,-2.41488960823454e-001

1.81503831063432e+004,-1.01259283507555e+000,-2.44860023342726e-001

1.84037530124975e+004,-1.01259266805829e+000,-2.48278144236989e-001

1.86606598307361e+004,-1.01259249634559e+000,-2.51743980420415e-001

1.89211529345119e+004,-1.01259231980539e+000,-2.55258197978079e-001

1.91852823865052e+004,-1.01259213830206e+000,-2.58821472292581e-001

1.94530989482457e+004,-1.01259195169599e+000,-2.62434488176049e-001

1.97246540898671e+004,-1.01259175984374e+000,-2.66097939999530e-001

1.99999999999999e+004,-1.01259156259787e+000,-2.69812531827095e-001

2.02791895958005e+004,-1.01259135980668e+000,-2.73578977552229e-001

2.05622765331213e+004,-1.01259115131435e+000,-2.77398001033424e-001

2.08493152168224e+004,-1.01259093696049e+000,-2.81270336235320e-001

2.11403608112276e+004,-1.01259071658035e+000,-2.85196727367188e-001

2.14354692507258e+004,-1.01259049000464e+000,-2.89177929026945e-001

2.17346972505211e+004,-1.01259025705896e+000,-2.93214706349193e-001

2.20381023175322e+004,-1.01259001756449e+000,-2.97307835146134e-001

2.23457427614443e+004,-1.01258977133679e+000,-3.01458102064043e-001

2.26576777059159e+004,-1.01258951818696e+000,-3.05666304726472e-001

2.29739670999406e+004,-1.01258925792008e+000,-3.09933251895426e-001

2.32946717293690e+004,-1.01258899033618e+000,-3.14259763621203e-001

2.36198532285905e+004,-1.01258871522960e+000,-3.18646671401810e-001

2.39495740923785e+004,-1.01258843238884e+000,-3.23094818343324e-001

2.42838976879009e+004,-1.01258814159636e+000,-3.27605059322400e-001

2.46228882668982e+004,-1.01258784262878e+000,-3.32178261147566e-001

2.49666109780322e+004,-1.01258753525610e+000,-3.36815302730459e-001

2.53151318794055e+004,-1.01258721924216e+000,-3.41517075250197e-001

2.56685179512580e+004,-1.01258689434393e+000,-3.46284482327988e-001

2.60268371088386e+004,-1.01258656031166e+000,-3.51118440199042e-001

2.63901582154578e+004,-1.01258621688865e+000,-3.56019877888883e-001

2.67585510957221e+004,-1.01258586381088e+000,-3.60989737392784e-001

2.71320865489533e+004,-1.01258550080681e+000,-3.66028973856944e-001

2.75108363627948e+004,-1.01258512759752e+000,-3.71138555759565e-001

2.78948733270080e+004,-1.01258474389602e+000,-3.76319465100640e-001

2.82842712474618e+004,-1.01258434940740e+000,-3.81572697587809e-001

2.86791049603164e+004,-1.01258394382837e+000,-3.86899262829682e-001

2.90794503464061e+004,-1.01258352684719e+000,-3.92300184528297e-001

2.94853843458219e+004,-1.01258309814318e+000,-3.97776500677807e-001

2.98969849726987e+004,-1.01258265738696e+000,-4.03329263761402e-001

3.03143313302078e+004,-1.01258220423961e+000,-4.08959540956362e-001

3.07375036257601e+004,-1.01258173835275e+000,-4.14668414337801e-001

3.11665831864199e+004,-1.01258125936834e+000,-4.20456981085677e-001

3.16016524745350e+004,-1.01258076691812e+000,-4.26326353698312e-001

3.20427951035848e+004,-1.01258026062348e+000,-4.32277660203996e-001

3.24900958542493e+004,-1.01257974009532e+000,-4.38312044378276e-001

3.29436406907028e+004,-1.01257920493338e+000,-4.44430665965249e-001

3.34035167771346e+004,-1.01257865472632e+000,-4.50634700898284e-001

3.38698124945009e+004,-1.01257808905122e+000,-4.56925341527419e-001

3.43426174575100e+004,-1.01257750747324e+000,-4.63303796848281e-001

3.48220225318448e+004,-1.01257690954521e+000,-4.69771292735160e-001

3.53081198516260e+004,-1.01257629480759e+000,-4.76329072175111e-001

3.58010028371187e+004,-1.01257566278780e+000,-4.82978395508514e-001

3.63007662126863e+004,-1.01257501299992e+000,-4.89720540670430e-001

3.68075060249948e+004,-1.01257434494454e+000,-4.96556803436209e-001

3.73213196614721e+004,-1.01257365810811e+000,-5.03488497671095e-001

3.78423058690237e+004,-1.01257295196267e+000,-5.10516955582504e-001

3.83705647730104e+004,-1.01257222596533e+000,-5.17643527976816e-001

3.89061978964912e+004,-1.01257147955801e+000,-5.24869584517905e-001

3.94493081797342e+004,-1.01257071216700e+000,-5.32196513990635e-001

3.99999999999998e+004,-1.01256992320242e+000,-5.39625724568724e-001

4.05583791916010e+004,-1.01256911205772e+000,-5.47158644085223e-001

4.11245530662425e+004,-1.01256827810942e+000,-5.54796720306122e-001

4.16986304336447e+004,-1.01256742071650e+000,-5.62541421209515e-001

4.22807216224550e+004,-1.01256653921980e+000,-5.70394235268185e-001

4.28709385014515e+004,-1.01256563294174e+000,-5.78356671734518e-001

4.34693945010421e+004,-1.01256470118580e+000,-5.86430260931159e-001

4.40762046350642e+004,-1.01256374323557e+000,-5.94616554546709e-001

4.46914855228886e+004,-1.01256275835482e+000,-6.02917125931360e-001

4.53153554118317e+004,-1.01256174578639e+000,-6.11333570401928e-001

4.59479341998812e+004,-1.01256070475199e+000,-6.19867505546877e-001

4.65893434587380e+004,-1.01255963445146e+000,-6.28520571537687e-001

4.72397064571810e+004,-1.01255853406205e+000,-6.37294431445178e-001

4.78991481847569e+004,-1.01255740273787e+000,-6.46190771558262e-001

4.85677953758016e+004,-1.01255623960929e+000,-6.55211301708669e-001

4.92457765337964e+004,-1.01255504378232e+000,-6.64357755599127e-001

4.99332219560642e+004,-1.01255381433784e+000,-6.73631891136807e-001

5.06302637588109e+004,-1.01255255033068e+000,-6.83035490773026e-001

5.13370359025159e+004,-1.01255125078933e+000,-6.92570361843417e-001

5.20536742176771e+004,-1.01254991471492e+000,-7.02238336916815e-001

5.27803164309155e+004,-1.01254854108039e+000,-7.12041274148081e-001

5.35171021914442e+004,-1.01254712882995e+000,-7.21981057634519e-001

5.42641730979066e+004,-1.01254567687813e+000,-7.32059597778016e-001

5.50216727255895e+004,-1.01254418410889e+000,-7.42278831653537e-001

5.57897466540159e+004,-1.01254264937476e+000,-7.52640723381208e-001

5.65685424949235e+004,-1.01254107149616e+000,-7.63147264503415e-001

5.73582099206328e+004,-1.01253944926030e+000,-7.73800474368135e-001

5.81589006928121e+004,-1.01253778142026e+000,-7.84602400517682e-001

5.89707686916437e+004,-1.01253606669409e+000,-7.95555119082562e-001

5.97939699453972e+004,-1.01253430376393e+000,-8.06660735179204e-001

6.06286626604156e+004,-1.01253249127469e+000,-8.17921383317464e-001

6.14750072515201e+004,-1.01253062783325e+000,-8.29339227808957e-001

6.23331663728396e+004,-1.01252871200745e+000,-8.40916463184434e-001

6.32033049490698e+004,-1.01252674232482e+000,-8.52655314614898e-001

6.40855902071694e+004,-1.01252471727138e+000,-8.64558038341507e-001

6.49801917084985e+004,-1.01252263529076e+000,-8.76626922107456e-001

6.58872813814055e+004,-1.01252049478282e+000,-8.88864285599033e-001

6.68070335542691e+004,-1.01251829410235e+000,-9.01272480892093e-001

6.77396249890018e+004,-1.01251603155804e+000,-9.13853892903401e-001

6.86852349150199e+004,-1.01251370541100e+000,-9.26610939851041e-001

6.96440450636895e+004,-1.01251131387341e+000,-9.39546073718379e-001

7.06162397032520e+004,-1.01250885510727e+000,-9.52661780725893e-001

7.16020056742374e+004,-1.01250632722291e+000,-9.65960581810346e-001

7.26015324253724e+004,-1.01250372827753e+000,-9.79445033108706e-001

7.36150120499896e+004,-1.01250105627379e+000,-9.93117726450673e-001

7.46426393229441e+004,-1.01249830915823e+000,-1.00698128985680e+000

7.56846117380472e+004,-1.01249548481960e+000,-1.02103838804501e+000

7.67411295460207e+004,-1.01249258108735e+000,-1.03529172294235e+000

7.78123957929823e+004,-1.01248959572998e+000,-1.04974403420565e+000

7.88986163594682e+004,-1.01248652645330e+000,-1.06439809974808e+000

7.99999999999995e+004,-1.01248337089858e+000,-1.07925673627419e+000

8.11167583832018e+004,-1.01248012664082e+000,-1.09432279982228e+000

8.22491061324848e+004,-1.01247679118694e+000,-1.10959918631306e+000

8.33972608672892e+004,-1.01247336197380e+000,-1.12508883210738e+000

8.45614432449099e+004,-1.01246983636612e+000,-1.14079471457259e+000

8.57418770029029e+004,-1.01246621165477e+000,-1.15671985265335e+000

8.69387890020841e+004,-1.01246248505431e+000,-1.17286730745465e+000

8.81524092701283e+004,-1.01245865370123e+000,-1.18924018282989e+000

8.93829710457770e+004,-1.01245471465134e+000,-1.20584162597971e+000

9.06307108236633e+004,-1.01245066487799e+000,-1.22267482805579e+000

9.18958683997622e+004,-1.01244650126926e+000,-1.23974302477700e+000

9.31786869174758e+004,-1.01244222062595e+000,-1.25704949705177e+000

9.44794129143618e+004,-1.01243781965888e+000,-1.27459757160982e+000

9.57982963695136e+004,-1.01243329498658e+000,-1.29239062164225e+000

9.71355907516031e+004,-1.01242864313244e+000,-1.31043206745193e+000

9.84915530675926e+004,-1.01242386052238e+000,-1.32872537711114e+000

9.98664439121282e+004,-1.01241894348174e+000,-1.34727406713046e+000

1.01260527517622e+005,-1.01241388823265e+000,-1.36608170313560e+000

1.02674071805032e+005,-1.01240869089121e+000,-1.38515190055372e+000

1.04107348435354e+005,-1.01240334746437e+000,-1.40448832531015e+000

1.05560632861831e+005,-1.01239785384694e+000,-1.42409469453503e+000

1.07034204382888e+005,-1.01239220581835e+000,-1.44397477727837e+000

1.08528346195813e+005,-1.01238639903959e+000,-1.46413239523687e+000

1.10043345451179e+005,-1.01238042904965e+000,-1.48457142349036e+000

1.11579493308032e+005,-1.01237429126239e+000,-1.50529579124739e+000

1.13137084989847e+005,-1.01236798096272e+000,-1.52630948260377e+000

1.14716419841265e+005,-1.01236149330320e+000,-1.54761653730888e+000

1.16317801385624e+005,-1.01235482330022e+000,-1.56922105154586e+000

1.17941537383287e+005,-1.01234796583021e+000,-1.59112717871930e+000

1.19587939890794e+005,-1.01234091562580e+000,-1.61333913025699e+000

1.21257325320831e+005,-1.01233366727158e+000,-1.63586117642163e+000

1.22950014503040e+005,-1.01232621520015e+000,-1.65869764713336e+000

1.24666332745679e+005,-1.01231855368777e+000,-1.68185293280560e+000

1.26406609898139e+005,-1.01231067684995e+000,-1.70533148519058e+000

1.28171180414339e+005,-1.01230257863708e+000,-1.72913781823801e+000

1.29960383416997e+005,-1.01229425282952e+000,-1.75327650896657e+000

1.31774562762811e+005,-1.01228569303314e+000,-1.77775219834563e+000

1.33614067108538e+005,-1.01227689267431e+000,-1.80256959219005e+000

1.35479249978003e+005,-1.01226784499472e+000,-1.82773346206984e+000

1.37370469830040e+005,-1.01225854304655e+000,-1.85324864622828e+000

1.39288090127379e+005,-1.01224897968672e+000,-1.87912005051800e+000

1.41232479406504e+005,-1.01223914757182e+000,-1.90535264934542e+000

1.43204011348474e+005,-1.01222903915217e+000,-1.93195148663231e+000

1.45203064850745e+005,-1.01221864666638e+000,-1.95892167678838e+000

1.47230024099979e+005,-1.01220796213501e+000,-1.98626840569945e+000

1.49285278645888e+005,-1.01219697735481e+000,-2.01399693172784e+000

1.51369223476094e+005,-1.01218568389233e+000,-2.04211258672806e+000

1.53482259092041e+005,-1.01217407307739e+000,-2.07062077707689e+000

1.55624791585964e+005,-1.01216213599649e+000,-2.09952698471654e+000

1.57797232718936e+005,-1.01214986348618e+000,-2.12883676821439e+000

1.59999999999999e+005,-1.01213724612579e+000,-2.15855576383676e+000

1.62233516766403e+005,-1.01212427423033e+000,-2.18868968663759e+000

1.64498212264969e+005,-1.01211093784317e+000,-2.21924433156347e+000

1.66794521734578e+005,-1.01209722672826e+000,-2.25022557457327e+000

1.69122886489819e+005,-1.01208313036261e+000,-2.28163937377383e+000

1.71483754005805e+005,-1.01206863792787e+000,-2.31349177057262e+000

1.73877578004168e+005,-1.01205373830239e+000,-2.34578889084553e+000

1.76304818540256e+005,-1.01203842005254e+000,-2.37853694612145e+000

1.78765942091554e+005,-1.01202267142408e+000,-2.41174223478446e+000

1.81261421647326e+005,-1.01200648033315e+000,-2.44541114329217e+000

1.83791736799524e+005,-1.01198983435706e+000,-2.47955014741133e+000

1.86357373834951e+005,-1.01197272072492e+000,-2.51416581347143e+000

1.88958825828723e+005,-1.01195512630758e+000,-2.54926479963640e+000

1.91596592739027e+005,-1.01193703760802e+000,-2.58485385719281e+000

1.94271181503206e+005,-1.01191844075089e+000,-2.62093983185800e+000

1.96983106135185e+005,-1.01189932147182e+000,-2.65752966510644e+000

1.99732887824256e+005,-1.01187966510672e+000,-2.69463039551441e+000

2.02521055035243e+005,-1.01185945658061e+000,-2.73224916012350e+000

2.05348143610063e+005,-1.01183868039600e+000,-2.77039319582510e+000

2.08214696870707e+005,-1.01181732062130e+000,-2.80906984076278e+000

2.11121265723661e+005,-1.01179536087848e+000,-2.84828653575594e+000

2.14068408765776e+005,-1.01177278433070e+000,-2.88805082574305e+000

2.17056692391625e+005,-1.01174957366964e+000,-2.92837036124560e+000

2.20086690902357e+005,-1.01172571110208e+000,-2.96925289985299e+000

2.23158986616063e+005,-1.01170117833663e+000,-3.01070630772885e+000

2.26274169979693e+005,-1.01167595656965e+000,-3.05273856113810e+000

2.29432839682530e+005,-1.01165002647102e+000,-3.09535774799747e+000

2.32635602771247e+005,-1.01162336816955e+000,-3.13857206944564e+000

2.35883074766574e+005,-1.01159596123778e+000,-3.18238984143828e+000

2.39175879781588e+005,-1.01156778467654e+000,-3.22681949636482e+000

2.42514650641661e+005,-1.01153881689897e+000,-3.27186958468841e+000

2.45900029006080e+005,-1.01150903571428e+000,-3.31754877660936e+000

2.49332665491357e+005,-1.01147841831079e+000,-3.36386586375272e+000

2.52813219796278e+005,-1.01144694123868e+000,-3.41082976088030e+000

2.56342360828676e+005,-1.01141458039233e+000,-3.45844950762638e+000

2.59920766833993e+005,-1.01138131099197e+000,-3.50673427025924e+000

2.63549125525621e+005,-1.01134710756493e+000,-3.55569334346808e+000

2.67228134217075e+005,-1.01131194392650e+000,-3.60533615217469e+000

2.70958499956006e+005,-1.01127579315999e+000,-3.65567225337248e+000

2.74740939660078e+005,-1.01123862759645e+000,-3.70671133799152e+000

2.78576180254757e+005,-1.01120041879378e+000,-3.75846323279017e+000

2.82464958813007e+005,-1.01116113751530e+000,-3.81093790227461e+000

2.86408022696948e+005,-1.01112075370763e+000,-3.86414545064559e+000

2.90406129701488e+005,-1.01107923647809e+000,-3.91809612377444e+000

2.94460048199957e+005,-1.01103655407140e+000,-3.97280031120592e+000

2.98570557291775e+005,-1.01099267384567e+000,-4.02826854819238e+000

3.02738446952187e+005,-1.01094756224803e+000,-4.08451151775555e+000

3.06964518184081e+005,-1.01090118478926e+000,-4.14154005277905e+000

3.11249583171928e+005,-1.01085350601780e+000,-4.19936513813213e+000

3.15594465437872e+005,-1.01080448949333e+000,-4.25799791282268e+000

3.19999999999997e+005,-1.01075409775916e+000,-4.31744967218334e+000

3.24467033532806e+005,-1.01070229231439e+000,-4.37773187008840e+000

3.28996424529938e+005,-1.01064903358475e+000,-4.43885612120393e+000

3.33589043469155e+005,-1.01059428089329e+000,-4.50083420326987e+000

3.38245772979638e+005,-1.01053799242958e+000,-4.56367805941701e+000

3.42967508011610e+005,-1.01048012521871e+000,-4.62739980051647e+000

3.47755156008335e+005,-1.01042063508900e+000,-4.69201170756488e+000

3.52609637080511e+005,-1.01035947663913e+000,-4.75752623410403e+000

3.57531884183106e+005,-1.01029660320418e+000,-4.82395600867630e+000

3.62522843294651e+005,-1.01023196682082e+000,-4.89131383731690e+000

3.67583473599047e+005,-1.01016551819166e+000,-4.95961270608190e+000

3.72714747669902e+005,-1.01009720664848e+000,-5.02886578361469e+000

3.77917651657445e+005,-1.01002698011460e+000,-5.09908642374999e+000

3.83193185478053e+005,-1.00995478506622e+000,-5.17028816815677e+000

3.88542363006410e+005,-1.00988056649263e+000,-5.24248474902005e+000

3.93966212270369e+005,-1.00980426785545e+000,-5.31569009176330e+000

3.99465775648511e+005,-1.00972583104680e+000,-5.38991831781110e+000

4.05042110070485e+005,-1.00964519634621e+000,-5.46518374739320e+000

4.10696287220124e+005,-1.00956230237663e+000,-5.54150090239049e+000

4.16429393741414e+005,-1.00947708605900e+000,-5.61888450922374e+000

4.22242531447321e+005,-1.00938948256587e+000,-5.69734950178577e+000

4.28136817531551e+005,-1.00929942527347e+000,-5.77691102441796e+000

4.34113384783250e+005,-1.00920684571296e+000,-5.85758443493111e+000

4.40173381804713e+005,-1.00911167351991e+000,-5.93938530767317e+000

4.46317973232124e+005,-1.00901383638287e+000,-6.02232943664144e+000

4.52548339959385e+005,-1.00891325999022e+000,-6.10643283864433e+000

4.58865679365059e+005,-1.00880986797597e+000,-6.19171175650972e+000

4.65271205542494e+005,-1.00870358186389e+000,-6.27818266234237e+000

4.71766149533147e+005,-1.00859432101039e+000,-6.36586226083184e+000

4.78351759563174e+005,-1.00848200254558e+000,-6.45476749261022e+000

4.85029301283321e+005,-1.00836654131318e+000,-6.54491553766207e+000

4.91800058012158e+005,-1.00824784980871e+000,-6.63632381878643e+000

4.98665330982714e+005,-1.00812583811599e+000,-6.72901000511196e+000

5.05626439592555e+005,-1.00800041384222e+000,-6.82299201566741e+000

5.12684721657352e+005,-1.00787148205113e+000,-6.91828802300633e+000

5.19841533667984e+005,-1.00773894519460e+000,-7.01491645688864e+000

5.27098251051240e+005,-1.00760270304252e+000,-7.11289600801959e+000

5.34456268434150e+005,-1.00746265261079e+000,-7.21224563184676e+000

5.41916999912011e+005,-1.00731868808752e+000,-7.31298455241700e+000

