Freq.,VOut,OutRef

1.00000000000000e+004,-1.97277607055863e+001,-4.12466454877526e-002

1.01395947979003e+004,-1.97277607230510e+001,-4.18224271707105e-002

1.02811382665607e+004,-1.97277607410068e+001,-4.24062464650641e-002

1.04246576084112e+004,-1.97277607594673e+001,-4.29982155725345e-002

1.05701804056138e+004,-1.97277607784466e+001,-4.35984482605745e-002

1.07177346253629e+004,-1.97277607979595e+001,-4.42070598824917e-002

1.08673486252606e+004,-1.97277608180211e+001,-4.48241674042486e-002

1.10190511587661e+004,-1.97277608386469e+001,-4.54498894232907e-002

1.11728713807222e+004,-1.97277608598524e+001,-4.60843461959245e-002

1.13288388529580e+004,-1.97277608816542e+001,-4.67276596520505e-002

1.14869835499703e+004,-1.97277609040688e+001,-4.73799534280870e-002

1.16473358646846e+004,-1.97277609271134e+001,-4.80413528856146e-002

1.18099266142953e+004,-1.97277609508061e+001,-4.87119851314735e-002

1.19747870461893e+004,-1.97277609751648e+001,-4.93919790533658e-002

1.21419488439505e+004,-1.97277610002084e+001,-5.00814653347135e-002

1.23114441334492e+004,-1.97277610259560e+001,-5.07805764832523e-002

1.24833054890161e+004,-1.97277610524274e+001,-5.14894468581514e-002

1.26575659397028e+004,-1.97277610796432e+001,-5.22082126915614e-002

1.28342589756290e+004,-1.97277611076238e+001,-5.29370121209113e-002

1.30134185544193e+004,-1.97277611363913e+001,-5.36759852075313e-002

1.31950791077289e+004,-1.97277611659677e+001,-5.44252739704707e-002

1.33792755478611e+004,-1.97277611963753e+001,-5.51850224135547e-002

1.35660432744767e+004,-1.97277612276379e+001,-5.59553765455040e-002

1.37554181813974e+004,-1.97277612597797e+001,-5.67364844165622e-002

1.39474366635040e+004,-1.97277612928247e+001,-5.75284961454105e-002

1.41421356237309e+004,-1.97277613267988e+001,-5.83315639427550e-002

1.43395524801583e+004,-1.97277613617281e+001,-5.91458421454661e-002

1.45397251732031e+004,-1.97277613976396e+001,-5.99714872425161e-002

1.47426921729110e+004,-1.97277614345605e+001,-6.08086579134860e-002

1.49484924863494e+004,-1.97277614725192e+001,-6.16575150485884e-002

1.51571656651040e+004,-1.97277615115453e+001,-6.25182217819420e-002

1.53687518128801e+004,-1.97277615516687e+001,-6.33909435287494e-002

1.55832915932100e+004,-1.97277615929199e+001,-6.42758480143250e-002

1.58008262372675e+004,-1.97277616353308e+001,-6.51731053009592e-002

1.60213975517924e+004,-1.97277616789342e+001,-6.60828878266540e-002

1.62450479271247e+004,-1.97277617237635e+001,-6.70053704384698e-002

1.64718203453514e+004,-1.97277617698529e+001,-6.79407304236201e-002

1.67017583885674e+004,-1.97277618172382e+001,-6.88891475405498e-002

1.69349062472505e+004,-1.97277618659555e+001,-6.98508040626903e-002

1.71713087287550e+004,-1.97277619160426e+001,-7.08258848027263e-002

1.74110112659224e+004,-1.97277619675379e+001,-7.18145771554820e-002

1.76540599258131e+004,-1.97277620204809e+001,-7.28170711335310e-002

1.79005014185594e+004,-1.97277620749121e+001,-7.38335593999161e-002

1.81503831063432e+004,-1.97277621308737e+001,-7.48642373063252e-002

1.84037530124975e+004,-1.97277621884086e+001,-7.59093029325190e-002

1.86606598307361e+004,-1.97277622475611e+001,-7.69689571229074e-002

1.89211529345119e+004,-1.97277623083766e+001,-7.80434035270253e-002

1.91852823865052e+004,-1.97277623709019e+001,-7.91328486350313e-002

1.94530989482457e+004,-1.97277624351848e+001,-8.02375018222633e-002

1.97246540898671e+004,-1.97277625012751e+001,-8.13575753834700e-002

1.99999999999999e+004,-1.97277625692235e+001,-8.24932845795041e-002

2.02791895958005e+004,-1.97277626390821e+001,-8.36448476749667e-002

2.05622765331213e+004,-1.97277627109047e+001,-8.48124859823831e-002

2.08493152168224e+004,-1.97277627847466e+001,-8.59964239020237e-002

2.11403608112276e+004,-1.97277628606642e+001,-8.71968889690821e-002

2.14354692507258e+004,-1.97277629387164e+001,-8.84141118907267e-002

2.17346972505211e+004,-1.97277630189628e+001,-8.96483266001462e-002

2.20381023175322e+004,-1.97277631014654e+001,-9.08997702909524e-002

2.23457427614443e+004,-1.97277631862873e+001,-9.21686834723077e-002

2.26576777059159e+004,-1.97277632734941e+001,-9.34553100069533e-002

2.29739670999406e+004,-1.97277633631523e+001,-9.47598971656078e-002

2.32946717293690e+004,-1.97277634553313e+001,-9.60826956663857e-002

2.36198532285905e+004,-1.97277635501017e+001,-9.74239597307659e-002

2.39495740923785e+004,-1.97277636475365e+001,-9.87839471278233e-002

2.42838976879009e+004,-1.97277637477106e+001,-1.00162919223731e-001

2.46228882668982e+004,-1.97277638507010e+001,-1.01561141035039e-001

2.49666109780322e+004,-1.97277639565869e+001,-1.02978881276839e-001

2.53151318794055e+004,-1.97277640654495e+001,-1.04416412416575e-001

2.56685179512580e+004,-1.97277641773727e+001,-1.05874010722946e-001

2.60268371088386e+004,-1.97277642924426e+001,-1.07351956321608e-001

2.63901582154578e+004,-1.97277644107474e+001,-1.08850533250403e-001

2.67585510957221e+004,-1.97277645323783e+001,-1.10370029511221e-001

2.71320865489533e+004,-1.97277646574286e+001,-1.11910737125903e-001

2.75108363627948e+004,-1.97277647859947e+001,-1.13472952191833e-001

2.78948733270080e+004,-1.97277649181751e+001,-1.15056974942137e-001

2.82842712474618e+004,-1.97277650540717e+001,-1.16663109799139e-001

2.86791049603164e+004,-1.97277651937888e+001,-1.18291665435266e-001

2.90794503464061e+004,-1.97277653374340e+001,-1.19942954831475e-001

2.94853843458219e+004,-1.97277654851175e+001,-1.21617295338108e-001

2.98969849726987e+004,-1.97277656369529e+001,-1.23315008736474e-001

3.03143313302078e+004,-1.97277657930571e+001,-1.25036421296388e-001

3.07375036257601e+004,-1.97277659535499e+001,-1.26781863846192e-001

3.11665831864199e+004,-1.97277661185548e+001,-1.28551671829912e-001

3.16016524745350e+004,-1.97277662881986e+001,-1.30346185375090e-001

3.20427951035848e+004,-1.97277664626117e+001,-1.32165749357059e-001

3.24900958542493e+004,-1.97277666419281e+001,-1.34010713465000e-001

3.29436406907028e+004,-1.97277668262860e+001,-1.35881432269112e-001

3.34035167771346e+004,-1.97277670158268e+001,-1.37778265290409e-001

3.38698124945009e+004,-1.97277672106962e+001,-1.39701577068240e-001

3.43426174575100e+004,-1.97277674110442e+001,-1.41651737229498e-001

3.48220225318448e+004,-1.97277676170248e+001,-1.43629120561899e-001

3.53081198516260e+004,-1.97277678287963e+001,-1.45634107084799e-001

3.58010028371187e+004,-1.97277680465214e+001,-1.47667082122255e-001

3.63007662126863e+004,-1.97277682703677e+001,-1.49728436376462e-001

3.68075060249948e+004,-1.97277685005070e+001,-1.51818566004880e-001

3.73213196614721e+004,-1.97277687371166e+001,-1.53937872693388e-001

3.78423058690237e+004,-1.97277689803779e+001,-1.56086763737607e-001

3.83705647730104e+004,-1.97277692304784e+001,-1.58265652114518e-001

3.89061978964912e+004,-1.97277694876100e+001,-1.60474956571098e-001

3.94493081797342e+004,-1.97277697519707e+001,-1.62715101694798e-001

3.99999999999998e+004,-1.97277700237636e+001,-1.64986518002563e-001

4.05583791916010e+004,-1.97277703031976e+001,-1.67289642021660e-001

4.11245530662425e+004,-1.97277705904874e+001,-1.69624916371891e-001

4.16986304336447e+004,-1.97277708858542e+001,-1.71992789850598e-001

4.22807216224550e+004,-1.97277711895246e+001,-1.74393717522546e-001

4.28709385014515e+004,-1.97277715017324e+001,-1.76828160801990e-001

4.34693945010421e+004,-1.97277718227176e+001,-1.79296587545132e-001

4.40762046350642e+004,-1.97277721527269e+001,-1.81799472139872e-001

4.46914855228886e+004,-1.97277724920140e+001,-1.84337295595253e-001

4.53153554118317e+004,-1.97277728408397e+001,-1.86910545635976e-001

4.59479341998812e+004,-1.97277731994722e+001,-1.89519716793255e-001

4.65893434587380e+004,-1.97277735681872e+001,-1.92165310502814e-001

4.72397064571810e+004,-1.97277739472681e+001,-1.94847835199070e-001

4.78991481847569e+004,-1.97277743370064e+001,-1.97567806413945e-001

4.85677953758016e+004,-1.97277747377018e+001,-2.00325746875793e-001

4.92457765337964e+004,-1.97277751496622e+001,-2.03122186610211e-001

4.99332219560642e+004,-1.97277755732043e+001,-2.05957663041000e-001

5.06302637588109e+004,-1.97277760086538e+001,-2.08832721093454e-001

5.13370359025159e+004,-1.97277764563453e+001,-2.11747913300380e-001

5.20536742176771e+004,-1.97277769166231e+001,-2.14703799906610e-001

5.27803164309155e+004,-1.97277773898412e+001,-2.17700948976282e-001

5.35171021914442e+004,-1.97277778763630e+001,-2.20739936507253e-001

5.42641730979066e+004,-1.97277783765628e+001,-2.23821346532977e-001

5.50216727255895e+004,-1.97277788908250e+001,-2.26945771242541e-001

5.57897466540159e+004,-1.97277794195451e+001,-2.30113811089046e-001

5.65685424949235e+004,-1.97277799631295e+001,-2.33326074908513e-001

5.73582099206328e+004,-1.97277805219959e+001,-2.36583180036880e-001

5.81589006928121e+004,-1.97277810965742e+001,-2.39885752424361e-001

5.89707686916437e+004,-1.97277816873061e+001,-2.43234426760664e-001

5.97939699453972e+004,-1.97277822946456e+001,-2.46629846594875e-001

6.06286626604156e+004,-1.97277829190596e+001,-2.50072664458860e-001

6.14750072515201e+004,-1.97277835610281e+001,-2.53563541994461e-001

6.23331663728396e+004,-1.97277842210448e+001,-2.57103150076458e-001

6.32033049490698e+004,-1.97277848996170e+001,-2.60692168945650e-001

6.40855902071694e+004,-1.97277855972662e+001,-2.64331288339671e-001

6.49801917084985e+004,-1.97277863145290e+001,-2.68021207620583e-001

6.58872813814055e+004,-1.97277870519566e+001,-2.71762635916530e-001

6.68070335542691e+004,-1.97277878101161e+001,-2.75556292250418e-001

6.77396249890018e+004,-1.97277885895901e+001,-2.79402905684657e-001

6.86852349150199e+004,-1.97277893909780e+001,-2.83303215456369e-001

6.96440450636895e+004,-1.97277902148958e+001,-2.87257971123143e-001

7.06162397032520e+004,-1.97277910619769e+001,-2.91267932703282e-001

7.16020056742374e+004,-1.97277919328725e+001,-2.95333870825179e-001

7.26015324253724e+004,-1.97277928282521e+001,-2.99456566873977e-001

7.36150120499896e+004,-1.97277937488041e+001,-3.03636813141676e-001

7.46426393229441e+004,-1.97277946952361e+001,-3.07875412978100e-001

7.56846117380472e+004,-1.97277956682757e+001,-3.12173180949571e-001

7.67411295460207e+004,-1.97277966686709e+001,-3.16530942989339e-001

7.78123957929823e+004,-1.97277976971909e+001,-3.20949536560512e-001

7.88986163594682e+004,-1.97277987546262e+001,-3.25429810816657e-001

7.99999999999995e+004,-1.97277998417897e+001,-3.29972626762836e-001

8.11167583832018e+004,-1.97278009595173e+001,-3.34578857422872e-001

8.22491061324848e+004,-1.97278021086682e+001,-3.39249388005829e-001

8.33972608672892e+004,-1.97278032901257e+001,-3.43985116077758e-001

8.45614432449099e+004,-1.97278045047982e+001,-3.48786951732245e-001

8.57418770029029e+004,-1.97278057536195e+001,-3.53655817766050e-001

8.69387890020841e+004,-1.97278070375495e+001,-3.58592649856677e-001

8.81524092701283e+004,-1.97278083575752e+001,-3.63598396742296e-001

8.93829710457770e+004,-1.97278097147114e+001,-3.68674020402843e-001

9.06307108236633e+004,-1.97278111100016e+001,-3.73820496244880e-001

9.18958683997622e+004,-1.97278125445182e+001,-3.79038813291124e-001

9.31786869174758e+004,-1.97278140193640e+001,-3.84329974368848e-001

9.44794129143618e+004,-1.97278155356728e+001,-3.89694996301480e-001

9.57982963695136e+004,-1.97278170946102e+001,-3.95134910105642e-001

9.71355907516031e+004,-1.97278186973748e+001,-4.00650761187952e-001

9.84915530675926e+004,-1.97278203451986e+001,-4.06243609548325e-001

9.98664439121282e+004,-1.97278220393483e+001,-4.11914529979925e-001

1.01260527517622e+005,-1.97278237811263e+001,-4.17664612278356e-001

1.02674071805032e+005,-1.97278255718716e+001,-4.23494961448760e-001

1.04107348435354e+005,-1.97278274129608e+001,-4.29406697921890e-001

1.05560632861831e+005,-1.97278293058092e+001,-4.35400957763814e-001

1.07034204382888e+005,-1.97278312518719e+001,-4.41478892899777e-001

1.08528346195813e+005,-1.97278332526450e+001,-4.47641671330708e-001

1.10043345451179e+005,-1.97278353096664e+001,-4.53890477360415e-001

1.11579493308032e+005,-1.97278374245175e+001,-4.60226511822735e-001

1.13137084989847e+005,-1.97278395988240e+001,-4.66650992311112e-001

1.14716419841265e+005,-1.97278418342574e+001,-4.73165153412415e-001

1.16317801385624e+005,-1.97278441325362e+001,-4.79770246946097e-001

1.17941537383287e+005,-1.97278464954269e+001,-4.86467542202316e-001

1.19587939890794e+005,-1.97278489247463e+001,-4.93258326185090e-001

1.21257325320831e+005,-1.97278514223615e+001,-5.00143903864015e-001

1.22950014503040e+005,-1.97278539901928e+001,-5.07125598418582e-001

1.24666332745679e+005,-1.97278566302139e+001,-5.14204751497312e-001

1.26406609898139e+005,-1.97278593444545e+001,-5.21382723472087e-001

1.28171180414339e+005,-1.97278621350008e+001,-5.28660893702759e-001

1.29960383416997e+005,-1.97278650039981e+001,-5.36040660797786e-001

1.31774562762811e+005,-1.97278679536518e+001,-5.43523442885701e-001

1.33614067108538e+005,-1.97278709862294e+001,-5.51110677887923e-001

1.35479249978003e+005,-1.97278741040620e+001,-5.58803823791297e-001

1.37370469830040e+005,-1.97278773095464e+001,-5.66604358932647e-001

1.39288090127379e+005,-1.97278806051467e+001,-5.74513782278564e-001

1.41232479406504e+005,-1.97278839933961e+001,-5.82533613715389e-001

1.43204011348474e+005,-1.97278874768993e+001,-5.90665394341273e-001

1.45203064850745e+005,-1.97278910583340e+001,-5.98910686760481e-001

1.47230024099979e+005,-1.97278947404534e+001,-6.07271075383232e-001

1.49285278645888e+005,-1.97278985260878e+001,-6.15748166733253e-001

1.51369223476094e+005,-1.97279024181473e+001,-6.24343589751065e-001

1.53482259092041e+005,-1.97279064196237e+001,-6.33058996110966e-001

1.55624791585964e+005,-1.97279105335928e+001,-6.41896060535921e-001

1.57797232718936e+005,-1.97279147632171e+001,-6.50856481118917e-001

1.59999999999999e+005,-1.97279191117478e+001,-6.59941979649617e-001

1.62233516766403e+005,-1.97279235825276e+001,-6.69154301944292e-001

1.64498212264969e+005,-1.97279281789931e+001,-6.78495218182130e-001

1.66794521734578e+005,-1.97279329046775e+001,-6.87966523243434e-001

1.69122886489819e+005,-1.97279377632133e+001,-6.97570037053627e-001

1.71483754005805e+005,-1.97279427583353e+001,-7.07307604935007e-001

1.73877578004168e+005,-1.97279478938830e+001,-7.17181097958010e-001

1.76304818540256e+005,-1.97279531738039e+001,-7.27192413301840e-001

1.78765942091554e+005,-1.97279586021565e+001,-7.37343474619141e-001

1.81261421647326e+005,-1.97279641831136e+001,-7.47636232401740e-001

1.83791736799524e+005,-1.97279699209649e+001,-7.58072664359096e-001

1.86357373834951e+005,-1.97279758201208e+001,-7.68654775795079e-001

1.88958825828723e+005,-1.97279818851158e+001,-7.79384599992449e-001

1.91596592739027e+005,-1.97279881206118e+001,-7.90264198605548e-001

1.94271181503206e+005,-1.97279945314016e+001,-8.01295662052128e-001

1.96983106135185e+005,-1.97280011224130e+001,-8.12481109916802e-001

1.99732887824256e+005,-1.97280078987119e+001,-8.23822691356589e-001

2.02521055035243e+005,-1.97280148655070e+001,-8.35322585513626e-001

2.05348143610063e+005,-1.97280220281531e+001,-8.46983001931932e-001

2.08214696870707e+005,-1.97280293921557e+001,-8.58806180983155e-001

2.11121265723661e+005,-1.97280369631750e+001,-8.70794394292962e-001

2.14068408765776e+005,-1.97280447470301e+001,-8.82949945180228e-001

2.17056692391625e+005,-1.97280527497040e+001,-8.95275169095805e-001

2.20086690902357e+005,-1.97280609773475e+001,-9.07772434071560e-001

2.23158986616063e+005,-1.97280694362846e+001,-9.20444141173557e-001

2.26274169979693e+005,-1.97280781330166e+001,-9.33292724963662e-001

2.29432839682530e+005,-1.97280870742281e+001,-9.46320653963572e-001

2.32635602771247e+005,-1.97280962667912e+001,-9.59530431131211e-001

2.35883074766574e+005,-1.97281057177711e+001,-9.72924594337421e-001

2.39175879781588e+005,-1.97281154344317e+001,-9.86505716854220e-001

2.42514650641661e+005,-1.97281254242411e+001,-1.00027640784648e+000

2.45900029006080e+005,-1.97281356948771e+001,-1.01423931287279e+000

2.49332665491357e+005,-1.97281462542335e+001,-1.02839711439166e+000

2.52813219796278e+005,-1.97281571104257e+001,-1.04275253227574e+000

2.56342360828676e+005,-1.97281682717974e+001,-1.05730832433195e+000

2.59920766833993e+005,-1.97281797469265e+001,-1.07206728683113e+000

2.63549125525621e+005,-1.97281915446323e+001,-1.08703225504122e+000

2.67228134217075e+005,-1.97282036739817e+001,-1.10220610377293e+000

2.70958499956006e+005,-1.97282161442966e+001,-1.11759174792751e+000

2.74740939660078e+005,-1.97282289651606e+001,-1.13319214305658e+000

2.78576180254757e+005,-1.97282421464267e+001,-1.14901028592718e+000

2.82464958813007e+005,-1.97282556982249e+001,-1.16504921509449e+000

2.86408022696948e+005,-1.97282696309698e+001,-1.18131201148504e+000

2.90406129701488e+005,-1.97282839553687e+001,-1.19780179898461e+000

2.94460048199957e+005,-1.97282986824296e+001,-1.21452174503649e+000

2.98570557291775e+005,-1.97283138234699e+001,-1.23147506124839e+000

3.02738446952187e+005,-1.97283293901250e+001,-1.24866500400539e+000

3.06964518184081e+005,-1.97283453943575e+001,-1.26609487509164e+000

3.11249583171928e+005,-1.97283618484657e+001,-1.28376802232526e+000

3.15594465437872e+005,-1.97283787650937e+001,-1.30168784019484e+000

3.19999999999997e+005,-1.97283961572408e+001,-1.31985777051027e+000

3.24467033532806e+005,-1.97284140382716e+001,-1.33828130306005e+000

3.28996424529938e+005,-1.97284324219261e+001,-1.35696197627856e+000

3.33589043469155e+005,-1.97284513223304e+001,-1.37590337792136e+000

3.38245772979638e+005,-1.97284707540075e+001,-1.39510914575065e+000

3.42967508011610e+005,-1.97284907318884e+001,-1.41458296823153e+000

3.47755156008335e+005,-1.97285112713235e+001,-1.43432858523489e+000

3.52609637080511e+005,-1.97285323880946e+001,-1.45434978875138e+000

3.57531884183106e+005,-1.97285540984266e+001,-1.47465042361715e+000

3.62522843294651e+005,-1.97285764190005e+001,-1.49523438824559e+000

3.67583473599047e+005,-1.97285993669658e+001,-1.51610563537249e+000

3.72714747669902e+005,-1.97286229599536e+001,-1.53726817280975e+000

3.77917651657445e+005,-1.97286472160906e+001,-1.55872606420977e+000

3.83193185478053e+005,-1.97286721540123e+001,-1.58048342984149e+000

3.88542363006410e+005,-1.97286977928777e+001,-1.60254444737504e+000

3.93966212270369e+005,-1.97287241523845e+001,-1.62491335267724e+000

3.99465775648511e+005,-1.97287512527829e+001,-1.64759444062170e+000

4.05042110070485e+005,-1.97287791148924e+001,-1.67059206590400e+000

4.10696287220124e+005,-1.97288077601170e+001,-1.69391064387376e+000

4.16429393741414e+005,-1.97288372104619e+001,-1.71755465137373e+000

4.22242531447321e+005,-1.97288674885505e+001,-1.74152862759339e+000

4.28136817531551e+005,-1.97288986176413e+001,-1.76583717493279e+000

4.34113384783250e+005,-1.97289306216459e+001,-1.79048495987795e+000

4.40173381804713e+005,-1.97289635251479e+001,-1.81547671388812e+000

4.46317973232124e+005,-1.97289973534207e+001,-1.84081723429758e+000

4.52548339959385e+005,-1.97290321324477e+001,-1.86651138522579e+000

4.58865679365059e+005,-1.97290678889417e+001,-1.89256409850327e+000

4.65271205542494e+005,-1.97291046503659e+001,-1.91898037460777e+000

4.71766149533147e+005,-1.97291424449541e+001,-1.94576528361509e+000

4.78351759563174e+005,-1.97291813017335e+001,-1.97292396616082e+000

4.85029301283321e+005,-1.97292212505455e+001,-2.00046163441750e+000

4.91800058012158e+005,-1.97292623220698e+001,-2.02838357308231e+000

4.98665330982714e+005,-1.97293045478472e+001,-2.05669514038074e+000

5.05626439592555e+005,-1.97293479603041e+001,-2.08540176908190e+000

5.12684721657352e+005,-1.97293925927770e+001,-2.11450896752852e+000

5.19841533667984e+005,-1.97294384795380e+001,-2.14402232068118e+000

5.27098251051240e+005,-1.97294856558214e+001,-2.17394749117558e+000

5.34456268434150e+005,-1.97295341578507e+001,-2.20429022039424e+000

5.41916999912011e+005,-1.97295840228654e+001,-2.23505632955441e+000

