Freq.,VOut,OutRef

1.00000000000000e+004,-1.64764747024887e+001,-1.10979748845073e-001

1.01395947979003e+004,-1.64764747809598e+001,-1.12528968074871e-001

1.02811382665607e+004,-1.64764748616369e+001,-1.14099813584997e-001

1.04246576084112e+004,-1.64764749445821e+001,-1.15692587267312e-001

1.05701804056138e+004,-1.64764750298593e+001,-1.17307595225834e-001

1.07177346253629e+004,-1.64764751175340e+001,-1.18945147838896e-001

1.08673486252606e+004,-1.64764752076736e+001,-1.20605559818180e-001

1.10190511587661e+004,-1.64764753003473e+001,-1.22289150267554e-001

1.11728713807222e+004,-1.64764753956263e+001,-1.23996242746736e-001

1.13288388529580e+004,-1.64764754935842e+001,-1.25727165328484e-001

1.14869835499703e+004,-1.64764755942958e+001,-1.27482250670614e-001

1.16473358646846e+004,-1.64764756978389e+001,-1.29261836070409e-001

1.18099266142953e+004,-1.64764758042931e+001,-1.31066263534393e-001

1.19747870461893e+004,-1.64764759137401e+001,-1.32895879845443e-001

1.21419488439505e+004,-1.64764760262640e+001,-1.34751036625338e-001

1.23114441334492e+004,-1.64764761419513e+001,-1.36632090404986e-001

1.24833054890161e+004,-1.64764762608911e+001,-1.38539402691325e-001

1.26575659397028e+004,-1.64764763831747e+001,-1.40473340039303e-001

1.28342589756290e+004,-1.64764765088962e+001,-1.42434274118380e-001

1.30134185544193e+004,-1.64764766381522e+001,-1.44422581789111e-001

1.31950791077289e+004,-1.64764767710420e+001,-1.46438645170682e-001

1.33792755478611e+004,-1.64764769076679e+001,-1.48482851717064e-001

1.35660432744767e+004,-1.64764770481349e+001,-1.50555594291462e-001

1.37554181813974e+004,-1.64764771925511e+001,-1.52657271239005e-001

1.39474366635040e+004,-1.64764773410271e+001,-1.54788286469816e-001

1.41421356237309e+004,-1.64764774936774e+001,-1.56949049527882e-001

1.43395524801583e+004,-1.64764776506194e+001,-1.59139975675165e-001

1.45397251732031e+004,-1.64764778119736e+001,-1.61361485972265e-001

1.47426921729110e+004,-1.64764779778641e+001,-1.63614007355972e-001

1.49484924863494e+004,-1.64764781484183e+001,-1.65897972723424e-001

1.51571656651040e+004,-1.64764783237675e+001,-1.68213821013875e-001

1.53687518128801e+004,-1.64764785040464e+001,-1.70561997294801e-001

1.55832915932100e+004,-1.64764786893935e+001,-1.72942952846696e-001

1.58008262372675e+004,-1.64764788799515e+001,-1.75357145247894e-001

1.60213975517924e+004,-1.64764790758668e+001,-1.77805038466041e-001

1.62450479271247e+004,-1.64764792772901e+001,-1.80287102944033e-001

1.64718203453514e+004,-1.64764794843761e+001,-1.82803815693746e-001

1.67017583885674e+004,-1.64764796972841e+001,-1.85355660383180e-001

1.69349062472505e+004,-1.64764799161776e+001,-1.87943127435368e-001

1.71713087287550e+004,-1.64764801412252e+001,-1.90566714115123e-001

1.74110112659224e+004,-1.64764803725997e+001,-1.93226924631402e-001

1.76540599258131e+004,-1.64764806104789e+001,-1.95924270232131e-001

1.79005014185594e+004,-1.64764808550460e+001,-1.98659269299025e-001

1.81503831063432e+004,-1.64764811064886e+001,-2.01432447453578e-001

1.84037530124975e+004,-1.64764813650002e+001,-2.04244337651669e-001

1.86606598307361e+004,-1.64764816307796e+001,-2.07095480290028e-001

1.89211529345119e+004,-1.64764819040310e+001,-2.09986423308819e-001

1.91852823865052e+004,-1.64764821849645e+001,-2.12917722296751e-001

1.94530989482457e+004,-1.64764824737962e+001,-2.15889940598117e-001

1.97246540898671e+004,-1.64764827707480e+001,-2.18903649421375e-001

1.99999999999999e+004,-1.64764830760482e+001,-2.21959427948595e-001

2.02791895958005e+004,-1.64764833899314e+001,-2.25057863447133e-001

2.05622765331213e+004,-1.64764837126392e+001,-2.28199551379747e-001

2.08493152168224e+004,-1.64764840444195e+001,-2.31385095524565e-001

2.11403608112276e+004,-1.64764843855273e+001,-2.34615108086599e-001

2.14354692507258e+004,-1.64764847362250e+001,-2.37890209815569e-001

2.17346972505211e+004,-1.64764850967821e+001,-2.41211030128521e-001

2.20381023175322e+004,-1.64764854674757e+001,-2.44578207226735e-001

2.23457427614443e+004,-1.64764858485911e+001,-2.47992388220734e-001

2.26576777059159e+004,-1.64764862404209e+001,-2.51454229254998e-001

2.29739670999406e+004,-1.64764866432665e+001,-2.54964395632119e-001

2.32946717293690e+004,-1.64764870574375e+001,-2.58523561942483e-001

2.36198532285905e+004,-1.64764874832525e+001,-2.62132412192253e-001

2.39495740923785e+004,-1.64764879210387e+001,-2.65791639936354e-001

2.42838976879009e+004,-1.64764883711327e+001,-2.69501948410702e-001

2.46228882668982e+004,-1.64764888338805e+001,-2.73264050667914e-001

2.49666109780322e+004,-1.64764893096378e+001,-2.77078669714302e-001

2.53151318794055e+004,-1.64764897987704e+001,-2.80946538647833e-001

2.56685179512580e+004,-1.64764903016544e+001,-2.84868400800352e-001

2.60268371088386e+004,-1.64764908186762e+001,-2.88845009880407e-001

2.63901582154578e+004,-1.64764913502334e+001,-2.92877130116697e-001

2.67585510957221e+004,-1.64764918967347e+001,-2.96965536405696e-001

2.71320865489533e+004,-1.64764924586000e+001,-3.01111014461291e-001

2.75108363627948e+004,-1.64764930362616e+001,-3.05314360963887e-001

2.78948733270080e+004,-1.64764936301633e+001,-3.09576383716083e-001

2.82842712474618e+004,-1.64764942407616e+001,-3.13897901796277e-001

2.86791049603164e+004,-1.64764948685262e+001,-3.18279745714872e-001

2.90794503464061e+004,-1.64764955139395e+001,-3.22722757576890e-001

2.94853843458219e+004,-1.64764961774976e+001,-3.27227791241358e-001

2.98969849726987e+004,-1.64764968597108e+001,-3.31795712486711e-001

3.03143313302078e+004,-1.64764975611035e+001,-3.36427399175127e-001

3.07375036257601e+004,-1.64764982822149e+001,-3.41123741423661e-001

3.11665831864199e+004,-1.64764990235993e+001,-3.45885641775997e-001

3.16016524745350e+004,-1.64764997858267e+001,-3.50714015370887e-001

3.20427951035848e+004,-1.64765005694830e+001,-3.55609790123383e-001

3.24900958542493e+004,-1.64765013751707e+001,-3.60573906900918e-001

3.29436406907028e+004,-1.64765022035092e+001,-3.65607319703276e-001

3.34035167771346e+004,-1.64765030551353e+001,-3.70710995846853e-001

3.38698124945009e+004,-1.64765039307036e+001,-3.75885916151547e-001

3.43426174575100e+004,-1.64765048308872e+001,-3.81133075127721e-001

3.48220225318448e+004,-1.64765057563782e+001,-3.86453481166184e-001

3.53081198516260e+004,-1.64765067078880e+001,-3.91848156735847e-001

3.58010028371187e+004,-1.64765076861481e+001,-3.97318138575874e-001

3.63007662126863e+004,-1.64765086919105e+001,-4.02864477897347e-001

3.68075060249948e+004,-1.64765097259485e+001,-4.08488240584807e-001

3.73213196614721e+004,-1.64765107890569e+001,-4.14190507400359e-001

3.78423058690237e+004,-1.64765118820530e+001,-4.19972374193418e-001

3.83705647730104e+004,-1.64765130057770e+001,-4.25834952107276e-001

3.89061978964912e+004,-1.64765141610929e+001,-4.31779367796442e-001

3.94493081797342e+004,-1.64765153488886e+001,-4.37806763641940e-001

3.99999999999998e+004,-1.64765165700773e+001,-4.43918297969045e-001

4.05583791916010e+004,-1.64765178255980e+001,-4.50115145272051e-001

4.11245530662425e+004,-1.64765191164156e+001,-4.56398496439051e-001

4.16986304336447e+004,-1.64765204435226e+001,-4.62769558980995e-001

4.22807216224550e+004,-1.64765218079390e+001,-4.69229557263553e-001

4.28709385014515e+004,-1.64765232107139e+001,-4.75779732740847e-001

4.34693945010421e+004,-1.64765246529255e+001,-4.82421344197173e-001

4.40762046350642e+004,-1.64765261356825e+001,-4.89155667985731e-001

4.46914855228886e+004,-1.64765276601248e+001,-4.95983998275452e-001

4.53153554118317e+004,-1.64765292274243e+001,-5.02907647298819e-001

4.59479341998812e+004,-1.64765308387858e+001,-5.09927945605025e-001

4.65893434587380e+004,-1.64765324954481e+001,-5.17046242314125e-001

4.72397064571810e+004,-1.64765341986846e+001,-5.24263905377543e-001

4.78991481847569e+004,-1.64765359498048e+001,-5.31582321839568e-001

4.85677953758016e+004,-1.64765377501546e+001,-5.39002898105163e-001

4.92457765337964e+004,-1.64765396011182e+001,-5.46527060208717e-001

4.99332219560642e+004,-1.64765415041184e+001,-5.54156254089199e-001

5.06302637588109e+004,-1.64765434606181e+001,-5.61891945866903e-001

5.13370359025159e+004,-1.64765454721213e+001,-5.69735622126018e-001

5.20536742176771e+004,-1.64765475401743e+001,-5.77688790199413e-001

5.27803164309155e+004,-1.64765496663669e+001,-5.85752978457790e-001

5.35171021914442e+004,-1.64765518523335e+001,-5.93929736604679e-001

5.42641730979066e+004,-1.64765540997544e+001,-6.02220635973101e-001

5.50216727255895e+004,-1.64765564103574e+001,-6.10627269826790e-001

5.57897466540159e+004,-1.64765587859187e+001,-6.19151253667963e-001

5.65685424949235e+004,-1.64765612282643e+001,-6.27794225544972e-001

5.73582099206328e+004,-1.64765637392718e+001,-6.36557846370595e-001

5.81589006928121e+004,-1.64765663208712e+001,-6.45443800237151e-001

5.89707686916437e+004,-1.64765689750474e+001,-6.54453794741413e-001

5.97939699453972e+004,-1.64765717038403e+001,-6.63589561314228e-001

6.06286626604156e+004,-1.64765745093478e+001,-6.72852855550543e-001

6.14750072515201e+004,-1.64765773937264e+001,-6.82245457547523e-001

6.23331663728396e+004,-1.64765803591932e+001,-6.91769172247032e-001

6.32033049490698e+004,-1.64765834080281e+001,-7.01425829779871e-001

6.40855902071694e+004,-1.64765865425744e+001,-7.11217285821337e-001

6.49801917084985e+004,-1.64765897652418e+001,-7.21145421942969e-001

6.58872813814055e+004,-1.64765930785075e+001,-7.31212145976941e-001

6.68070335542691e+004,-1.64765964849183e+001,-7.41419392381271e-001

6.77396249890018e+004,-1.64765999870929e+001,-7.51769122610655e-001

6.86852349150199e+004,-1.64766035877231e+001,-7.62263325495434e-001

6.96440450636895e+004,-1.64766072895768e+001,-7.72904017619520e-001

7.06162397032520e+004,-1.64766110954995e+001,-7.83693243711325e-001

7.16020056742374e+004,-1.64766150084168e+001,-7.94633077034110e-001

7.26015324253724e+004,-1.64766190313364e+001,-8.05725619784257e-001

7.36150120499896e+004,-1.64766231673507e+001,-8.16973003496010e-001

7.46426393229441e+004,-1.64766274196389e+001,-8.28377389448933e-001

7.56846117380472e+004,-1.64766317914695e+001,-8.39940969084444e-001

7.67411295460207e+004,-1.64766362862031e+001,-8.51665964425130e-001

7.78123957929823e+004,-1.64766409072947e+001,-8.63554628501235e-001

7.88986163594682e+004,-1.64766456582961e+001,-8.75609245784921e-001

7.99999999999995e+004,-1.64766505428595e+001,-8.87832132625956e-001

8.11167583832018e+004,-1.64766555647391e+001,-9.00225637699026e-001

8.22491061324848e+004,-1.64766607277953e+001,-9.12792142451776e-001

8.33972608672892e+004,-1.64766660359964e+001,-9.25534061564382e-001

8.45614432449099e+004,-1.64766714934226e+001,-9.38453843411044e-001

8.57418770029029e+004,-1.64766771042687e+001,-9.51553970530661e-001

8.69387890020841e+004,-1.64766828728474e+001,-9.64836960102474e-001

8.81524092701283e+004,-1.64766888035927e+001,-9.78305364430226e-001

8.93829710457770e+004,-1.64766949010630e+001,-9.91961771431212e-001

9.06307108236633e+004,-1.64767011699450e+001,-1.00580880513186e+000

9.18958683997622e+004,-1.64767076150570e+001,-1.01984912617297e+000

9.31786869174758e+004,-1.64767142413530e+001,-1.03408543231796e+000

9.44794129143618e+004,-1.64767210539258e+001,-1.04852045897298e+000

9.57982963695136e+004,-1.64767280580118e+001,-1.06315697970890e+000

9.71355907516031e+004,-1.64767352589942e+001,-1.07799780679524e+000

9.84915530675926e+004,-1.64767426624078e+001,-1.09304579173815e+000

9.98664439121282e+004,-1.64767502739426e+001,-1.10830382582870e+000

1.01260527517622e+005,-1.64767580994488e+001,-1.12377484069620e+000

1.02674071805032e+005,-1.64767661449410e+001,-1.13946180887035e+000

1.04107348435354e+005,-1.64767744166028e+001,-1.15536774435258e+000

1.05560632861831e+005,-1.64767829207913e+001,-1.17149570319211e+000

1.07034204382888e+005,-1.64767916640427e+001,-1.18784878407284e+000

1.08528346195813e+005,-1.64768006530767e+001,-1.20443012890712e+000

1.10043345451179e+005,-1.64768098948018e+001,-1.22124292343861e+000

1.11579493308032e+005,-1.64768193963207e+001,-1.23829039785239e+000

1.13137084989847e+005,-1.64768291649356e+001,-1.25557582739383e+000

1.14716419841265e+005,-1.64768392081542e+001,-1.27310253299637e+000

1.16317801385624e+005,-1.64768495336948e+001,-1.29087388191880e+000

1.17941537383287e+005,-1.64768601494927e+001,-1.30889328838969e+000

1.19587939890794e+005,-1.64768710637065e+001,-1.32716421426149e+000

1.21257325320831e+005,-1.64768822847236e+001,-1.34569016967410e+000

1.22950014503040e+005,-1.64768938211675e+001,-1.36447471372734e+000

1.24666332745679e+005,-1.64769056819037e+001,-1.38352145516240e+000

1.26406609898139e+005,-1.64769178760469e+001,-1.40283405305364e+000

1.28171180414339e+005,-1.64769304129681e+001,-1.42241621750880e+000

1.29960383416997e+005,-1.64769433023014e+001,-1.44227171037961e+000

1.31774562762811e+005,-1.64769565539517e+001,-1.46240434598185e+000

1.33614067108538e+005,-1.64769701781023e+001,-1.48281799182646e+000

1.35479249978003e+005,-1.64769841852222e+001,-1.50351656935940e+000

1.37370469830040e+005,-1.64769985860751e+001,-1.52450405471210e+000

1.39288090127379e+005,-1.64770133917268e+001,-1.54578447946253e+000

1.41232479406504e+005,-1.64770286135540e+001,-1.56736193140752e+000

1.43204011348474e+005,-1.64770442632533e+001,-1.58924055534366e+000

1.45203064850745e+005,-1.64770603528496e+001,-1.61142455386117e+000

1.47230024099979e+005,-1.64770768947057e+001,-1.63391818814863e+000

1.49285278645888e+005,-1.64770939015320e+001,-1.65672577880570e+000

1.51369223476094e+005,-1.64771113863955e+001,-1.67985170667238e+000

1.53482259092041e+005,-1.64771293627308e+001,-1.70330041366381e+000

1.55624791585964e+005,-1.64771478443494e+001,-1.72707640362249e+000

1.57797232718936e+005,-1.64771668454512e+001,-1.75118424317711e+000

1.59999999999999e+005,-1.64771863806348e+001,-1.77562856261612e+000

1.62233516766403e+005,-1.64772064649088e+001,-1.80041405677291e+000

1.64498212264969e+005,-1.64772271137036e+001,-1.82554548592310e+000

1.66794521734578e+005,-1.64772483428829e+001,-1.85102767669312e+000

1.69122886489819e+005,-1.64772701687560e+001,-1.87686552298298e+000

1.71483754005805e+005,-1.64772926080903e+001,-1.90306398690110e+000

1.73877578004168e+005,-1.64773156781241e+001,-1.92962809971107e+000

1.76304818540256e+005,-1.64773393965797e+001,-1.95656296279331e+000

1.78765942091554e+005,-1.64773637816776e+001,-1.98387374861719e+000

1.81261421647326e+005,-1.64773888521496e+001,-2.01156570173036e+000

1.83791736799524e+005,-1.64774146272537e+001,-2.03964413975800e+000

1.86357373834951e+005,-1.64774411267886e+001,-2.06811445441758e+000

1.88958825828723e+005,-1.64774683711093e+001,-2.09698211254732e+000

1.91596592739027e+005,-1.64774963811419e+001,-2.12625265714925e+000

1.94271181503206e+005,-1.64775251784007e+001,-2.15593170844483e+000

1.96983106135185e+005,-1.64775547850035e+001,-2.18602496494771e+000

1.99732887824256e+005,-1.64775852236895e+001,-2.21653820454835e+000

2.02521055035243e+005,-1.64776165178363e+001,-2.24747728561549e+000

2.05348143610063e+005,-1.64776486914777e+001,-2.27884814811189e+000

2.08214696870707e+005,-1.64776817693225e+001,-2.31065681472548e+000

2.11121265723661e+005,-1.64777157767729e+001,-2.34290939201601e+000

2.14068408765776e+005,-1.64777507399444e+001,-2.37561207157716e+000

2.17056692391625e+005,-1.64777866856856e+001,-2.40877113121497e+000

2.20086690902357e+005,-1.64778236415986e+001,-2.44239293614137e+000

2.23158986616063e+005,-1.64778616360604e+001,-2.47648394018551e+000

2.26274169979693e+005,-1.64779006982445e+001,-2.51105068701964e+000

2.29432839682530e+005,-1.64779408581431e+001,-2.54609981140381e+000

2.32635602771247e+005,-1.64779821465901e+001,-2.58163804044570e+000

2.35883074766574e+005,-1.64780245952851e+001,-2.61767219487864e+000

2.39175879781588e+005,-1.64780682368167e+001,-2.65420919035635e+000

2.42514650641661e+005,-1.64781131046885e+001,-2.69125603876620e+000

2.45900029006080e+005,-1.64781592333438e+001,-2.72881984955863e+000

2.49332665491357e+005,-1.64782066581926e+001,-2.76690783109607e+000

2.52813219796278e+005,-1.64782554156382e+001,-2.80552729202028e+000

2.56342360828676e+005,-1.64783055431052e+001,-2.84468564263631e+000

2.59920766833993e+005,-1.64783570790684e+001,-2.88439039631698e+000

2.63549125525621e+005,-1.64784100630813e+001,-2.92464917092573e+000

2.67228134217075e+005,-1.64784645358074e+001,-2.96546969025885e+000

2.70958499956006e+005,-1.64785205390506e+001,-3.00685978550581e+000

2.74740939660078e+005,-1.64785781157870e+001,-3.04882739673208e+000

2.78576180254757e+005,-1.64786373101983e+001,-3.09138057437864e+000

2.82464958813007e+005,-1.64786981677047e+001,-3.13452748078418e+000

2.86408022696948e+005,-1.64787607350005e+001,-3.17827639172575e+000

2.90406129701488e+005,-1.64788250600890e+001,-3.22263569798189e+000

2.94460048199957e+005,-1.64788911923192e+001,-3.26761390691501e+000

2.98570557291775e+005,-1.64789591824238e+001,-3.31321964407604e+000

3.02738446952187e+005,-1.64790290825574e+001,-3.35946165483070e+000

3.06964518184081e+005,-1.64791009463367e+001,-3.40634880600547e+000

3.11249583171928e+005,-1.64791748288809e+001,-3.45389008755813e+000

3.15594465437872e+005,-1.64792507868541e+001,-3.50209461426895e+000

3.19999999999997e+005,-1.64793288785080e+001,-3.55097162745463e+000

3.24467033532806e+005,-1.64794091637267e+001,-3.60053049670450e+000

3.28996424529938e+005,-1.64794917040720e+001,-3.65078072164118e+000

3.33589043469155e+005,-1.64795765628303e+001,-3.70173193370263e+000

3.38245772979638e+005,-1.64796638050608e+001,-3.75339389794884e+000

3.42967508011610e+005,-1.64797534976447e+001,-3.80577651489271e+000

3.47755156008335e+005,-1.64798457093365e+001,-3.85888982235333e+000

3.52609637080511e+005,-1.64799405108159e+001,-3.91274399733537e+000

3.57531884183106e+005,-1.64800379747416e+001,-3.96734935793206e+000

3.62522843294651e+005,-1.64801381758063e+001,-4.02271636525375e+000

3.67583473599047e+005,-1.64802411907939e+001,-4.07885562538076e+000

3.72714747669902e+005,-1.64803470986371e+001,-4.13577789134221e+000

3.77917651657445e+005,-1.64804559804779e+001,-4.19349406512116e+000

3.83193185478053e+005,-1.64805679197285e+001,-4.25201519968459e+000

3.88542363006410e+005,-1.64806830021352e+001,-4.31135250103994e+000

3.93966212270369e+005,-1.64808013158429e+001,-4.37151733031954e+000

3.99465775648511e+005,-1.64809229514620e+001,-4.43252120588973e+000

4.05042110070485e+005,-1.64810480021368e+001,-4.49437580548901e+000

4.10696287220124e+005,-1.64811765636167e+001,-4.55709296839234e+000

4.16429393741414e+005,-1.64813087343275e+001,-4.62068469760388e+000

4.22242531447321e+005,-1.64814446154468e+001,-4.68516316207738e+000

4.28136817531551e+005,-1.64815843109801e+001,-4.75054069896459e+000

4.34113384783250e+005,-1.64817279278390e+001,-4.81682981589309e+000

4.40173381804713e+005,-1.64818755759226e+001,-4.88404319327169e+000

4.46317973232124e+005,-1.64820273681999e+001,-4.95219368662589e+000

4.52548339959385e+005,-1.64821834207953e+001,-5.02129432896246e+000

4.58865679365059e+005,-1.64823438530759e+001,-5.09135833316298e+000

4.65271205542494e+005,-1.64825087877416e+001,-5.16239909440910e+000

4.71766149533147e+005,-1.64826783509173e+001,-5.23443019263526e+000

4.78351759563174e+005,-1.64828526722481e+001,-5.30746539501430e+000

4.85029301283321e+005,-1.64830318849965e+001,-5.38151865847274e+000

4.91800058012158e+005,-1.64832161261426e+001,-5.45660413223684e+000

4.98665330982714e+005,-1.64834055364872e+001,-5.53273616041089e+000

5.05626439592555e+005,-1.64836002607571e+001,-5.60992928458519e+000

5.12684721657352e+005,-1.64838004477141e+001,-5.68819824647806e+000

5.19841533667984e+005,-1.64840062502661e+001,-5.76755799060789e+000

5.27098251051240e+005,-1.64842178255819e+001,-5.84802366699896e+000

5.34456268434150e+005,-1.64844353352085e+001,-5.92961063391827e+000

5.41916999912011e+005,-1.64846589451926e+001,-6.01233446064624e+000

