Freq.,VOut,OutRef

1.00000000000000e+004,-2.60893796805703e+001,-4.61796465391814e-002

1.01395947979003e+004,-2.60893797097141e+001,-4.68242903214511e-002

1.02811382665607e+004,-2.60893797396769e+001,-4.74779329958583e-002

1.04246576084112e+004,-2.60893797704824e+001,-4.81407001771442e-002

1.05701804056138e+004,-2.60893798021540e+001,-4.88127192409780e-002

1.07177346253629e+004,-2.60893798347158e+001,-4.94941193390454e-002

1.08673486252606e+004,-2.60893798681932e+001,-5.01850314241940e-002

1.10190511587661e+004,-2.60893799026115e+001,-5.08855882814180e-002

1.11728713807222e+004,-2.60893799379978e+001,-5.15959245428997e-002

1.13288388529580e+004,-2.60893799743789e+001,-5.23161767251179e-002

1.14869835499703e+004,-2.60893800117825e+001,-5.30464832521191e-002

1.16473358646846e+004,-2.60893800502379e+001,-5.37869844728304e-002

1.18099266142953e+004,-2.60893800897743e+001,-5.45378227023279e-002

1.19747870461893e+004,-2.60893801304224e+001,-5.52991422380883e-002

1.21419488439505e+004,-2.60893801722132e+001,-5.60710893949528e-002

1.23114441334492e+004,-2.60893802151788e+001,-5.68538125289219e-002

1.24833054890161e+004,-2.60893802593524e+001,-5.76474620647704e-002

1.26575659397028e+004,-2.60893803047679e+001,-5.84521905309483e-002

1.28342589756290e+004,-2.60893803514602e+001,-5.92681525832246e-002

1.30134185544193e+004,-2.60893803994652e+001,-6.00955050366458e-002

1.31950791077289e+004,-2.60893804488198e+001,-6.09344068939423e-002

1.33792755478611e+004,-2.60893804995618e+001,-6.17850193800114e-002

1.35660432744767e+004,-2.60893805517305e+001,-6.26475059677955e-002

1.37554181813974e+004,-2.60893806053660e+001,-6.35220324126132e-002

1.39474366635040e+004,-2.60893806605092e+001,-6.44087667865614e-002

1.41421356237309e+004,-2.60893807172028e+001,-6.53078795036176e-002

1.43395524801583e+004,-2.60893807754902e+001,-6.62195433602291e-002

1.45397251732031e+004,-2.60893808354162e+001,-6.71439335637147e-002

1.47426921729110e+004,-2.60893808970270e+001,-6.80812277649289e-002

1.49484924863494e+004,-2.60893809603699e+001,-6.90316060988026e-002

1.51571656651040e+004,-2.60893810254937e+001,-6.99952512108615e-002

1.53687518128801e+004,-2.60893810924484e+001,-7.09723482990226e-002

1.55832915932100e+004,-2.60893811612855e+001,-7.19630851456424e-002

1.58008262372675e+004,-2.60893812320576e+001,-7.29676521551103e-002

1.60213975517924e+004,-2.60893813048197e+001,-7.39862423862748e-002

1.62450479271247e+004,-2.60893813796272e+001,-7.50190515981918e-002

1.64718203453514e+004,-2.60893814565378e+001,-7.60662782796825e-002

1.67017583885674e+004,-2.60893815356108e+001,-7.71281236887558e-002

1.69349062472505e+004,-2.60893816169067e+001,-7.82047918977499e-002

1.71713087287550e+004,-2.60893817004881e+001,-7.92964898222210e-002

1.74110112659224e+004,-2.60893817864196e+001,-8.04034272687689e-002

1.76540599258131e+004,-2.60893818747666e+001,-8.15258169752331e-002

1.79005014185594e+004,-2.60893819655977e+001,-8.26638746429288e-002

1.81503831063432e+004,-2.60893820589822e+001,-8.38178189907563e-002

1.84037530124975e+004,-2.60893821549921e+001,-8.49878717872330e-002

1.86606598307361e+004,-2.60893822537013e+001,-8.61742578965582e-002

1.89211529345119e+004,-2.60893823551854e+001,-8.73772053244511e-002

1.91852823865052e+004,-2.60893824595228e+001,-8.85969452545166e-002

1.94530989482457e+004,-2.60893825667934e+001,-8.98337121034190e-002

1.97246540898671e+004,-2.60893826770799e+001,-9.10877435557422e-002

1.99999999999999e+004,-2.60893827904669e+001,-9.23592806172105e-002

2.02791895958005e+004,-2.60893829070416e+001,-9.36485676547475e-002

2.05622765331213e+004,-2.60893830268939e+001,-9.49558524475309e-002

2.08493152168224e+004,-2.60893831501154e+001,-9.62813862367924e-002

2.11403608112276e+004,-2.60893832768012e+001,-9.76254237661992e-002

2.14354692507258e+004,-2.60893834070486e+001,-9.89882233367304e-002

2.17346972505211e+004,-2.60893835409578e+001,-1.00370046856933e-001

2.20381023175322e+004,-2.60893836786317e+001,-1.01771159889589e-001

2.23457427614443e+004,-2.60893838201762e+001,-1.03191831705296e-001

2.26576777059159e+004,-2.60893839657001e+001,-1.04632335333309e-001

2.29739670999406e+004,-2.60893841153151e+001,-1.06092947615266e-001

2.32946717293690e+004,-2.60893842691364e+001,-1.07573949255447e-001

2.36198532285905e+004,-2.60893844272821e+001,-1.09075624877559e-001

2.39495740923785e+004,-2.60893845898740e+001,-1.10598263078323e-001

2.42838976879009e+004,-2.60893847570369e+001,-1.12142156483471e-001

2.46228882668982e+004,-2.60893849288993e+001,-1.13707601803181e-001

2.49666109780322e+004,-2.60893851055936e+001,-1.15294899888281e-001

2.53151318794055e+004,-2.60893852872553e+001,-1.16904355792310e-001

2.56685179512580e+004,-2.60893854740242e+001,-1.18536278823975e-001

2.60268371088386e+004,-2.60893856660440e+001,-1.20190982610858e-001

2.63901582154578e+004,-2.60893858634622e+001,-1.21868785159551e-001

2.67585510957221e+004,-2.60893860664304e+001,-1.23570008915539e-001

2.71320865489533e+004,-2.60893862751050e+001,-1.25294980823084e-001

2.75108363627948e+004,-2.60893864896461e+001,-1.27044032392916e-001

2.78948733270080e+004,-2.60893867102188e+001,-1.28817499762737e-001

2.82842712474618e+004,-2.60893869369926e+001,-1.30615723762882e-001

2.86791049603164e+004,-2.60893871701420e+001,-1.32439049978899e-001

2.90794503464061e+004,-2.60893874098460e+001,-1.34287828823929e-001

2.94853843458219e+004,-2.60893876562889e+001,-1.36162415600807e-001

2.98969849726987e+004,-2.60893879096604e+001,-1.38063170571923e-001

3.03143313302078e+004,-2.60893881701551e+001,-1.39990459028678e-001

3.07375036257601e+004,-2.60893884379732e+001,-1.41944651363567e-001

3.11665831864199e+004,-2.60893887133208e+001,-1.43926123135799e-001

3.16016524745350e+004,-2.60893889964093e+001,-1.45935255151216e-001

3.20427951035848e+004,-2.60893892874567e+001,-1.47972433527254e-001

3.24900958542493e+004,-2.60893895866864e+001,-1.50038049774791e-001

3.29436406907028e+004,-2.60893898943285e+001,-1.52132500868415e-001

3.34035167771346e+004,-2.60893902106197e+001,-1.54256189322740e-001

3.38698124945009e+004,-2.60893905358029e+001,-1.56409523273685e-001

3.43426174575100e+004,-2.60893908701284e+001,-1.58592916552297e-001

3.48220225318448e+004,-2.60893912138530e+001,-1.60806788767305e-001

3.53081198516260e+004,-2.60893915672408e+001,-1.63051565385987e-001

3.58010028371187e+004,-2.60893919305639e+001,-1.65327677811602e-001

3.63007662126863e+004,-2.60893923041013e+001,-1.67635563471574e-001

3.68075060249948e+004,-2.60893926881402e+001,-1.69975665900091e-001

3.73213196614721e+004,-2.60893930829758e+001,-1.72348434821103e-001

3.78423058690237e+004,-2.60893934889118e+001,-1.74754326236226e-001

3.83705647730104e+004,-2.60893939062602e+001,-1.77193802513159e-001

3.89061978964912e+004,-2.60893943353418e+001,-1.79667332473753e-001

3.94493081797342e+004,-2.60893947764865e+001,-1.82175391483565e-001

3.99999999999998e+004,-2.60893952300335e+001,-1.84718461544221e-001

4.05583791916010e+004,-2.60893956963313e+001,-1.87297031385465e-001

4.11245530662425e+004,-2.60893961757384e+001,-1.89911596560437e-001

4.16986304336447e+004,-2.60893966686235e+001,-1.92562659536939e-001

4.22807216224550e+004,-2.60893971753654e+001,-1.95250729798783e-001

4.28709385014515e+004,-2.60893976963537e+001,-1.97976323940290e-001

4.34693945010421e+004,-2.60893982319890e+001,-2.00739965768616e-001

4.40762046350642e+004,-2.60893987826829e+001,-2.03542186400459e-001

4.46914855228886e+004,-2.60893993488589e+001,-2.06383524368542e-001

4.53153554118317e+004,-2.60893999309523e+001,-2.09264525720853e-001

4.59479341998812e+004,-2.60894005294103e+001,-2.12185744129722e-001

4.65893434587380e+004,-2.60894011446932e+001,-2.15147740993791e-001

4.72397064571810e+004,-2.60894017772741e+001,-2.18151085548420e-001

4.78991481847569e+004,-2.60894024276390e+001,-2.21196354977704e-001

4.85677953758016e+004,-2.60894030962883e+001,-2.24284134517954e-001

4.92457765337964e+004,-2.60894037837356e+001,-2.27415017578317e-001

4.99332219560642e+004,-2.60894044905096e+001,-2.30589605850210e-001

5.06302637588109e+004,-2.60894052171537e+001,-2.33808509421590e-001

5.13370359025159e+004,-2.60894059642263e+001,-2.37072346900267e-001

5.20536742176771e+004,-2.60894067323019e+001,-2.40381745525395e-001

5.27803164309155e+004,-2.60894075219711e+001,-2.43737341293082e-001

5.35171021914442e+004,-2.60894083338406e+001,-2.47139779078059e-001

5.42641730979066e+004,-2.60894091685347e+001,-2.50589712755276e-001

5.50216727255895e+004,-2.60894100266951e+001,-2.54087805326277e-001

5.57897466540159e+004,-2.60894109089816e+001,-2.57634729047447e-001

5.65685424949235e+004,-2.60894118160723e+001,-2.61231165560604e-001

5.73582099206328e+004,-2.60894127486647e+001,-2.64877806019520e-001

5.81589006928121e+004,-2.60894137074756e+001,-2.68575351227601e-001

5.89707686916437e+004,-2.60894146932422e+001,-2.72324511768432e-001

5.97939699453972e+004,-2.60894157067222e+001,-2.76126008146125e-001

6.06286626604156e+004,-2.60894167486948e+001,-2.79980570919533e-001

6.14750072515201e+004,-2.60894178199609e+001,-2.83888940847059e-001

6.23331663728396e+004,-2.60894189213443e+001,-2.87851869025041e-001

6.32033049490698e+004,-2.60894200536915e+001,-2.91870117034506e-001

6.40855902071694e+004,-2.60894212178730e+001,-2.95944457087203e-001

6.49801917084985e+004,-2.60894224147838e+001,-3.00075672172618e-001

6.58872813814055e+004,-2.60894236453440e+001,-3.04264556210253e-001

6.68070335542691e+004,-2.60894249104997e+001,-3.08511914199948e-001

6.77396249890018e+004,-2.60894262112235e+001,-3.12818562378176e-001

6.86852349150199e+004,-2.60894275485151e+001,-3.17185328375302e-001

6.96440450636895e+004,-2.60894289234028e+001,-3.21613051372627e-001

7.06162397032520e+004,-2.60894303369434e+001,-3.26102582265004e-001

7.16020056742374e+004,-2.60894317902236e+001,-3.30654783824232e-001

7.26015324253724e+004,-2.60894332843607e+001,-3.35270530862968e-001

7.36150120499896e+004,-2.60894348205031e+001,-3.39950710407133e-001

7.46426393229441e+004,-2.60894363998319e+001,-3.44696221860467e-001

7.56846117380472e+004,-2.60894380235611e+001,-3.49507977182397e-001

7.67411295460207e+004,-2.60894396929390e+001,-3.54386901059809e-001

7.78123957929823e+004,-2.60894414092488e+001,-3.59333931086868e-001

7.88986163594682e+004,-2.60894431738102e+001,-3.64350017942977e-001

7.99999999999995e+004,-2.60894449879794e+001,-3.69436125577380e-001

8.11167583832018e+004,-2.60894468531512e+001,-3.74593231394183e-001

8.22491061324848e+004,-2.60894487707592e+001,-3.79822326438557e-001

8.33972608672892e+004,-2.60894507422778e+001,-3.85124415587208e-001

8.45614432449099e+004,-2.60894527692225e+001,-3.90500517743462e-001

8.57418770029029e+004,-2.60894548531516e+001,-3.95951666030437e-001

8.69387890020841e+004,-2.60894569956667e+001,-4.01478907992585e-001

8.81524092701283e+004,-2.60894591984153e+001,-4.07083305791850e-001

8.93829710457770e+004,-2.60894614630905e+001,-4.12765936416793e-001

9.06307108236633e+004,-2.60894637914334e+001,-4.18527891887190e-001

9.18958683997622e+004,-2.60894661852337e+001,-4.24370279462742e-001

9.31786869174758e+004,-2.60894686463315e+001,-4.30294221858784e-001

9.44794129143618e+004,-2.60894711766190e+001,-4.36300857457442e-001

9.57982963695136e+004,-2.60894737780412e+001,-4.42391340530341e-001

9.71355907516031e+004,-2.60894764525978e+001,-4.48566841459115e-001

9.84915530675926e+004,-2.60894792023449e+001,-4.54828546957338e-001

9.98664439121282e+004,-2.60894820293963e+001,-4.61177660303089e-001

1.01260527517622e+005,-2.60894849359253e+001,-4.67615401566254e-001

1.02674071805032e+005,-2.60894879241660e+001,-4.74143007844263e-001

1.04107348435354e+005,-2.60894909964157e+001,-4.80761733500447e-001

1.05560632861831e+005,-2.60894941550360e+001,-4.87472850402304e-001

1.07034204382888e+005,-2.60894974024551e+001,-4.94277648168284e-001

1.08528346195813e+005,-2.60895007411693e+001,-5.01177434413720e-001

1.10043345451179e+005,-2.60895041737452e+001,-5.08173535002739e-001

1.11579493308032e+005,-2.60895077028213e+001,-5.15267294303823e-001

1.13137084989847e+005,-2.60895113311106e+001,-5.22460075443595e-001

1.14716419841265e+005,-2.60895150614022e+001,-5.29753260574485e-001

1.16317801385624e+005,-2.60895188965635e+001,-5.37148251135033e-001

1.17941537383287e+005,-2.60895228395426e+001,-5.44646468121725e-001

1.19587939890794e+005,-2.60895268933708e+001,-5.52249352360054e-001

1.21257325320831e+005,-2.60895310611638e+001,-5.59958364783651e-001

1.22950014503040e+005,-2.60895353461259e+001,-5.67774986709862e-001

1.24666332745679e+005,-2.60895397515507e+001,-5.75700720130280e-001

1.26406609898139e+005,-2.60895442808245e+001,-5.83737087993938e-001

1.28171180414339e+005,-2.60895489374292e+001,-5.91885634501196e-001

1.29960383416997e+005,-2.60895537249443e+001,-6.00147925401004e-001

1.31774562762811e+005,-2.60895586470496e+001,-6.08525548290649e-001

1.33614067108538e+005,-2.60895637075291e+001,-6.17020112919105e-001

1.35479249978003e+005,-2.60895689102724e+001,-6.25633251498739e-001

1.37370469830040e+005,-2.60895742592789e+001,-6.34366619015655e-001

1.39288090127379e+005,-2.60895797586603e+001,-6.43221893548712e-001

1.41232479406504e+005,-2.60895854126438e+001,-6.52200776590882e-001

1.43204011348474e+005,-2.60895912255756e+001,-6.61304993375619e-001

1.45203064850745e+005,-2.60895972019237e+001,-6.70536293208929e-001

1.47230024099979e+005,-2.60896033462823e+001,-6.79896449802443e-001

1.49285278645888e+005,-2.60896096633741e+001,-6.89387261617209e-001

1.51369223476094e+005,-2.60896161580549e+001,-6.99010552204321e-001

1.53482259092041e+005,-2.60896228353170e+001,-7.08768170558346e-001

1.55624791585964e+005,-2.60896297002928e+001,-7.18661991470020e-001

1.57797232718936e+005,-2.60896367582593e+001,-7.28693915885262e-001

1.59999999999999e+005,-2.60896440146413e+001,-7.38865871272350e-001

1.62233516766403e+005,-2.60896514750167e+001,-7.49179811987260e-001

1.64498212264969e+005,-2.60896591451199e+001,-7.59637719652574e-001

1.66794521734578e+005,-2.60896670308462e+001,-7.70241603534675e-001

1.69122886489819e+005,-2.60896751382571e+001,-7.80993500929628e-001

1.71483754005805e+005,-2.60896834735842e+001,-7.91895477554592e-001

1.73877578004168e+005,-2.60896920432342e+001,-8.02949627941210e-001

1.76304818540256e+005,-2.60897008537941e+001,-8.14158075840537e-001

1.78765942091554e+005,-2.60897099120357e+001,-8.25522974626985e-001

1.81261421647326e+005,-2.60897192249215e+001,-8.37046507712228e-001

1.83791736799524e+005,-2.60897287996095e+001,-8.48730888964026e-001

1.86357373834951e+005,-2.60897386434588e+001,-8.60578363129067e-001

1.88958825828723e+005,-2.60897487640354e+001,-8.72591206264190e-001

1.91596592739027e+005,-2.60897591691181e+001,-8.84771726170842e-001

1.94271181503206e+005,-2.60897698667041e+001,-8.97122262839699e-001

1.96983106135185e+005,-2.60897808650156e+001,-9.09645188895151e-001

1.99732887824256e+005,-2.60897921725055e+001,-9.22342910053816e-001

2.02521055035243e+005,-2.60898037978648e+001,-9.35217865580744e-001

2.05348143610063e+005,-2.60898157500281e+001,-9.48272528760395e-001

2.08214696870707e+005,-2.60898280381818e+001,-9.61509407367285e-001

2.11121265723661e+005,-2.60898406717698e+001,-9.74931044147771e-001

2.14068408765776e+005,-2.60898536605020e+001,-9.88540017305359e-001

2.17056692391625e+005,-2.60898670143608e+001,-1.00233894099493e+000

2.20086690902357e+005,-2.60898807436090e+001,-1.01633046582362e+000

2.23158986616063e+005,-2.60898948587985e+001,-1.03051727935499e+000

2.26274169979693e+005,-2.60899093707769e+001,-1.04490210662712e+000

2.29432839682530e+005,-2.60899242906971e+001,-1.05948771067071e+000

2.32635602771247e+005,-2.60899396300254e+001,-1.07427689303879e+000

2.35883074766574e+005,-2.60899554005501e+001,-1.08927249434346e+000

2.39175879781588e+005,-2.60899716143910e+001,-1.10447739479573e+000

2.42514650641661e+005,-2.60899882840083e+001,-1.11989451475939e+000

2.45900029006080e+005,-2.60900054222125e+001,-1.13552681530822e+000

2.49332665491357e+005,-2.60900230421736e+001,-1.15137729879098e+000

2.52813219796278e+005,-2.60900411574325e+001,-1.16744900940562e+000

2.56342360828676e+005,-2.60900597819098e+001,-1.18374503378098e+000

2.59920766833993e+005,-2.60900789299176e+001,-1.20026850156679e+000

2.63549125525621e+005,-2.60900986161701e+001,-1.21702258603005e+000

2.67228134217075e+005,-2.60901188557949e+001,-1.23401050466260e+000

2.70958499956006e+005,-2.60901396643447e+001,-1.25123551979345e+000

2.74740939660078e+005,-2.60901610578089e+001,-1.26870093921368e+000

2.78576180254757e+005,-2.60901830526267e+001,-1.28641011680500e+000

2.82464958813007e+005,-2.60902056656986e+001,-1.30436645318264e+000

2.86408022696948e+005,-2.60902289144002e+001,-1.32257339634202e+000

2.90406129701488e+005,-2.60902528165952e+001,-1.34103444231576e+000

2.94460048199957e+005,-2.60902773906491e+001,-1.35975313584328e+000

2.98570557291775e+005,-2.60903026554435e+001,-1.37873307104306e+000

3.02738446952187e+005,-2.60903286303902e+001,-1.39797789209994e+000

3.06964518184081e+005,-2.60903553354466e+001,-1.41749129395909e+000

3.11249583171928e+005,-2.60903827911304e+001,-1.43727702302850e+000

3.15594465437872e+005,-2.60904110185361e+001,-1.45733887789438e+000

3.19999999999997e+005,-2.60904400393503e+001,-1.47768071004328e+000

3.24467033532806e+005,-2.60904698758689e+001,-1.49830642459586e+000

3.28996424529938e+005,-2.60905005510143e+001,-1.51921998104924e+000

3.33589043469155e+005,-2.60905320883525e+001,-1.54042539403095e+000

3.38245772979638e+005,-2.60905645121113e+001,-1.56192673406227e+000

3.42967508011610e+005,-2.60905978471994e+001,-1.58372812833198e+000

3.47755156008335e+005,-2.60906321192247e+001,-1.60583376148128e+000

3.52609637080511e+005,-2.60906673545144e+001,-1.62824787639886e+000

3.57531884183106e+005,-2.60907035801352e+001,-1.65097477502632e+000

3.62522843294651e+005,-2.60907408239138e+001,-1.67401881917565e+000

3.67583473599047e+005,-2.60907791144583e+001,-1.69738443135756e+000

3.72714747669902e+005,-2.60908184811803e+001,-1.72107609561947e+000

3.77917651657445e+005,-2.60908589543173e+001,-1.74509835839750e+000

3.83193185478053e+005,-2.60909005649558e+001,-1.76945582937759e+000

3.88542363006410e+005,-2.60909433450551e+001,-1.79415318237027e+000

3.93966212270369e+005,-2.60909873274719e+001,-1.81919515619549e+000

3.99465775648511e+005,-2.60910325459856e+001,-1.84458655557954e+000

4.05042110070485e+005,-2.60910790353237e+001,-1.87033225206729e+000

4.10696287220124e+005,-2.60911268311889e+001,-1.89643718494069e+000

4.16429393741414e+005,-2.60911759702860e+001,-1.92290636215622e+000

4.22242531447321e+005,-2.60912264903504e+001,-1.94974486128937e+000

4.28136817531551e+005,-2.60912784301767e+001,-1.97695783049610e+000

4.34113384783250e+005,-2.60913318296484e+001,-2.00455048948386e+000

4.40173381804713e+005,-2.60913867297686e+001,-2.03252813049864e+000

4.46317973232124e+005,-2.60914431726912e+001,-2.06089611932225e+000

4.52548339959385e+005,-2.60915012017532e+001,-2.08965989628518e+000

4.58865679365059e+005,-2.60915608615080e+001,-2.11882497729234e+000

4.65271205542494e+005,-2.60916221977591e+001,-2.14839695486219e+000

4.71766149533147e+005,-2.60916852575956e+001,-2.17838149917937e+000

4.78351759563174e+005,-2.60917500894276e+001,-2.20878435916265e+000

4.85029301283321e+005,-2.60918167430241e+001,-2.23961136354568e+000

4.91800058012158e+005,-2.60918852695501e+001,-2.27086842197283e+000

4.98665330982714e+005,-2.60919557216061e+001,-2.30256152610954e+000

5.05626439592555e+005,-2.60920281532685e+001,-2.33469675076680e+000

5.12684721657352e+005,-2.60921026201307e+001,-2.36728025504119e+000

5.19841533667984e+005,-2.60921791793453e+001,-2.40031828346970e+000

5.27098251051240e+005,-2.60922578896683e+001,-2.43381716719891e+000

5.34456268434150e+005,-2.60923388115034e+001,-2.46778332517118e+000

5.41916999912011e+005,-2.60924220069488e+001,-2.50222326532494e+000

