Freq.,VOut,OutRef

1.00000000000000e+004,-1.78153693126820e+001,-1.24744008971651e-001

1.01395947979003e+004,-1.78153694404181e+001,-1.26485369798602e-001

1.02811382665607e+004,-1.78153695717452e+001,-1.28251039089837e-001

1.04246576084112e+004,-1.78153697067643e+001,-1.30041356178062e-001

1.05701804056138e+004,-1.78153698455794e+001,-1.31856665131004e-001

1.07177346253629e+004,-1.78153699882971e+001,-1.33697314822182e-001

1.08673486252606e+004,-1.78153701350271e+001,-1.35563658993040e-001

1.10190511587661e+004,-1.78153702858823e+001,-1.37456056323518e-001

1.11728713807222e+004,-1.78153704409787e+001,-1.39374870500618e-001

1.13288388529580e+004,-1.78153706004354e+001,-1.41320470289515e-001

1.14869835499703e+004,-1.78153707643748e+001,-1.43293229601980e-001

1.16473358646846e+004,-1.78153709329234e+001,-1.45293527567517e-001

1.18099266142953e+004,-1.78153711062104e+001,-1.47321748610928e-001

1.19747870461893e+004,-1.78153712843692e+001,-1.49378282521605e-001

1.21419488439505e+004,-1.78153714675368e+001,-1.51463524530597e-001

1.23114441334492e+004,-1.78153716558539e+001,-1.53577875386252e-001

1.24833054890161e+004,-1.78153718494652e+001,-1.55721741431233e-001

1.26575659397028e+004,-1.78153720485198e+001,-1.57895534679125e-001

1.28342589756290e+004,-1.78153722531704e+001,-1.60099672897523e-001

1.30134185544193e+004,-1.78153724635747e+001,-1.62334579682871e-001

1.31950791077289e+004,-1.78153726798940e+001,-1.64600684547512e-001

1.33792755478611e+004,-1.78153729022950e+001,-1.66898422995971e-001

1.35660432744767e+004,-1.78153731309486e+001,-1.69228236614663e-001

1.37554181813974e+004,-1.78153733660304e+001,-1.71590573154473e-001

1.39474366635040e+004,-1.78153736077213e+001,-1.73985886614421e-001

1.41421356237309e+004,-1.78153738562070e+001,-1.76414637334115e-001

1.43395524801583e+004,-1.78153741116786e+001,-1.78877292074869e-001

1.45397251732031e+004,-1.78153743743324e+001,-1.81374324118628e-001

1.47426921729110e+004,-1.78153746443705e+001,-1.83906213348768e-001

1.49484924863494e+004,-1.78153749220003e+001,-1.86473446351788e-001

1.51571656651040e+004,-1.78153752074353e+001,-1.89076516504673e-001

1.53687518128801e+004,-1.78153755008949e+001,-1.91715924071263e-001

1.55832915932100e+004,-1.78153758026048e+001,-1.94392176299111e-001

1.58008262372675e+004,-1.78153761127970e+001,-1.97105787515825e-001

1.60213975517924e+004,-1.78153764317098e+001,-1.99857279230410e-001

1.62450479271247e+004,-1.78153767595883e+001,-2.02647180230132e-001

1.64718203453514e+004,-1.78153770966849e+001,-2.05476026683596e-001

1.67017583885674e+004,-1.78153774432584e+001,-2.08344362244994e-001

1.69349062472505e+004,-1.78153777995754e+001,-2.11252738156046e-001

1.71713087287550e+004,-1.78153781659098e+001,-2.14201713354172e-001

1.74110112659224e+004,-1.78153785425432e+001,-2.17191854579355e-001

1.76540599258131e+004,-1.78153789297652e+001,-2.20223736482064e-001

1.79005014185594e+004,-1.78153793278735e+001,-2.23297941733949e-001

1.81503831063432e+004,-1.78153797371740e+001,-2.26415061142005e-001

1.84037530124975e+004,-1.78153801579816e+001,-2.29575693757806e-001

1.86606598307361e+004,-1.78153805906195e+001,-2.32780446997317e-001

1.89211529345119e+004,-1.78153810354206e+001,-2.36029936754232e-001

1.91852823865052e+004,-1.78153814927266e+001,-2.39324787519639e-001

1.94530989482457e+004,-1.78153819628891e+001,-2.42665632503318e-001

1.97246540898671e+004,-1.78153824462697e+001,-2.46053113750781e-001

1.99999999999999e+004,-1.78153829432400e+001,-2.49487882272441e-001

2.02791895958005e+004,-1.78153834541819e+001,-2.52970598166556e-001

2.05622765331213e+004,-1.78153839794882e+001,-2.56501930743866e-001

2.08493152168224e+004,-1.78153845195628e+001,-2.60082558658317e-001

2.11403608112276e+004,-1.78153850748209e+001,-2.63713170038206e-001

2.14354692507258e+004,-1.78153856456894e+001,-2.67394462615362e-001

2.17346972505211e+004,-1.78153862326071e+001,-2.71127143863922e-001

2.20381023175322e+004,-1.78153868360251e+001,-2.74911931131112e-001

2.23457427614443e+004,-1.78153874564075e+001,-2.78749551778439e-001

2.26576777059159e+004,-1.78153880942311e+001,-2.82640743321113e-001

2.29739670999406e+004,-1.78153887499862e+001,-2.86586253567748e-001

2.32946717293690e+004,-1.78153894241770e+001,-2.90586840766726e-001

2.36198532285905e+004,-1.78153901173217e+001,-2.94643273750211e-001

2.39495740923785e+004,-1.78153908299533e+001,-2.98756332081672e-001

2.42838976879009e+004,-1.78153915626195e+001,-3.02926806207025e-001

2.46228882668982e+004,-1.78153923158836e+001,-3.07155497605615e-001

2.49666109780322e+004,-1.78153930903246e+001,-3.11443218944614e-001

2.53151318794055e+004,-1.78153938865381e+001,-3.15790794234122e-001

2.56685179512580e+004,-1.78153947051360e+001,-3.20199058986584e-001

2.60268371088386e+004,-1.78153955467475e+001,-3.24668860378702e-001

2.63901582154578e+004,-1.78153964120198e+001,-3.29201057409417e-001

2.67585510957221e+004,-1.78153973016181e+001,-3.33796521070277e-001

2.71320865489533e+004,-1.78153982162262e+001,-3.38456134510246e-001

2.75108363627948e+004,-1.78153991565470e+001,-3.43180793205917e-001

2.78948733270080e+004,-1.78154001233036e+001,-3.47971405132594e-001

2.82842712474618e+004,-1.78154011172393e+001,-3.52828890939082e-001

2.86791049603164e+004,-1.78154021391179e+001,-3.57754184127031e-001

2.90794503464061e+004,-1.78154031897253e+001,-3.62748231225492e-001

2.94853843458219e+004,-1.78154042698689e+001,-3.67811991978443e-001

2.98969849726987e+004,-1.78154053803792e+001,-3.72946439523926e-001

3.03143313302078e+004,-1.78154065221098e+001,-3.78152560584621e-001

3.07375036257601e+004,-1.78154076959384e+001,-3.83431355655649e-001

3.11665831864199e+004,-1.78154089027674e+001,-3.88783839197531e-001

3.16016524745350e+004,-1.78154101435247e+001,-3.94211039830030e-001

3.20427951035848e+004,-1.78154114191639e+001,-3.99714000531137e-001

3.24900958542493e+004,-1.78154127306658e+001,-4.05293778837571e-001

3.29436406907028e+004,-1.78154140790385e+001,-4.10951447046121e-001

3.34035167771346e+004,-1.78154154653187e+001,-4.16688092420415e-001

3.38698124945009e+004,-1.78154168905719e+001,-4.22504817401681e-001

3.43426174575100e+004,-1.78154183558939e+001,-4.28402739817525e-001

3.48220225318448e+004,-1.78154198624112e+001,-4.34382993098321e-001

3.53081198516260e+004,-1.78154214112817e+001,-4.40446726495517e-001

3.58010028371187e+004,-1.78154230036962e+001,-4.46595105301062e-001

3.63007662126863e+004,-1.78154246408788e+001,-4.52829311071319e-001

3.68075060249948e+004,-1.78154263240883e+001,-4.59150541854708e-001

3.73213196614721e+004,-1.78154280546183e+001,-4.65560012422515e-001

3.78423058690237e+004,-1.78154298337994e+001,-4.72058954500017e-001

3.83705647730104e+004,-1.78154316629992e+001,-4.78648617005067e-001

3.89061978964912e+004,-1.78154335436237e+001,-4.85330266287790e-001

3.94493081797342e+004,-1.78154354771189e+001,-4.92105186372165e-001

3.99999999999998e+004,-1.78154374649710e+001,-4.98974679204667e-001

4.05583791916010e+004,-1.78154395087081e+001,-5.05940064902989e-001

4.11245530662425e+004,-1.78154416099014e+001,-5.13002682010155e-001

4.16986304336447e+004,-1.78154437701658e+001,-5.20163887752598e-001

4.22807216224550e+004,-1.78154459911624e+001,-5.27425058297618e-001

4.28709385014515e+004,-1.78154482745982e+001,-5.34787589021997e-001

4.34693945010421e+004,-1.78154506222287e+001,-5.42252894776337e-001

4.40762046350642e+004,-1.78154530358586e+001,-5.49822410158643e-001

4.46914855228886e+004,-1.78154555173431e+001,-5.57497589790319e-001

4.53153554118317e+004,-1.78154580685900e+001,-5.65279908592493e-001

4.59479341998812e+004,-1.78154606915604e+001,-5.73170862073674e-001

4.65893434587380e+004,-1.78154633882705e+001,-5.81171966613581e-001

4.72397064571810e+004,-1.78154661607935e+001,-5.89284759755358e-001

4.78991481847569e+004,-1.78154690112605e+001,-5.97510800501618e-001

4.85677953758016e+004,-1.78154719418628e+001,-6.05851669611557e-001

4.92457765337964e+004,-1.78154749548531e+001,-6.14308969907564e-001

4.99332219560642e+004,-1.78154780525476e+001,-6.22884326579933e-001

5.06302637588109e+004,-1.78154812373274e+001,-6.31579387502161e-001

5.13370359025159e+004,-1.78154845116406e+001,-6.40395823544163e-001

5.20536742176771e+004,-1.78154878780045e+001,-6.49335328893840e-001

5.27803164309155e+004,-1.78154913390064e+001,-6.58399621385007e-001

5.35171021914442e+004,-1.78154948973070e+001,-6.67590442823753e-001

5.42641730979066e+004,-1.78154985556415e+001,-6.76909559324146e-001

5.50216727255895e+004,-1.78155023168220e+001,-6.86358761647560e-001

5.57897466540159e+004,-1.78155061837397e+001,-6.95939865546730e-001

5.65685424949235e+004,-1.78155101593671e+001,-7.05654712112665e-001

5.73582099206328e+004,-1.78155142467602e+001,-7.15505168130120e-001

5.81589006928121e+004,-1.78155184490608e+001,-7.25493126435133e-001

5.89707686916437e+004,-1.78155227694992e+001,-7.35620506277235e-001

5.97939699453972e+004,-1.78155272113964e+001,-7.45889253689182e-001

6.06286626604156e+004,-1.78155317781668e+001,-7.56301341860194e-001

6.14750072515201e+004,-1.78155364733208e+001,-7.66858771514545e-001

6.23331663728396e+004,-1.78155413004672e+001,-7.77563571295166e-001

6.32033049490698e+004,-1.78155462633167e+001,-7.88417798153388e-001

6.40855902071694e+004,-1.78155513656840e+001,-7.99423537743079e-001

6.49801917084985e+004,-1.78155566114911e+001,-8.10582904822097e-001

6.58872813814055e+004,-1.78155620047702e+001,-8.21898043656707e-001

6.68070335542691e+004,-1.78155675496667e+001,-8.33371128433612e-001

6.77396249890018e+004,-1.78155732504429e+001,-8.45004363677454e-001

6.86852349150199e+004,-1.78155791114807e+001,-8.56799984672447e-001

6.96440450636895e+004,-1.78155851372849e+001,-8.68760257893507e-001

7.06162397032520e+004,-1.78155913324874e+001,-8.80887481438163e-001

7.16020056742374e+004,-1.78155977018500e+001,-8.93183985469428e-001

7.26015324253724e+004,-1.78156042502683e+001,-9.05652132662993e-001

7.36150120499896e+004,-1.78156109827758e+001,-9.18294318657818e-001

7.46426393229441e+004,-1.78156179045470e+001,-9.31112972519436e-001

7.56846117380472e+004,-1.78156250209021e+001,-9.44110557202422e-001

7.67411295460207e+004,-1.78156323373112e+001,-9.57289570023768e-001

7.78123957929823e+004,-1.78156398593974e+001,-9.70652543143542e-001

7.88986163594682e+004,-1.78156475929423e+001,-9.84202044047208e-001

7.99999999999995e+004,-1.78156555438900e+001,-9.97940676040648e-001

8.11167583832018e+004,-1.78156637183515e+001,-1.01187107874832e+000

8.22491061324848e+004,-1.78156721226097e+001,-1.02599592861837e+000

8.33972608672892e+004,-1.78156807631238e+001,-1.04031793943757e+000

8.45614432449099e+004,-1.78156896465350e+001,-1.05483986284910e+000

8.57418770029029e+004,-1.78156987796707e+001,-1.06956448888303e+000

8.69387890020841e+004,-1.78157081695503e+001,-1.08449464648842e+000

8.81524092701283e+004,-1.78157178233907e+001,-1.09963320407573e+000

8.93829710457770e+004,-1.78157277486112e+001,-1.11498307006860e+000

9.06307108236633e+004,-1.78157379528400e+001,-1.13054719345836e+000

9.18958683997622e+004,-1.78157484439195e+001,-1.14632856437120e+000

9.31786869174758e+004,-1.78157592299125e+001,-1.16233021463940e+000

9.44794129143618e+004,-1.78157703191084e+001,-1.17855521838296e+000

9.57982963695136e+004,-1.78157817200294e+001,-1.19500669259887e+000

9.71355907516031e+004,-1.78157934414375e+001,-1.21168779775707e+000

9.84915530675926e+004,-1.78158054923407e+001,-1.22860173840576e+000

9.98664439121282e+004,-1.78158178820001e+001,-1.24575176378612e+000

1.01260527517622e+005,-1.78158306199371e+001,-1.26314116845289e+000

1.02674071805032e+005,-1.78158437159407e+001,-1.28077329290654e+000

1.04107348435354e+005,-1.78158571800750e+001,-1.29865152423123e+000

1.05560632861831e+005,-1.78158710226866e+001,-1.31677929674514e+000

1.07034204382888e+005,-1.78158852544133e+001,-1.33516009265554e+000

1.08528346195813e+005,-1.78158998861914e+001,-1.35379744272641e+000

1.10043345451179e+005,-1.78159149292646e+001,-1.37269492695381e+000

1.11579493308032e+005,-1.78159303951927e+001,-1.39185617525022e+000

1.13137084989847e+005,-1.78159462958600e+001,-1.41128486814005e+000

1.14716419841265e+005,-1.78159626434849e+001,-1.43098473746245e+000

1.16317801385624e+005,-1.78159794506291e+001,-1.45095956708516e+000

1.17941537383287e+005,-1.78159967302071e+001,-1.47121319362858e+000

1.19587939890794e+005,-1.78160144954964e+001,-1.49174950719900e+000

1.21257325320831e+005,-1.78160327601472e+001,-1.51257245213191e+000

1.22950014503040e+005,-1.78160515381937e+001,-1.53368602774577e+000

1.24666332745679e+005,-1.78160708440639e+001,-1.55509428910737e+000

1.26406609898139e+005,-1.78160906925913e+001,-1.57680134780492e+000

1.28171180414339e+005,-1.78161110990262e+001,-1.59881137273460e+000

1.29960383416997e+005,-1.78161320790471e+001,-1.62112859089689e+000

1.31774562762811e+005,-1.78161536487731e+001,-1.64375728820334e+000

1.33614067108538e+005,-1.78161758247760e+001,-1.66670181029474e+000

1.35479249978003e+005,-1.78161986240932e+001,-1.68996656337091e+000

1.37370469830040e+005,-1.78162220642405e+001,-1.71355601503208e+000

1.39288090127379e+005,-1.78162461632256e+001,-1.73747469513091e+000

1.41232479406504e+005,-1.78162709395624e+001,-1.76172719663669e+000

1.43204011348474e+005,-1.78162964122846e+001,-1.78631817651168e+000

1.45203064850745e+005,-1.78163226009602e+001,-1.81125235659910e+000

1.47230024099979e+005,-1.78163495257071e+001,-1.83653452452354e+000

1.49285278645888e+005,-1.78163772072082e+001,-1.86216953460336e+000

1.51369223476094e+005,-1.78164056667270e+001,-1.88816230877575e+000

1.53482259092041e+005,-1.78164349261244e+001,-1.91451783753492e+000

1.55624791585964e+005,-1.78164650078750e+001,-1.94124118088266e+000

1.57797232718936e+005,-1.78164959350847e+001,-1.96833746929138e+000

1.59999999999999e+005,-1.78165277315080e+001,-1.99581190468123e+000

1.62233516766403e+005,-1.78165604215666e+001,-2.02366976141053e+000

1.64498212264969e+005,-1.78165940303678e+001,-2.05191638727930e+000

1.66794521734578e+005,-1.78166285837238e+001,-2.08055720454645e+000

1.69122886489819e+005,-1.78166641081717e+001,-2.10959771096007e+000

1.71483754005805e+005,-1.78167006309933e+001,-2.13904348080499e+000

1.73877578004168e+005,-1.78167381802367e+001,-2.16890016595976e+000

1.76304818540256e+005,-1.78167767847372e+001,-2.19917349697183e+000

1.78765942091554e+005,-1.78168164741395e+001,-2.22986928414601e+000

1.81261421647326e+005,-1.78168572789204e+001,-2.26099341864753e+000

1.83791736799524e+005,-1.78168992304123e+001,-2.29255187362015e+000

1.86357373834951e+005,-1.78169423608270e+001,-2.32455070531982e+000

1.88958825828723e+005,-1.78169867032804e+001,-2.35699605426270e+000

1.91596592739027e+005,-1.78170322918178e+001,-2.38989414639064e+000

1.94271181503206e+005,-1.78170791614399e+001,-2.42325129425075e+000

1.96983106135185e+005,-1.78171273481296e+001,-2.45707389819075e+000

1.99732887824256e+005,-1.78171768888795e+001,-2.49136844757217e+000

2.02521055035243e+005,-1.78172278217204e+001,-2.52614152199775e+000

2.05348143610063e+005,-1.78172801857499e+001,-2.56139979255789e+000

2.08214696870707e+005,-1.78173340211627e+001,-2.59715002309091e+000

2.11121265723661e+005,-1.78173893692813e+001,-2.63339907146285e+000

2.14068408765776e+005,-1.78174462725870e+001,-2.67015389086314e+000

2.17056692391625e+005,-1.78175047747533e+001,-2.70742153111776e+000

2.20086690902357e+005,-1.78175649206783e+001,-2.74520914002045e+000

2.23158986616063e+005,-1.78176267565197e+001,-2.78352396468132e+000

2.26274169979693e+005,-1.78176903297296e+001,-2.82237335289354e+000

2.29432839682530e+005,-1.78177556890907e+001,-2.86176475451899e+000

2.32635602771247e+005,-1.78178228847542e+001,-2.90170572289007e+000

2.35883074766574e+005,-1.78178919682771e+001,-2.94220391623465e+000

2.39175879781588e+005,-1.78179629926620e+001,-2.98326709911406e+000

2.42514650641661e+005,-1.78180360123978e+001,-3.02490314388585e+000

2.45900029006080e+005,-1.78181110835006e+001,-3.06712003218197e+000

2.49332665491357e+005,-1.78181882635569e+001,-3.10992585640879e+000

2.52813219796278e+005,-1.78182676117673e+001,-3.15332882126505e+000

2.56342360828676e+005,-1.78183491889916e+001,-3.19733724528207e+000

2.59920766833993e+005,-1.78184330577952e+001,-3.24195956238258e+000

2.63549125525621e+005,-1.78185192824967e+001,-3.28720432346021e+000

2.67228134217075e+005,-1.78186079292169e+001,-3.33308019798096e+000

2.70958499956006e+005,-1.78186990659290e+001,-3.37959597560415e+000

2.74740939660078e+005,-1.78187927625105e+001,-3.42676056782498e+000

2.78576180254757e+005,-1.78188890907963e+001,-3.47458300963943e+000

2.82464958813007e+005,-1.78189881246333e+001,-3.52307246122997e+000

2.86408022696948e+005,-1.78190899399364e+001,-3.57223820967334e+000

2.90406129701488e+005,-1.78191946147464e+001,-3.62208967067066e+000

2.94460048199957e+005,-1.78193022292891e+001,-3.67263639029940e+000

2.98570557291775e+005,-1.78194128660364e+001,-3.72388804678949e+000

3.02738446952187e+005,-1.78195266097689e+001,-3.77585445231997e+000

3.06964518184081e+005,-1.78196435476401e+001,-3.82854555484131e+000

3.11249583171928e+005,-1.78197637692424e+001,-3.88197143991887e+000

3.15594465437872e+005,-1.78198873666754e+001,-3.93614233260180e+000

3.19999999999997e+005,-1.78200144346154e+001,-3.99106859931431e+000

3.24467033532806e+005,-1.78201450703874e+001,-4.04676074977185e+000

3.28996424529938e+005,-1.78202793740387e+001,-4.10322943892109e+000

3.33589043469155e+005,-1.78204174484144e+001,-4.16048546890554e+000

3.38245772979638e+005,-1.78205593992355e+001,-4.21853979105459e+000

3.42967508011610e+005,-1.78207053351790e+001,-4.27740350789851e+000

3.47755156008335e+005,-1.78208553679597e+001,-4.33708787520752e+000

3.52609637080511e+005,-1.78210096124148e+001,-4.39760430405855e+000

3.57531884183106e+005,-1.78211681865908e+001,-4.45896436292551e+000

3.62522843294651e+005,-1.78213312118322e+001,-4.52117977979689e+000

3.67583473599047e+005,-1.78214988128735e+001,-4.58426244431860e+000

3.72714747669902e+005,-1.78216711179331e+001,-4.64822440996387e+000

3.77917651657445e+005,-1.78218482588099e+001,-4.71307789623003e+000

3.83193185478053e+005,-1.78220303709825e+001,-4.77883529086086e+000

3.88542363006410e+005,-1.78222175937116e+001,-4.84550915209773e+000

3.93966212270369e+005,-1.78224100701443e+001,-4.91311221095646e+000

3.99465775648511e+005,-1.78226079474221e+001,-4.98165737353284e+000

4.05042110070485e+005,-1.78228113767913e+001,-5.05115772333485e+000

4.10696287220124e+005,-1.78230205137166e+001,-5.12162652364389e+000

4.16429393741414e+005,-1.78232355179978e+001,-5.19307721990306e+000

4.22242531447321e+005,-1.78234565538900e+001,-5.26552344213396e+000

4.28136817531551e+005,-1.78236837902258e+001,-5.33897900738295e+000

4.34113384783250e+005,-1.78239174005430e+001,-5.41345792219399e+000

4.40173381804713e+005,-1.78241575632135e+001,-5.48897438511264e+000

4.46317973232124e+005,-1.78244044615769e+001,-5.56554278921729e+000

4.52548339959385e+005,-1.78246582840780e+001,-5.64317772468029e+000

4.58865679365059e+005,-1.78249192244069e+001,-5.72189398135801e+000

4.65271205542494e+005,-1.78251874816437e+001,-5.80170655141094e+000

4.71766149533147e+005,-1.78254632604072e+001,-5.88263063195265e+000

4.78351759563174e+005,-1.78257467710066e+001,-5.96468162772870e+000

4.85029301283321e+005,-1.78260382295990e+001,-6.04787515382505e+000

4.91800058012158e+005,-1.78263378583489e+001,-6.13222703840712e+000

4.98665330982714e+005,-1.78266458855943e+001,-6.21775332548790e+000

5.05626439592555e+005,-1.78269625460153e+001,-6.30447027772699e+000

5.12684721657352e+005,-1.78272880808086e+001,-6.39239437925873e+000

5.19841533667984e+005,-1.78276227378657e+001,-6.48154233855138e+000

5.27098251051240e+005,-1.78279667719566e+001,-6.57193109129615e+000

5.34456268434150e+005,-1.78283204449175e+001,-6.66357780332666e+000

5.41916999912011e+005,-1.78286840258448e+001,-6.75649987356845e+000

