Freq.,VOut,OutRef

1.00000000000000e+004,-1.87778640248445e+001,-1.84887082771017e-001

1.01395947979003e+004,-1.87778643435398e+001,-1.87468007822221e-001

1.02811382665607e+004,-1.87778646711948e+001,-1.90084961141231e-001

1.04246576084112e+004,-1.87778650080612e+001,-1.92738445660000e-001

1.05701804056138e+004,-1.87778653543984e+001,-1.95428971328103e-001

1.07177346253629e+004,-1.87778657104724e+001,-1.98157055217702e-001

1.08673486252606e+004,-1.87778660765569e+001,-2.00923221616918e-001

1.10190511587661e+004,-1.87778664529334e+001,-2.03728002132479e-001

1.11728713807222e+004,-1.87778668398913e+001,-2.06571935791517e-001

1.13288388529580e+004,-1.87778672377280e+001,-2.09455569146188e-001

1.14869835499703e+004,-1.87778676467494e+001,-2.12379456377218e-001

1.16473358646846e+004,-1.87778680672699e+001,-2.15344159402740e-001

1.18099266142953e+004,-1.87778684996127e+001,-2.18350247982701e-001

1.19747870461893e+004,-1.87778689441102e+001,-2.21398299832222e-001

1.21419488439505e+004,-1.87778694011044e+001,-2.24488900728366e-001

1.23114441334492e+004,-1.87778698709464e+001,-2.27622644626152e-001

1.24833054890161e+004,-1.87778703539973e+001,-2.30800133773953e-001

1.26575659397028e+004,-1.87778708506286e+001,-2.34021978823142e-001

1.28342589756290e+004,-1.87778713612219e+001,-2.37288798952068e-001

1.30134185544193e+004,-1.87778718861699e+001,-2.40601221979333e-001

1.31950791077289e+004,-1.87778724258762e+001,-2.43959884489975e-001

1.33792755478611e+004,-1.87778729807557e+001,-2.47365431952693e-001

1.35660432744767e+004,-1.87778735512348e+001,-2.50818518848743e-001

1.37554181813974e+004,-1.87778741377522e+001,-2.54319808792635e-001

1.39474366635040e+004,-1.87778747407587e+001,-2.57869974664175e-001

1.41421356237309e+004,-1.87778753607179e+001,-2.61469698734006e-001

1.43395524801583e+004,-1.87778759981065e+001,-2.65119672797377e-001

1.45397251732031e+004,-1.87778766534144e+001,-2.68820598307022e-001

1.47426921729110e+004,-1.87778773271455e+001,-2.72573186505133e-001

1.49484924863494e+004,-1.87778780198175e+001,-2.76378158563466e-001

1.51571656651040e+004,-1.87778787319631e+001,-2.80236245719957e-001

1.53687518128801e+004,-1.87778794641297e+001,-2.84148189419611e-001

1.55832915932100e+004,-1.87778802168802e+001,-2.88114741456444e-001

1.58008262372675e+004,-1.87778809907931e+001,-2.92136664120288e-001

1.60213975517924e+004,-1.87778817864637e+001,-2.96214730338773e-001

1.62450479271247e+004,-1.87778826045033e+001,-3.00349723831452e-001

1.64718203453514e+004,-1.87778834455411e+001,-3.04542439255151e-001

1.67017583885674e+004,-1.87778843102234e+001,-3.08793682360321e-001

1.69349062472505e+004,-1.87778851992150e+001,-3.13104270144578e-001

1.71713087287550e+004,-1.87778861131995e+001,-3.17475031007424e-001

1.74110112659224e+004,-1.87778870528792e+001,-3.21906804915050e-001

1.76540599258131e+004,-1.87778880189767e+001,-3.26400443554969e-001

1.79005014185594e+004,-1.87778890122347e+001,-3.30956810505374e-001

1.81503831063432e+004,-1.87778900334168e+001,-3.35576781396820e-001

1.84037530124975e+004,-1.87778910833078e+001,-3.40261244084164e-001

1.86606598307361e+004,-1.87778921627151e+001,-3.45011098812156e-001

1.89211529345119e+004,-1.87778932724682e+001,-3.49827258395237e-001

1.91852823865052e+004,-1.87778944134205e+001,-3.54710648386033e-001

1.94530989482457e+004,-1.87778955864490e+001,-3.59662207257768e-001

1.97246540898671e+004,-1.87778967924555e+001,-3.64682886582799e-001

1.99999999999999e+004,-1.87778980323670e+001,-3.69773651215450e-001

2.02791895958005e+004,-1.87778993071367e+001,-3.74935479478028e-001

2.05622765331213e+004,-1.87779006177447e+001,-3.80169363347796e-001

2.08493152168224e+004,-1.87779019651984e+001,-3.85476308648247e-001

2.11403608112276e+004,-1.87779033505338e+001,-3.90857335241696e-001

2.14354692507258e+004,-1.87779047748157e+001,-3.96313477227152e-001

2.17346972505211e+004,-1.87779062391391e+001,-4.01845783135943e-001

2.20381023175322e+004,-1.87779077446296e+001,-4.07455316135092e-001

2.23457427614443e+004,-1.87779092924446e+001,-4.13143154231885e-001

2.26576777059159e+004,-1.87779108837741e+001,-4.18910390478242e-001

2.29739670999406e+004,-1.87779125198411e+001,-4.24758133185367e-001

2.32946717293690e+004,-1.87779142019036e+001,-4.30687506131271e-001

2.36198532285905e+004,-1.87779159312546e+001,-4.36699648780613e-001

2.39495740923785e+004,-1.87779177092235e+001,-4.42795716502061e-001

2.42838976879009e+004,-1.87779195371770e+001,-4.48976880790641e-001

2.46228882668982e+004,-1.87779214165204e+001,-4.55244329491112e-001

2.49666109780322e+004,-1.87779233486984e+001,-4.61599267029723e-001

2.53151318794055e+004,-1.87779253351964e+001,-4.68042914641006e-001

2.56685179512580e+004,-1.87779273775413e+001,-4.74576510605996e-001

2.60268371088386e+004,-1.87779294773033e+001,-4.81201310488884e-001

2.63901582154578e+004,-1.87779316360964e+001,-4.87918587376669e-001

2.67585510957221e+004,-1.87779338555803e+001,-4.94729632126033e-001

2.71320865489533e+004,-1.87779361374611e+001,-5.01635753609690e-001

2.75108363627948e+004,-1.87779384834929e+001,-5.08638278968102e-001

2.78948733270080e+004,-1.87779408954792e+001,-5.15738553865439e-001

2.82842712474618e+004,-1.87779433752740e+001,-5.22937942746566e-001

2.86791049603164e+004,-1.87779459247838e+001,-5.30237829099045e-001

2.90794503464061e+004,-1.87779485459684e+001,-5.37639615718895e-001

2.94853843458219e+004,-1.87779512408426e+001,-5.45144724982595e-001

2.98969849726987e+004,-1.87779540114782e+001,-5.52754599115107e-001

3.03143313302078e+004,-1.87779568600049e+001,-5.60470700472548e-001

3.07375036257601e+004,-1.87779597886125e+001,-5.68294511817565e-001

3.11665831864199e+004,-1.87779627995521e+001,-5.76227536608551e-001

3.16016524745350e+004,-1.87779658951384e+001,-5.84271299285287e-001

3.20427951035848e+004,-1.87779690777509e+001,-5.92427345563507e-001

3.24900958542493e+004,-1.87779723498361e+001,-6.00697242730062e-001

3.29436406907028e+004,-1.87779757139095e+001,-6.09082579944669e-001

3.34035167771346e+004,-1.87779791725567e+001,-6.17584968546391e-001

3.38698124945009e+004,-1.87779827284366e+001,-6.26206042360250e-001

3.43426174575100e+004,-1.87779863842826e+001,-6.34947458011878e-001

3.48220225318448e+004,-1.87779901429048e+001,-6.43810895247638e-001

3.53081198516260e+004,-1.87779940071925e+001,-6.52798057253093e-001

3.58010028371187e+004,-1.87779979801162e+001,-6.61910670983957e-001

3.63007662126863e+004,-1.87780020647299e+001,-6.71150487494193e-001

3.68075060249948e+004,-1.87780062641733e+001,-6.80519282275453e-001

3.73213196614721e+004,-1.87780105816744e+001,-6.90018855594432e-001

3.78423058690237e+004,-1.87780150205521e+001,-6.99651032841005e-001

3.83705647730104e+004,-1.87780195842184e+001,-7.09417664877032e-001

3.89061978964912e+004,-1.87780242761813e+001,-7.19320628392947e-001

3.94493081797342e+004,-1.87780291000475e+001,-7.29361826265636e-001

3.99999999999998e+004,-1.87780340595247e+001,-7.39543187927007e-001

4.05583791916010e+004,-1.87780391584254e+001,-7.49866669730536e-001

4.11245530662425e+004,-1.87780444006689e+001,-7.60334255328678e-001

4.16986304336447e+004,-1.87780497902846e+001,-7.70947956053849e-001

4.22807216224550e+004,-1.87780553314154e+001,-7.81709811303227e-001

4.28709385014515e+004,-1.87780610283204e+001,-7.92621888930434e-001

4.34693945010421e+004,-1.87780668853786e+001,-8.03686285642666e-001

4.40762046350642e+004,-1.87780729070921e+001,-8.14905127401125e-001

4.46914855228886e+004,-1.87780790980894e+001,-8.26280569831926e-001

4.53153554118317e+004,-1.87780854631292e+001,-8.37814798637316e-001

4.59479341998812e+004,-1.87780920071040e+001,-8.49510030014215e-001

4.65893434587380e+004,-1.87780987350436e+001,-8.61368511082502e-001

4.72397064571810e+004,-1.87781056521193e+001,-8.73392520312302e-001

4.78991481847569e+004,-1.87781127636479e+001,-8.85584367963729e-001

4.85677953758016e+004,-1.87781200750954e+001,-8.97946396527934e-001

4.92457765337964e+004,-1.87781275920815e+001,-9.10480981177628e-001

4.99332219560642e+004,-1.87781353203840e+001,-9.23190530221703e-001

5.06302637588109e+004,-1.87781432659428e+001,-9.36077485567753e-001

5.13370359025159e+004,-1.87781514348650e+001,-9.49144323189046e-001

5.20536742176771e+004,-1.87781598334292e+001,-9.62393553599710e-001

5.27803164309155e+004,-1.87781684680906e+001,-9.75827722337211e-001

5.35171021914442e+004,-1.87781773454856e+001,-9.89449410447814e-001

5.42641730979066e+004,-1.87781864724374e+001,-1.00326123498279e+000

5.50216727255895e+004,-1.87781958559606e+001,-1.01726584950052e+000

5.57897466540159e+004,-1.87782055032673e+001,-1.03146594457368e+000

5.65685424949235e+004,-1.87782154217722e+001,-1.04586424830468e+000

5.73582099206328e+004,-1.87782256190982e+001,-1.06046352684937e+000

5.81589006928121e+004,-1.87782361030825e+001,-1.07526658494755e+000

5.89707686916437e+004,-1.87782468817828e+001,-1.09027626645731e+000

5.97939699453972e+004,-1.87782579634828e+001,-1.10549545490355e+000

6.06286626604156e+004,-1.87782693566994e+001,-1.12092707402668e+000

6.14750072515201e+004,-1.87782810701885e+001,-1.13657408834578e+000

6.23331663728396e+004,-1.87782931129524e+001,-1.15243950372354e+000

6.32033049490698e+004,-1.87783054942462e+001,-1.16852636794363e+000

6.40855902071694e+004,-1.87783182235849e+001,-1.18483777129342e+000

6.49801917084985e+004,-1.87783313107513e+001,-1.20137684715516e+000

6.58872813814055e+004,-1.87783447658028e+001,-1.21814677260642e+000

6.68070335542691e+004,-1.87783585990794e+001,-1.23515076902841e+000

6.77396249890018e+004,-1.87783728212117e+001,-1.25239210272145e+000

6.86852349150199e+004,-1.87783874431292e+001,-1.26987408553026e+000

6.96440450636895e+004,-1.87784024760682e+001,-1.28760007547832e+000

7.06162397032520e+004,-1.87784179315808e+001,-1.30557347740906e+000

7.16020056742374e+004,-1.87784338215441e+001,-1.32379774363752e+000

7.26015324253724e+004,-1.87784501581682e+001,-1.34227637461122e+000

7.36150120499896e+004,-1.87784669540068e+001,-1.36101291957860e+000

7.46426393229441e+004,-1.87784842219661e+001,-1.38001097726831e+000

7.56846117380472e+004,-1.87785019753151e+001,-1.39927419657594e+000

7.67411295460207e+004,-1.87785202276953e+001,-1.41880627726263e+000

7.78123957929823e+004,-1.87785389931318e+001,-1.43861097066224e+000

7.88986163594682e+004,-1.87785582860433e+001,-1.45869208039712e+000

7.99999999999995e+004,-1.87785781212541e+001,-1.47905346310434e+000

8.11167583832018e+004,-1.87785985140046e+001,-1.49969902917429e+000

8.22491061324848e+004,-1.87786194799634e+001,-1.52063274349599e+000

8.33972608672892e+004,-1.87786410352394e+001,-1.54185862621421e+000

8.45614432449099e+004,-1.87786631963939e+001,-1.56338075349751e+000

8.57418770029029e+004,-1.87786859804534e+001,-1.58520325831496e+000

8.69387890020841e+004,-1.87787094049228e+001,-1.60733033122702e+000

8.81524092701283e+004,-1.87787334877987e+001,-1.62976622118281e+000

8.93829710457770e+004,-1.87787582475831e+001,-1.65251523633196e+000

9.06307108236633e+004,-1.87787837032978e+001,-1.67558174484545e+000

9.18958683997622e+004,-1.87788098744987e+001,-1.69897017574967e+000

9.31786869174758e+004,-1.87788367812912e+001,-1.72268501976868e+000

9.44794129143618e+004,-1.87788644443453e+001,-1.74673083018231e+000

9.57982963695136e+004,-1.87788928849115e+001,-1.77111222369198e+000

9.71355907516031e+004,-1.87789221248370e+001,-1.79583388130147e+000

9.84915530675926e+004,-1.87789521865827e+001,-1.82090054920719e+000

9.98664439121282e+004,-1.87789830932403e+001,-1.84631703970263e+000

1.01260527517622e+005,-1.87790148685498e+001,-1.87208823209413e+000

1.02674071805032e+005,-1.87790475369181e+001,-1.89821907362924e+000

1.04107348435354e+005,-1.87790811234370e+001,-1.92471458043850e+000

1.05560632861831e+005,-1.87791156539035e+001,-1.95157983848784e+000

1.07034204382888e+005,-1.87791511548384e+001,-1.97882000454808e+000

1.08528346195813e+005,-1.87791876535073e+001,-2.00644030717259e+000

1.10043345451179e+005,-1.87792251779413e+001,-2.03444604769246e+000

1.11579493308032e+005,-1.87792637569587e+001,-2.06284260122212e+000

1.13137084989847e+005,-1.87793034201865e+001,-2.09163541768168e+000

1.14716419841265e+005,-1.87793441980836e+001,-2.12083002283040e+000

1.16317801385624e+005,-1.87793861219640e+001,-2.15043201931466e+000

1.17941537383287e+005,-1.87794292240205e+001,-2.18044708773211e+000

1.19587939890794e+005,-1.87794735373498e+001,-2.21088098770785e+000

1.21257325320831e+005,-1.87795190959773e+001,-2.24173955898695e+000

1.22950014503040e+005,-1.87795659348836e+001,-2.27302872253954e+000

1.24666332745679e+005,-1.87796140900310e+001,-2.30475448168421e+000

1.26406609898139e+005,-1.87796635983909e+001,-2.33692292322219e+000

1.28171180414339e+005,-1.87797144979725e+001,-2.36954021859147e+000

1.29960383416997e+005,-1.87797668278514e+001,-2.40261262503296e+000

1.31774562762811e+005,-1.87798206281996e+001,-2.43614648677326e+000

1.33614067108538e+005,-1.87798759403165e+001,-2.47014823622456e+000

1.35479249978003e+005,-1.87799328066601e+001,-2.50462439519916e+000

1.37370469830040e+005,-1.87799912708795e+001,-2.53958157614058e+000

1.39288090127379e+005,-1.87800513778484e+001,-2.57502648337190e+000

1.41232479406504e+005,-1.87801131736993e+001,-2.61096591435981e+000

1.43204011348474e+005,-1.87801767058588e+001,-2.64740676099611e+000

1.45203064850745e+005,-1.87802420230836e+001,-2.68435601089658e+000

1.47230024099979e+005,-1.87803091754980e+001,-2.72182074871581e+000

1.49285278645888e+005,-1.87803782146318e+001,-2.75980815748174e+000

1.51369223476094e+005,-1.87804491934602e+001,-2.79832551994497e+000

1.53482259092041e+005,-1.87805221664434e+001,-2.83738021994954e+000

1.55624791585964e+005,-1.87805971895690e+001,-2.87697974381845e+000

1.57797232718936e+005,-1.87806743203941e+001,-2.91713168175961e+000

1.59999999999999e+005,-1.87807536180895e+001,-2.95784372928961e+000

1.62233516766403e+005,-1.87808351434846e+001,-2.99912368867702e+000

1.64498212264969e+005,-1.87809189591139e+001,-3.04097947040249e+000

1.66794521734578e+005,-1.87810051292644e+001,-3.08341909464157e+000

1.69122886489819e+005,-1.87810937200252e+001,-3.12645069276318e+000

1.71483754005805e+005,-1.87811847993368e+001,-3.17008250885094e+000

1.73877578004168e+005,-1.87812784370439e+001,-3.21432290124181e+000

1.76304818540256e+005,-1.87813747049479e+001,-3.25918034408655e+000

1.78765942091554e+005,-1.87814736768615e+001,-3.30466342892970e+000

1.81261421647326e+005,-1.87815754286654e+001,-3.35078086631010e+000

1.83791736799524e+005,-1.87816800383654e+001,-3.39754148738209e+000

1.86357373834951e+005,-1.87817875861520e+001,-3.44495424555835e+000

1.88958825828723e+005,-1.87818981544613e+001,-3.49302821817275e+000

1.91596592739027e+005,-1.87820118280376e+001,-3.54177260816551e+000

1.94271181503206e+005,-1.87821286939979e+001,-3.59119674579002e+000

1.96983106135185e+005,-1.87822488418976e+001,-3.64131009034054e+000

1.99732887824256e+005,-1.87823723637992e+001,-3.69212223190289e+000

2.02521055035243e+005,-1.87824993543413e+001,-3.74364289312746e+000

2.05348143610063e+005,-1.87826299108111e+001,-3.79588193102381e+000

2.08214696870707e+005,-1.87827641332177e+001,-3.84884933877933e+000

2.11121265723661e+005,-1.87829021243680e+001,-3.90255524759902e+000

2.14068408765776e+005,-1.87830439899447e+001,-3.95700992857128e+000

2.17056692391625e+005,-1.87831898385861e+001,-4.01222379455292e+000

2.20086690902357e+005,-1.87833397819685e+001,-4.06820740208248e+000

2.23158986616063e+005,-1.87834939348906e+001,-4.12497145331393e+000

2.26274169979693e+005,-1.87836524153604e+001,-4.18252679797533e+000

2.29432839682530e+005,-1.87838153446840e+001,-4.24088443535249e+000

2.32635602771247e+005,-1.87839828475578e+001,-4.30005551629639e+000

2.35883074766574e+005,-1.87841550521625e+001,-4.36005134525476e+000

2.39175879781588e+005,-1.87843320902594e+001,-4.42088338233011e+000

2.42514650641661e+005,-1.87845140972903e+001,-4.48256324536110e+000

2.45900029006080e+005,-1.87847012124794e+001,-4.54510271202998e+000

2.49332665491357e+005,-1.87848935789381e+001,-4.60851372199521e+000

2.52813219796278e+005,-1.87850913437730e+001,-4.67280837905069e+000

2.56342360828676e+005,-1.87852946581963e+001,-4.73799895330883e+000

2.59920766833993e+005,-1.87855036776399e+001,-4.80409788341124e+000

2.63549125525621e+005,-1.87857185618719e+001,-4.87111777876534e+000

2.67228134217075e+005,-1.87859394751168e+001,-4.93907142180689e+000

2.70958499956006e+005,-1.87861665861787e+001,-5.00797177028907e+000

2.74740939660078e+005,-1.87864000685678e+001,-5.07783195959857e+000

2.78576180254757e+005,-1.87866401006309e+001,-5.14866530509820e+000

2.82464958813007e+005,-1.87868868656845e+001,-5.22048530449662e+000

2.86408022696948e+005,-1.87871405521524e+001,-5.29330564024463e+000

2.90406129701488e+005,-1.87874013537064e+001,-5.36714018196021e+000

2.94460048199957e+005,-1.87876694694109e+001,-5.44200298887885e+000

2.98570557291775e+005,-1.87879451038722e+001,-5.51790831233262e+000

3.02738446952187e+005,-1.87882284673906e+001,-5.59487059825724e+000

3.06964518184081e+005,-1.87885197761172e+001,-5.67290448972473e+000

3.11249583171928e+005,-1.87888192522152e+001,-5.75202482950660e+000

3.15594465437872e+005,-1.87891271240252e+001,-5.83224666266239e+000

3.19999999999997e+005,-1.87894436262347e+001,-5.91358523915800e+000

3.24467033532806e+005,-1.87897690000528e+001,-5.99605601651027e+000

3.28996424529938e+005,-1.87901034933889e+001,-6.07967466246100e+000

3.33589043469155e+005,-1.87904473610367e+001,-6.16445705767788e+000

3.38245772979638e+005,-1.87908008648629e+001,-6.25041929848403e+000

3.42967508011610e+005,-1.87911642740007e+001,-6.33757769961488e+000

3.47755156008335e+005,-1.87915378650491e+001,-6.42594879700404e+000

3.52609637080511e+005,-1.87919219222765e+001,-6.51554935059603e+000

3.57531884183106e+005,-1.87923167378310e+001,-6.60639634718734e+000

3.62522843294651e+005,-1.87927226119550e+001,-6.69850700329525e+000

3.67583473599047e+005,-1.87931398532062e+001,-6.79189876805424e+000

3.72714747669902e+005,-1.87935687786844e+001,-6.88658932613987e+000

3.77917651657445e+005,-1.87940097142639e+001,-6.98259660072034e+000

3.83193185478053e+005,-1.87944629948328e+001,-7.07993875643509e+000

3.88542363006410e+005,-1.87949289645371e+001,-7.17863420240026e+000

3.93966212270369e+005,-1.87954079770331e+001,-7.27870159524165e+000

3.99465775648511e+005,-1.87959003957447e+001,-7.38015984215354e+000

4.05042110070485e+005,-1.87964065941288e+001,-7.48302810398402e+000

4.10696287220124e+005,-1.87969269559463e+001,-7.58732579834672e+000

4.16429393741414e+005,-1.87974618755412e+001,-7.69307260275827e+000

4.22242531447321e+005,-1.87980117581263e+001,-7.80028845780026e+000

4.28136817531551e+005,-1.87985770200766e+001,-7.90899357030734e+000

4.34113384783250e+005,-1.87991580892303e+001,-8.01920841657872e+000

4.40173381804713e+005,-1.87997554051968e+001,-8.13095374561513e+000

4.46317973232124e+005,-1.88003694196741e+001,-8.24425058237754e+000

4.52548339959385e+005,-1.88010005967725e+001,-8.35912023107092e+000

4.58865679365059e+005,-1.88016494133479e+001,-8.47558427844865e+000

4.65271205542494e+005,-1.88023163593429e+001,-8.59366459714047e+000

4.71766149533147e+005,-1.88030019381372e+001,-8.71338334899976e+000

4.78351759563174e+005,-1.88037066669057e+001,-8.83476298847287e+000

4.85029301283321e+005,-1.88044310769868e+001,-8.95782626598785e+000

4.91800058012158e+005,-1.88051757142594e+001,-9.08259623136099e+000

4.98665330982714e+005,-1.88059411395289e+001,-9.20909623722287e+000

5.05626439592555e+005,-1.88067279289238e+001,-9.33734994246063e+000

5.12684721657352e+005,-1.88075366743015e+001,-9.46738131567672e+000

5.19841533667984e+005,-1.88083679836638e+001,-9.59921463866253e+000

5.27098251051240e+005,-1.88092224815837e+001,-9.73287450988636e+000

5.34456268434150e+005,-1.88101008096414e+001,-9.86838584799440e+000

5.41916999912011e+005,-1.88110036268717e+001,-1.00057738953225e+001

