Freq.,VOut,OutRef

1.00000000000000e+004,-2.57000837700779e+001,-2.75021106370322e-001

1.01395947979003e+004,-2.57000847956080e+001,-2.78860245552446e-001

1.02811382665607e+004,-2.57000858499694e+001,-2.82752976593865e-001

1.04246576084112e+004,-2.57000869339727e+001,-2.86700047586870e-001

1.05701804056138e+004,-2.57000880484511e+001,-2.90702217066201e-001

1.07177346253629e+004,-2.57000891942617e+001,-2.94760254152554e-001

1.08673486252606e+004,-2.57000903722849e+001,-2.98874938704729e-001

1.10190511587661e+004,-2.57000915834267e+001,-3.03047061464275e-001

1.11728713807222e+004,-2.57000928286180e+001,-3.07277424211600e-001

1.13288388529580e+004,-2.57000941088161e+001,-3.11566839918252e-001

1.14869835499703e+004,-2.57000954250050e+001,-3.15916132902466e-001

1.16473358646846e+004,-2.57000967781967e+001,-3.20326138989053e-001

1.18099266142953e+004,-2.57000981694314e+001,-3.24797705668801e-001

1.19747870461893e+004,-2.57000995997787e+001,-3.29331692261008e-001

1.21419488439505e+004,-2.57001010703380e+001,-3.33928970081120e-001

1.23114441334492e+004,-2.57001025822398e+001,-3.38590422604584e-001

1.24833054890161e+004,-2.57001041366465e+001,-3.43316945637677e-001

1.26575659397028e+004,-2.57001057347531e+001,-3.48109447491410e-001

1.28342589756290e+004,-2.57001073777879e+001,-3.52968849154136e-001

1.30134185544193e+004,-2.57001090670142e+001,-3.57896084468817e-001

1.31950791077289e+004,-2.57001108037304e+001,-3.62892100312826e-001

1.33792755478611e+004,-2.57001125892718e+001,-3.67957856778828e-001

1.35660432744767e+004,-2.57001144250109e+001,-3.73094327360734e-001

1.37554181813974e+004,-2.57001163123589e+001,-3.78302499139337e-001

1.39474366635040e+004,-2.57001182527667e+001,-3.83583372972701e-001

1.41421356237309e+004,-2.57001202477259e+001,-3.88937963688104e-001

1.43395524801583e+004,-2.57001222987702e+001,-3.94367300276281e-001

1.45397251732031e+004,-2.57001244074763e+001,-3.99872426089952e-001

1.47426921729110e+004,-2.57001265754653e+001,-4.05454399044326e-001

1.49484924863494e+004,-2.57001288044038e+001,-4.11114291819176e-001

1.51571656651040e+004,-2.57001310960050e+001,-4.16853192067230e-001

1.53687518128801e+004,-2.57001334520309e+001,-4.22672202618608e-001

1.55832915932100e+004,-2.57001358742926e+001,-4.28572441697280e-001

1.58008262372675e+004,-2.57001383646518e+001,-4.34555043134223e-001

1.60213975517924e+004,-2.57001409250234e+001,-4.40621156583102e-001

1.62450479271247e+004,-2.57001435573753e+001,-4.46771947743682e-001

1.64718203453514e+004,-2.57001462637313e+001,-4.53008598584670e-001

1.67017583885674e+004,-2.57001490461717e+001,-4.59332307570699e-001

1.69349062472505e+004,-2.57001519068354e+001,-4.65744289892723e-001

1.71713087287550e+004,-2.57001548479216e+001,-4.72245777699712e-001

1.74110112659224e+004,-2.57001578716911e+001,-4.78838020338571e-001

1.76540599258131e+004,-2.57001609804682e+001,-4.85522284590894e-001

1.79005014185594e+004,-2.57001641766431e+001,-4.92299854916410e-001

1.81503831063432e+004,-2.57001674626723e+001,-4.99172033702540e-001

1.84037530124975e+004,-2.57001708410820e+001,-5.06140141510884e-001

1.86606598307361e+004,-2.57001743144693e+001,-5.13205517332214e-001

1.89211529345119e+004,-2.57001778855043e+001,-5.20369518843647e-001

1.91852823865052e+004,-2.57001815569319e+001,-5.27633522669743e-001

1.94530989482457e+004,-2.57001853315745e+001,-5.34998924644784e-001

1.97246540898671e+004,-2.57001892123337e+001,-5.42467140083702e-001

1.99999999999999e+004,-2.57001932021925e+001,-5.50039604050710e-001

2.02791895958005e+004,-2.57001973042181e+001,-5.57717771636905e-001

2.05622765331213e+004,-2.57002015215637e+001,-5.65503118237651e-001

2.08493152168224e+004,-2.57002058574712e+001,-5.73397139837584e-001

2.11403608112276e+004,-2.57002103152736e+001,-5.81401353297019e-001

2.14354692507258e+004,-2.57002148983975e+001,-5.89517296642444e-001

2.17346972505211e+004,-2.57002196103660e+001,-5.97746529363163e-001

2.20381023175322e+004,-2.57002244548013e+001,-6.06090632707343e-001

2.23457427614443e+004,-2.57002294354269e+001,-6.14551209990694e-001

2.26576777059159e+004,-2.57002345560717e+001,-6.23129886898198e-001

2.29739670999406e+004,-2.57002398206718e+001,-6.31828311800019e-001

2.32946717293690e+004,-2.57002452332739e+001,-6.40648156066773e-001

2.36198532285905e+004,-2.57002507980386e+001,-6.49591114390051e-001

2.39495740923785e+004,-2.57002565192434e+001,-6.58658905106353e-001

2.42838976879009e+004,-2.57002624012860e+001,-6.67853270529290e-001

2.46228882668982e+004,-2.57002684486880e+001,-6.77175977280527e-001

2.49666109780322e+004,-2.57002746660976e+001,-6.86628816631835e-001

2.53151318794055e+004,-2.57002810582940e+001,-6.96213604846296e-001

2.56685179512580e+004,-2.57002876301907e+001,-7.05932183527717e-001

2.60268371088386e+004,-2.57002943868391e+001,-7.15786419974004e-001

2.63901582154578e+004,-2.57003013334330e+001,-7.25778207534318e-001

2.67585510957221e+004,-2.57003084753116e+001,-7.35909465972950e-001

2.71320865489533e+004,-2.57003158179648e+001,-7.46182141835922e-001

2.75108363627948e+004,-2.57003233670364e+001,-7.56598208827157e-001

2.78948733270080e+004,-2.57003311283289e+001,-7.67159668183898e-001

2.82842712474618e+004,-2.57003391078080e+001,-7.77868549060992e-001

2.86791049603164e+004,-2.57003473116070e+001,-7.88726908921358e-001

2.90794503464061e+004,-2.57003557460317e+001,-7.99736833928522e-001

2.94853843458219e+004,-2.57003644175649e+001,-8.10900439347782e-001

2.98969849726987e+004,-2.57003733328717e+001,-8.22219869950874e-001

3.03143313302078e+004,-2.57003824988047e+001,-8.33697300426083e-001

3.07375036257601e+004,-2.57003919224090e+001,-8.45334935797109e-001

3.11665831864199e+004,-2.57004016109276e+001,-8.57135011843484e-001

3.16016524745350e+004,-2.57004115718072e+001,-8.69099795530489e-001

3.20427951035848e+004,-2.57004218127038e+001,-8.81231585442151e-001

3.24900958542493e+004,-2.57004323414884e+001,-8.93532712221421e-001

3.29436406907028e+004,-2.57004431662534e+001,-9.06005539018147e-001

3.34035167771346e+004,-2.57004542953187e+001,-9.18652461939931e-001

3.38698124945009e+004,-2.57004657372377e+001,-9.31475910512256e-001

3.43426174575100e+004,-2.57004775008045e+001,-9.44478348141472e-001

3.48220225318448e+004,-2.57004895950601e+001,-9.57662272590021e-001

3.53081198516260e+004,-2.57005020293000e+001,-9.71030216450368e-001

3.58010028371187e+004,-2.57005148130803e+001,-9.84584747633614e-001

3.63007662126863e+004,-2.57005279562263e+001,-9.98328469857532e-001

3.68075060249948e+004,-2.57005414688389e+001,-1.01226402314773e+000

3.73213196614721e+004,-2.57005553613033e+001,-1.02639408434046e+000

3.78423058690237e+004,-2.57005696442961e+001,-1.04072136759632e+000

3.83705647730104e+004,-2.57005843287944e+001,-1.05524862491821e+000

3.89061978964912e+004,-2.57005994260834e+001,-1.06997864667884e+000

3.94493081797342e+004,-2.57006149477656e+001,-1.08491426215341e+000

3.99999999999998e+004,-2.57006309057694e+001,-1.10005834006147e+000

4.05583791916010e+004,-2.57006473123587e+001,-1.11541378911358e+000

4.11245530662425e+004,-2.57006641801417e+001,-1.13098355857006e+000

4.16986304336447e+004,-2.57006815220809e+001,-1.14677063880201e+000

4.22807216224550e+004,-2.57006993515033e+001,-1.16277806186434e+000

4.28709385014515e+004,-2.57007176821101e+001,-1.17900890207478e+000

4.34693945010421e+004,-2.57007365279876e+001,-1.19546627660043e+000

4.40762046350642e+004,-2.57007559036180e+001,-1.21215334605381e+000

4.46914855228886e+004,-2.57007758238900e+001,-1.22907331509683e+000

4.53153554118317e+004,-2.57007963041113e+001,-1.24622943305120e+000

4.59479341998812e+004,-2.57008173600190e+001,-1.26362499452031e+000

4.65893434587380e+004,-2.57008390077928e+001,-1.28126334001709e+000

4.72397064571810e+004,-2.57008612640669e+001,-1.29914785660113e+000

4.78991481847569e+004,-2.57008841459427e+001,-1.31728197852593e+000

4.85677953758016e+004,-2.57009076710021e+001,-1.33566918789391e+000

4.92457765337964e+004,-2.57009318573212e+001,-1.35431301531853e+000

4.99332219560642e+004,-2.57009567234835e+001,-1.37321704059993e+000

5.06302637588109e+004,-2.57009822885948e+001,-1.39238489340566e+000

5.13370359025159e+004,-2.57010085722976e+001,-1.41182025396346e+000

5.20536742176771e+004,-2.57010355947863e+001,-1.43152685376123e+000

5.27803164309155e+004,-2.57010633768223e+001,-1.45150847625932e+000

5.35171021914442e+004,-2.57010919397505e+001,-1.47176895760909e+000

5.42641730979066e+004,-2.57011213055152e+001,-1.49231218738502e+000

5.50216727255895e+004,-2.57011514966770e+001,-1.51314210932449e+000

5.57897466540159e+004,-2.57011825364305e+001,-1.53426272207760e+000

5.65685424949235e+004,-2.57012144486216e+001,-1.55567807996816e+000

5.73582099206328e+004,-2.57012472577658e+001,-1.57739229376506e+000

5.81589006928121e+004,-2.57012809890675e+001,-1.59940953146332e+000

5.89707686916437e+004,-2.57013156684386e+001,-1.62173401907691e+000

5.97939699453972e+004,-2.57013513225191e+001,-1.64437004144053e+000

6.06286626604156e+004,-2.57013879786968e+001,-1.66732194302442e+000

6.14750072515201e+004,-2.57014256651288e+001,-1.69059412875880e+000

6.23331663728396e+004,-2.57014644107630e+001,-1.71419106487043e+000

6.32033049490698e+004,-2.57015042453601e+001,-1.73811727972905e+000

6.40855902071694e+004,-2.57015451995164e+001,-1.76237736470773e+000

6.49801917084985e+004,-2.57015873046873e+001,-1.78697597505193e+000

6.58872813814055e+004,-2.57016305932118e+001,-1.81191783076276e+000

6.68070335542691e+004,-2.57016750983363e+001,-1.83720771749081e+000

6.77396249890018e+004,-2.57017208542412e+001,-1.86285048744249e+000

6.86852349150199e+004,-2.57017678960662e+001,-1.88885106029876e+000

6.96440450636895e+004,-2.57018162599374e+001,-1.91521442414572e+000

7.06162397032520e+004,-2.57018659829955e+001,-1.94194563641804e+000

7.16020056742374e+004,-2.57019171034234e+001,-1.96904982485510e+000

7.26015324253724e+004,-2.57019696604761e+001,-1.99653218847027e+000

7.36150120499896e+004,-2.57020236945103e+001,-2.02439799853193e+000

7.46426393229441e+004,-2.57020792470155e+001,-2.05265259956001e+000

7.56846117380472e+004,-2.57021363606457e+001,-2.08130141033311e+000

7.67411295460207e+004,-2.57021950792519e+001,-2.11034992491052e+000

7.78123957929823e+004,-2.57022554479160e+001,-2.13980371366859e+000

7.88986163594682e+004,-2.57023175129849e+001,-2.16966842434899e+000

7.99999999999995e+004,-2.57023813221059e+001,-2.19994978312311e+000

8.11167583832018e+004,-2.57024469242634e+001,-2.23065359566842e+000

8.22491061324848e+004,-2.57025143698165e+001,-2.26178574826090e+000

8.33972608672892e+004,-2.57025837105367e+001,-2.29335220888101e+000

8.45614432449099e+004,-2.57026549996484e+001,-2.32535902833458e+000

8.57418770029029e+004,-2.57027282918689e+001,-2.35781234138870e+000

8.69387890020841e+004,-2.57028036434506e+001,-2.39071836792162e+000

8.81524092701283e+004,-2.57028811122237e+001,-2.42408341408967e+000

8.93829710457770e+004,-2.57029607576404e+001,-2.45791387350743e+000

9.06307108236633e+004,-2.57030426408205e+001,-2.49221622844494e+000

9.18958683997622e+004,-2.57031268245978e+001,-2.52699705103958e+000

9.31786869174758e+004,-2.57032133735680e+001,-2.56226300452474e+000

9.44794129143618e+004,-2.57033023541385e+001,-2.59802084447363e+000

9.57982963695136e+004,-2.57033938345781e+001,-2.63427742006004e+000

9.71355907516031e+004,-2.57034878850703e+001,-2.67103967533487e+000

9.84915530675926e+004,-2.57035845777656e+001,-2.70831465051927e+000

9.98664439121282e+004,-2.57036839868374e+001,-2.74610948331523e+000

1.01260527517622e+005,-2.57037861885380e+001,-2.78443141023294e+000

1.02674071805032e+005,-2.57038912612570e+001,-2.82328776793332e+000

1.04107348435354e+005,-2.57039992855808e+001,-2.86268599459160e+000

1.05560632861831e+005,-2.57041103443540e+001,-2.90263363127394e+000

1.07034204382888e+005,-2.57042245227426e+001,-2.94313832333619e+000

1.08528346195813e+005,-2.57043419082987e+001,-2.98420782183601e+000

1.10043345451179e+005,-2.57044625910274e+001,-3.02584998496660e+000

1.11579493308032e+005,-2.57045866634546e+001,-3.06807277950695e+000

1.13137084989847e+005,-2.57047142206981e+001,-3.11088428229021e+000

1.14716419841265e+005,-2.57048453605394e+001,-3.15429268169087e+000

1.16317801385624e+005,-2.57049801834985e+001,-3.19830627913170e+000

1.17941537383287e+005,-2.57051187929096e+001,-3.24293349060763e+000

1.19587939890794e+005,-2.57052612950001e+001,-3.28818284823054e+000

1.21257325320831e+005,-2.57054077989711e+001,-3.33406300179117e+000

1.22950014503040e+005,-2.57055584170805e+001,-3.38058272034321e+000

1.24666332745679e+005,-2.57057132647274e+001,-3.42775089380438e+000

1.26406609898139e+005,-2.57058724605407e+001,-3.47557653457812e+000

1.28171180414339e+005,-2.57060361264681e+001,-3.52406877919569e+000

1.29960383416997e+005,-2.57062043878691e+001,-3.57323688997826e+000

1.31774562762811e+005,-2.57063773736097e+001,-3.62309025671744e+000

1.33614067108538e+005,-2.57065552161599e+001,-3.67363839837923e+000

1.35479249978003e+005,-2.57067380516943e+001,-3.72489096482572e+000

1.37370469830040e+005,-2.57069260201948e+001,-3.77685773855861e+000

1.39288090127379e+005,-2.57071192655564e+001,-3.82954863648457e+000

1.41232479406504e+005,-2.57073179356962e+001,-3.88297371169869e+000

1.43204011348474e+005,-2.57075221826651e+001,-3.93714315529242e+000

1.45203064850745e+005,-2.57077321627624e+001,-3.99206729818024e+000

1.47230024099979e+005,-2.57079480366540e+001,-4.04775661294859e+000

1.49285278645888e+005,-2.57081699694934e+001,-4.10422171572679e+000

1.51369223476094e+005,-2.57083981310465e+001,-4.16147336807854e+000

1.53482259092041e+005,-2.57086326958190e+001,-4.21952247891559e+000

1.55624791585964e+005,-2.57088738431883e+001,-4.27838010643393e+000

1.57797232718936e+005,-2.57091217575382e+001,-4.33805746007018e+000

1.59999999999999e+005,-2.57093766283977e+001,-4.39856590248212e+000

1.62233516766403e+005,-2.57096386505836e+001,-4.45991695154956e+000

1.64498212264969e+005,-2.57099080243466e+001,-4.52212228239806e+000

1.66794521734578e+005,-2.57101849555215e+001,-4.58519372944596e+000

1.69122886489819e+005,-2.57104696556821e+001,-4.64914328847113e+000

1.71483754005805e+005,-2.57107623422996e+001,-4.71398311870287e+000

1.73877578004168e+005,-2.57110632389051e+001,-4.77972554493458e+000

1.76304818540256e+005,-2.57113725752577e+001,-4.84638305965913e+000

1.78765942091554e+005,-2.57116905875157e+001,-4.91396832522709e+000

1.81261421647326e+005,-2.57120175184134e+001,-4.98249417602743e+000

1.83791736799524e+005,-2.57123536174424e+001,-5.05197362068973e+000

1.86357373834951e+005,-2.57126991410378e+001,-5.12241984431036e+000

1.88958825828723e+005,-2.57130543527692e+001,-5.19384621069964e+000

1.91596592739027e+005,-2.57134195235373e+001,-5.26626626465250e+000

1.94271181503206e+005,-2.57137949317753e+001,-5.33969373424052e+000

1.96983106135185e+005,-2.57141808636560e+001,-5.41414253312742e+000

1.99732887824256e+005,-2.57145776133047e+001,-5.48962676290489e+000

2.02521055035243e+005,-2.57149854830170e+001,-5.56616071545267e+000

2.05348143610063e+005,-2.57154047834833e+001,-5.64375887531858e+000

2.08214696870707e+005,-2.57158358340186e+001,-5.72243592212127e+000

2.11121265723661e+005,-2.57162789627994e+001,-5.80220673297495e+000

2.14068408765776e+005,-2.57167345071052e+001,-5.88308638493432e+000

2.17056692391625e+005,-2.57172028135686e+001,-5.96509015746237e+000

2.20086690902357e+005,-2.57176842384301e+001,-6.04823353491709e+000

2.23158986616063e+005,-2.57181791478010e+001,-6.13253220906086e+000

2.26274169979693e+005,-2.57186879179322e+001,-6.21800208158897e+000

2.29432839682530e+005,-2.57192109354914e+001,-6.30465926667927e+000

2.32635602771247e+005,-2.57197485978459e+001,-6.39252009355998e+000

2.35883074766574e+005,-2.57203013133546e+001,-6.48160110909951e+000

2.39175879781588e+005,-2.57208695016662e+001,-6.57191908041261e+000

2.42514650641661e+005,-2.57214535940263e+001,-6.66349099748669e+000

2.45900029006080e+005,-2.57220540335919e+001,-6.75633407582578e+000

2.49332665491357e+005,-2.57226712757541e+001,-6.85046575911279e+000

2.52813219796278e+005,-2.57233057884699e+001,-6.94590372188761e+000

2.56342360828676e+005,-2.57239580526014e+001,-7.04266587224253e+000

2.59920766833993e+005,-2.57246285622651e+001,-7.14077035453434e+000

2.63549125525621e+005,-2.57253178251894e+001,-7.24023555210967e+000

2.67228134217075e+005,-2.57260263630813e+001,-7.34108009004725e+000

2.70958499956006e+005,-2.57267547120033e+001,-7.44332283791214e+000

2.74740939660078e+005,-2.57275034227588e+001,-7.54698291252415e+000

2.78576180254757e+005,-2.57282730612883e+001,-7.65207968073811e+000

2.82464958813007e+005,-2.57290642090756e+001,-7.75863276223529e+000

2.86408022696948e+005,-2.57298774635638e+001,-7.86666203232565e+000

2.90406129701488e+005,-2.57307134385819e+001,-7.97618762475945e+000

2.94460048199957e+005,-2.57315727647833e+001,-8.08722993454689e+000

2.98570557291775e+005,-2.57324560900936e+001,-8.19980962078521e+000

3.02738446952187e+005,-2.57333640801707e+001,-8.31394760949239e+000

3.06964518184081e+005,-2.57342974188768e+001,-8.42966509644474e+000

3.11249583171928e+005,-2.57352568087606e+001,-8.54698355001873e+000

3.15594465437872e+005,-2.57362429715535e+001,-8.66592471403559e+000

3.19999999999997e+005,-2.57372566486760e+001,-8.78651061060522e+000

3.24467033532806e+005,-2.57382986017583e+001,-8.90876354297084e+000

3.28996424529938e+005,-2.57393696131727e+001,-9.03270609835060e+000

3.33589043469155e+005,-2.57404704865792e+001,-9.15836115077510e+000

3.38245772979638e+005,-2.57416020474846e+001,-9.28575186392014e+000

3.42967508011610e+005,-2.57427651438145e+001,-9.41490169393073e+000

3.47755156008335e+005,-2.57439606465001e+001,-9.54583439223642e+000

3.52609637080511e+005,-2.57451894500782e+001,-9.67857400835528e+000

3.57531884183106e+005,-2.57464524733056e+001,-9.81314489268360e+000

3.62522843294651e+005,-2.57477506597886e+001,-9.94957169927069e+000

3.67583473599047e+005,-2.57490849786266e+001,-1.00878793885751e+001

3.72714747669902e+005,-2.57504564250718e+001,-1.02280932302005e+001

3.77917651657445e+005,-2.57518660212028e+001,-1.03702388056086e+001

3.83193185478053e+005,-2.57533148166157e+001,-1.05143420108069e+001

3.88542363006410e+005,-2.57548038891290e+001,-1.06604290590074e+001

3.93966212270369e+005,-2.57563343455064e+001,-1.08085264832548e+001

3.99465775648511e+005,-2.57579073221953e+001,-1.09586611390201e+001

4.05042110070485e+005,-2.57595239860816e+001,-1.11108602067574e+001

4.10696287220124e+005,-2.57611855352618e+001,-1.12651511944201e+001

4.16429393741414e+005,-2.57628931998326e+001,-1.14215619399331e+001

4.22242531447321e+005,-2.57646482426969e+001,-1.15801206136179e+001

4.28136817531551e+005,-2.57664519603885e+001,-1.17408557205669e+001

4.34113384783250e+005,-2.57683056839136e+001,-1.19037961029627e+001

4.40173381804713e+005,-2.57702107796114e+001,-1.20689709423389e+001

4.46317973232124e+005,-2.57721686500323e+001,-1.22364097617785e+001

4.52548339959385e+005,-2.57741807348343e+001,-1.24061424280451e+001

4.58865679365059e+005,-2.57762485116994e+001,-1.25781991536429e+001

4.65271205542494e+005,-2.57783734972669e+001,-1.27526104988005e+001

4.71766149533147e+005,-2.57805572480879e+001,-1.29294073733749e+001

4.78351759563174e+005,-2.57828013615968e+001,-1.31086210386695e+001

4.85029301283321e+005,-2.57851074771040e+001,-1.32902831091620e+001

4.91800058012158e+005,-2.57874772768069e+001,-1.34744255541360e+001

4.98665330982714e+005,-2.57899124868205e+001,-1.36610806992124e+001

5.05626439592555e+005,-2.57924148782288e+001,-1.38502812277736e+001

5.12684721657352e+005,-2.57949862681543e+001,-1.40420601822749e+001

5.19841533667984e+005,-2.57976285208484e+001,-1.42364509654384e+001

5.27098251051240e+005,-2.58003435488012e+001,-1.44334873413216e+001

5.34456268434150e+005,-2.58031333138714e+001,-1.46332034362555e+001

5.41916999912011e+005,-2.58059998284356e+001,-1.48356337396454e+001

