Freq.,VOut,OutRef

1.00000000000000e+004,-7.33738312742819e-001,-9.75363814744532e-002

1.01395947979003e+004,-7.33738293311883e-001,-9.88979387297368e-002

1.02811382665607e+004,-7.33738273334619e-001,-1.00278502621046e-001

1.04246576084112e+004,-7.33738252795782e-001,-1.01678338470436e-001

1.05701804056138e+004,-7.33738231679537e-001,-1.03097715305030e-001

1.07177346253629e+004,-7.33738209969585e-001,-1.04536905907430e-001

1.08673486252606e+004,-7.33738187649409e-001,-1.05996186866693e-001

1.10190511587661e+004,-7.33738164701634e-001,-1.07475838635317e-001

1.11728713807222e+004,-7.33738141108591e-001,-1.08976145579506e-001

1.13288388529580e+004,-7.33738116852398e-001,-1.10497396033628e-001

1.14869835499703e+004,-7.33738091914304e-001,-1.12039882359020e-001

1.16473358646846e+004,-7.33738066275045e-001,-1.13603900998131e-001

1.18099266142953e+004,-7.33738039914935e-001,-1.15189752530995e-001

1.19747870461893e+004,-7.33738012813731e-001,-1.16797741733769e-001

1.21419488439505e+004,-7.33737984950763e-001,-1.18428177636024e-001

1.23114441334492e+004,-7.33737956304361e-001,-1.20081373583896e-001

1.24833054890161e+004,-7.33737926852632e-001,-1.21757647295300e-001

1.26575659397028e+004,-7.33737896572880e-001,-1.23457320924521e-001

1.28342589756290e+004,-7.33737865441815e-001,-1.25180721122556e-001

1.30134185544193e+004,-7.33737833435493e-001,-1.26928179100658e-001

1.31950791077289e+004,-7.33737800529474e-001,-1.28700030692081e-001

1.33792755478611e+004,-7.33737766698339e-001,-1.30496616420251e-001

1.35660432744767e+004,-7.33737731916042e-001,-1.32318281561436e-001

1.37554181813974e+004,-7.33737696155841e-001,-1.34165376211853e-001

1.39474366635040e+004,-7.33737659390337e-001,-1.36038255353781e-001

1.41421356237309e+004,-7.33737621591198e-001,-1.37937278926616e-001

1.43395524801583e+004,-7.33737582729370e-001,-1.39862811893218e-001

1.45397251732031e+004,-7.33737542774979e-001,-1.41815224311599e-001

1.47426921729110e+004,-7.33737501697370e-001,-1.43794891405034e-001

1.49484924863494e+004,-7.33737459464930e-001,-1.45802193635357e-001

1.51571656651040e+004,-7.33737416045157e-001,-1.47837516775608e-001

1.53687518128801e+004,-7.33737371404598e-001,-1.49901251984127e-001

1.55832915932100e+004,-7.33737325509137e-001,-1.51993795878153e-001

1.58008262372675e+004,-7.33737278323319e-001,-1.54115550613546e-001

1.60213975517924e+004,-7.33737229811008e-001,-1.56266923958331e-001

1.62450479271247e+004,-7.33737179934824e-001,-1.58448329374403e-001

1.64718203453514e+004,-7.33737128656391e-001,-1.60660186094371e-001

1.67017583885674e+004,-7.33737075936329e-001,-1.62902919203611e-001

1.69349062472505e+004,-7.33737021734102e-001,-1.65176959721034e-001

1.71713087287550e+004,-7.33736966008070e-001,-1.67482744682666e-001

1.74110112659224e+004,-7.33736908715328e-001,-1.69820717225643e-001

1.76540599258131e+004,-7.33736849811930e-001,-1.72191326672161e-001

1.79005014185594e+004,-7.33736789252492e-001,-1.74595028618258e-001

1.81503831063432e+004,-7.33736726990555e-001,-1.77032285018087e-001

1.84037530124975e+004,-7.33736662978125e-001,-1.79503564276567e-001

1.86606598307361e+004,-7.33736597166116e-001,-1.82009341335446e-001

1.89211529345119e+004,-7.33736529503911e-001,-1.84550097767168e-001

1.91852823865052e+004,-7.33736459939445e-001,-1.87126321867247e-001

1.94530989482457e+004,-7.33736388419214e-001,-1.89738508747471e-001

1.97246540898671e+004,-7.33736314888387e-001,-1.92387160429548e-001

1.99999999999999e+004,-7.33736239290260e-001,-1.95072785946203e-001

2.02791895958005e+004,-7.33736161566802e-001,-1.97795901433256e-001

2.05622765331213e+004,-7.33736081658256e-001,-2.00557030233144e-001

2.08493152168224e+004,-7.33735999503167e-001,-2.03356702993367e-001

2.11403608112276e+004,-7.33735915038443e-001,-2.06195457768991e-001

2.14354692507258e+004,-7.33735828199117e-001,-2.09073840126591e-001

2.17346972505211e+004,-7.33735738918322e-001,-2.11992403248883e-001

2.20381023175322e+004,-7.33735647127567e-001,-2.14951708039467e-001

2.23457427614443e+004,-7.33735552756252e-001,-2.17952323233195e-001

2.26576777059159e+004,-7.33735455731778e-001,-2.20994825503770e-001

2.29739670999406e+004,-7.33735355979708e-001,-2.24079799574395e-001

2.32946717293690e+004,-7.33735253423131e-001,-2.27207838332855e-001

2.36198532285905e+004,-7.33735147983339e-001,-2.30379542941392e-001

2.39495740923785e+004,-7.33735039579200e-001,-2.33595522954981e-001

2.42838976879009e+004,-7.33734928127501e-001,-2.36856396437503e-001

2.46228882668982e+004,-7.33734813542415e-001,-2.40162790081369e-001

2.49666109780322e+004,-7.33734695736006e-001,-2.43515339326757e-001

2.53151318794055e+004,-7.33734574617552e-001,-2.46914688485205e-001

2.56685179512580e+004,-7.33734450094040e-001,-2.50361490861555e-001

2.60268371088386e+004,-7.33734322069737e-001,-2.53856408881296e-001

2.63901582154578e+004,-7.33734190446226e-001,-2.57400114216819e-001

2.67585510957221e+004,-7.33734055122270e-001,-2.60993287917283e-001

2.71320865489533e+004,-7.33733915993880e-001,-2.64636620538738e-001

2.75108363627948e+004,-7.33733772954175e-001,-2.68330812276725e-001

2.78948733270080e+004,-7.33733625892984e-001,-2.72076573102729e-001

2.82842712474618e+004,-7.33733474697445e-001,-2.75874622897811e-001

2.86791049603164e+004,-7.33733319251229e-001,-2.79725691592951e-001

2.90794503464061e+004,-7.33733159434892e-001,-2.83630519308666e-001

2.94853843458219e+004,-7.33732995125496e-001,-2.87589856497634e-001

2.98969849726987e+004,-7.33732826196820e-001,-2.91604464087829e-001

3.03143313302078e+004,-7.33732652518942e-001,-2.95675113630734e-001

3.07375036257601e+004,-7.33732473958412e-001,-2.99802587447353e-001

3.11665831864199e+004,-7.33732290377806e-001,-3.03987678781052e-001

3.16016524745350e+004,-7.33732101636197e-001,-3.08231191946955e-001

3.20427951035848e+004,-7.33731907588387e-001,-3.12533942489581e-001

3.24900958542493e+004,-7.33731708085175e-001,-3.16896757338072e-001

3.29436406907028e+004,-7.33731502973305e-001,-3.21320474964629e-001

3.34035167771346e+004,-7.33731292094947e-001,-3.25805945547541e-001

3.38698124945009e+004,-7.33731075288097e-001,-3.30354031132001e-001

3.43426174575100e+004,-7.33730852386028e-001,-3.34965605798330e-001

3.48220225318448e+004,-7.33730623217406e-001,-3.39641555828175e-001

3.53081198516260e+004,-7.33730387606078e-001,-3.44382779876167e-001

3.58010028371187e+004,-7.33730145370922e-001,-3.49190189141017e-001

3.63007662126863e+004,-7.33729896325664e-001,-3.54064707542811e-001

3.68075060249948e+004,-7.33729640278949e-001,-3.59007271898345e-001

3.73213196614721e+004,-7.33729377033877e-001,-3.64018832103172e-001

3.78423058690237e+004,-7.33729106388044e-001,-3.69100351312886e-001

3.83705647730104e+004,-7.33728828133491e-001,-3.74252806128284e-001

3.89061978964912e+004,-7.33728542056282e-001,-3.79477186783921e-001

3.94493081797342e+004,-7.33728247936443e-001,-3.84774497338021e-001

3.99999999999998e+004,-7.33727945547916e-001,-3.90145755864951e-001

4.05583791916010e+004,-7.33727634658228e-001,-3.95591994651667e-001

4.11245530662425e+004,-7.33727315028441e-001,-4.01114260395413e-001

4.16986304336447e+004,-7.33726986412773e-001,-4.06713614405952e-001

4.22807216224550e+004,-7.33726648558604e-001,-4.12391132808416e-001

4.28709385014515e+004,-7.33726301206281e-001,-4.18147906750472e-001

4.34693945010421e+004,-7.33725944088802e-001,-4.23985042612609e-001

4.40762046350642e+004,-7.33725576931517e-001,-4.29903662220612e-001

4.46914855228886e+004,-7.33725199452272e-001,-4.35904903060635e-001

4.53153554118317e+004,-7.33724811360930e-001,-4.41989918497753e-001

4.59479341998812e+004,-7.33724412359090e-001,-4.48159877999210e-001

4.65893434587380e+004,-7.33724002140009e-001,-4.54415967357452e-001

4.72397064571810e+004,-7.33723580388354e-001,-4.60759388918865e-001

4.78991481847569e+004,-7.33723146779991e-001,-4.67191361814280e-001

4.85677953758016e+004,-7.33722700981567e-001,-4.73713122194476e-001

4.92457765337964e+004,-7.33722242650273e-001,-4.80325923467039e-001

4.99332219560642e+004,-7.33721771433925e-001,-4.87031036536632e-001

5.06302637588109e+004,-7.33721286970274e-001,-4.93829750050714e-001

5.13370359025159e+004,-7.33720788886848e-001,-5.00723370646478e-001

5.20536742176771e+004,-7.33720276800814e-001,-5.07713223201653e-001

5.27803164309155e+004,-7.33719750318461e-001,-5.14800651090173e-001

5.35171021914442e+004,-7.33719209035252e-001,-5.21987016438969e-001

5.42641730979066e+004,-7.33718652534899e-001,-5.29273700392362e-001

5.50216727255895e+004,-7.33718080389716e-001,-5.36662103373944e-001

5.57897466540159e+004,-7.33717492159870e-001,-5.44153645359193e-001

5.65685424949235e+004,-7.33716887393217e-001,-5.51749766146066e-001

5.73582099206328e+004,-7.33716265624847e-001,-5.59451925633225e-001

5.81589006928121e+004,-7.33715626376820e-001,-5.67261604099922e-001

5.89707686916437e+004,-7.33714969157732e-001,-5.75180302491031e-001

5.97939699453972e+004,-7.33714293462439e-001,-5.83209542704812e-001

6.06286626604156e+004,-7.33713598771496e-001,-5.91350867886694e-001

6.14750072515201e+004,-7.33712884550964e-001,-5.99605842724554e-001

6.23331663728396e+004,-7.33712150251786e-001,-6.07976053750892e-001

6.32033049490698e+004,-7.33711395309501e-001,-6.16463109646907e-001

6.40855902071694e+004,-7.33710619143854e-001,-6.25068641551702e-001

6.49801917084985e+004,-7.33709821158173e-001,-6.33794303376853e-001

6.58872813814055e+004,-7.33709000739195e-001,-6.42641772122473e-001

6.68070335542691e+004,-7.33708157256094e-001,-6.51612748202781e-001

6.77396249890018e+004,-7.33707290060696e-001,-6.60708955769116e-001

6.86852349150199e+004,-7.33706398486332e-001,-6.69932143044569e-001

6.96440450636895e+004,-7.33705481847719e-001,-6.79284082658446e-001

7.06162397032520e+004,-7.33704539440274e-001,-6.88766571987629e-001

7.16020056742374e+004,-7.33703570539607e-001,-6.98381433502243e-001

7.26015324253724e+004,-7.33702574400946e-001,-7.08130515115759e-001

7.36150120499896e+004,-7.33701550258644e-001,-7.18015690540096e-001

7.46426393229441e+004,-7.33700497325537e-001,-7.28038859646159e-001

7.56846117380472e+004,-7.33699414792259e-001,-7.38201948829840e-001

7.67411295460207e+004,-7.33698301826703e-001,-7.48506911381204e-001

7.78123957929823e+004,-7.33697157573533e-001,-7.58955727860132e-001

7.88986163594682e+004,-7.33695981153114e-001,-7.69550406478421e-001

7.99999999999995e+004,-7.33694771661339e-001,-7.80292983484408e-001

8.11167583832018e+004,-7.33693528168518e-001,-7.91185523555707e-001

8.22491061324848e+004,-7.33692249718862e-001,-8.02230120195609e-001

8.33972608672892e+004,-7.33690935329819e-001,-8.13428896135036e-001

8.45614432449099e+004,-7.33689583991051e-001,-8.24784003742394e-001

8.57418770029029e+004,-7.33688194664002e-001,-8.36297625436105e-001

8.69387890020841e+004,-7.33686766280864e-001,-8.47971974103986e-001

8.81524092701283e+004,-7.33685297743686e-001,-8.59809293530956e-001

8.93829710457770e+004,-7.33683787923878e-001,-8.71811858827759e-001

9.06307108236633e+004,-7.33682235661035e-001,-8.83981976870111e-001

9.18958683997622e+004,-7.33680639762065e-001,-8.96321986742538e-001

9.31786869174758e+004,-7.33678999000441e-001,-9.08834260187051e-001

9.44794129143618e+004,-7.33677312115133e-001,-9.21521202060242e-001

9.57982963695136e+004,-7.33675577809746e-001,-9.34385250795025e-001

9.71355907516031e+004,-7.33673794751305e-001,-9.47428878870942e-001

9.84915530675926e+004,-7.33671961569489e-001,-9.60654593288002e-001

9.98664439121282e+004,-7.33670076855474e-001,-9.74064936049996e-001

1.01260527517622e+005,-7.33668139160703e-001,-9.87662484653447e-001

1.02674071805032e+005,-7.33666146996110e-001,-1.00144985258235e+000

1.04107348435354e+005,-7.33664098830661e-001,-1.01542968981221e+000

1.05560632861831e+005,-7.33661993090338e-001,-1.02960468331866e+000

1.07034204382888e+005,-7.33659828156883e-001,-1.04397755759509e+000

1.08528346195813e+005,-7.33657602366529e-001,-1.05855107517655e+000

1.10043345451179e+005,-7.33655314008819e-001,-1.07332803717080e+000

1.11579493308032e+005,-7.33652961325252e-001,-1.08831128379734e+000

1.13137084989847e+005,-7.33650542507793e-001,-1.10350369493466e+000

1.14716419841265e+005,-7.33648055697768e-001,-1.11890819067239e+000

1.16317801385624e+005,-7.33645498984117e-001,-1.13452773187535e+000

1.17941537383287e+005,-7.33642870402186e-001,-1.15036532075146e+000

1.19587939890794e+005,-7.33640167932107e-001,-1.16642400143008e+000

1.21257325320831e+005,-7.33637389497262e-001,-1.18270686054793e+000

1.22950014503040e+005,-7.33634532962655e-001,-1.19921702784244e+000

1.24666332745679e+005,-7.33631596133327e-001,-1.21595767675434e+000

1.26406609898139e+005,-7.33628576752615e-001,-1.23293202503860e+000

1.28171180414339e+005,-7.33625472500548e-001,-1.25014333538274e+000

1.29960383416997e+005,-7.33622280991879e-001,-1.26759491603550e+000

1.31774562762811e+005,-7.33618999774439e-001,-1.28529012144318e+000

1.33614067108538e+005,-7.33615626327103e-001,-1.30323235289546e+000

1.35479249978003e+005,-7.33612158057922e-001,-1.32142505917987e+000

1.37370469830040e+005,-7.33608592302176e-001,-1.33987173724525e+000

1.39288090127379e+005,-7.33604926320228e-001,-1.35857593287556e+000

1.41232479406504e+005,-7.33601157295625e-001,-1.37754124137151e+000

1.43204011348474e+005,-7.33597282332605e-001,-1.39677130824394e+000

1.45203064850745e+005,-7.33593298454201e-001,-1.41626982991397e+000

1.47230024099979e+005,-7.33589202599820e-001,-1.43604055442574e+000

1.49285278645888e+005,-7.33584991622796e-001,-1.45608728216803e+000

1.51369223476094e+005,-7.33580662288246e-001,-1.47641386660500e+000

1.53482259092041e+005,-7.33576211270302e-001,-1.49702421501914e+000

1.55624791585964e+005,-7.33571635149721e-001,-1.51792228926346e+000

1.57797232718936e+005,-7.33566930411260e-001,-1.53911210652367e+000

1.59999999999999e+005,-7.33562093440967e-001,-1.56059774009246e+000

1.62233516766403e+005,-7.33557120523351e-001,-1.58238332015426e+000

1.64498212264969e+005,-7.33552007838574e-001,-1.60447303457968e+000

1.66794521734578e+005,-7.33546751459596e-001,-1.62687112973286e+000

1.69122886489819e+005,-7.33541347349060e-001,-1.64958191128929e+000

1.71483754005805e+005,-7.33535791356243e-001,-1.67260974506508e+000

1.73877578004168e+005,-7.33530079213905e-001,-1.69595905785802e+000

1.76304818540256e+005,-7.33524206534962e-001,-1.71963433830066e+000

1.78765942091554e+005,-7.33518168809191e-001,-1.74364013772474e+000

1.81261421647326e+005,-7.33511961399710e-001,-1.76798107103846e+000

1.83791736799524e+005,-7.33505579539450e-001,-1.79266181761586e+000

1.86357373834951e+005,-7.33499018327550e-001,-1.81768712219828e+000

1.88958825828723e+005,-7.33492272725613e-001,-1.84306179580874e+000

1.91596592739027e+005,-7.33485337553704e-001,-1.86879071667968e+000

1.94271181503206e+005,-7.33478207486568e-001,-1.89487883119288e+000

1.96983106135185e+005,-7.33470877049458e-001,-1.92133115483337e+000

1.99732887824256e+005,-7.33463340613946e-001,-1.94815277315566e+000

2.02521055035243e+005,-7.33455592393689e-001,-1.97534884276526e+000

2.05348143610063e+005,-7.33447626439901e-001,-2.00292459231218e+000

2.08214696870707e+005,-7.33439436636892e-001,-2.03088532349960e+000

2.11121265723661e+005,-7.33431016697328e-001,-2.05923641210631e+000

2.14068408765776e+005,-7.33422360157507e-001,-2.08798330902338e+000

2.17056692391625e+005,-7.33413460372356e-001,-2.11713154130617e+000

2.20086690902357e+005,-7.33404310510250e-001,-2.14668671324030e+000

2.23158986616063e+005,-7.33394903547976e-001,-2.17665450742274e+000

2.26274169979693e+005,-7.33385232265428e-001,-2.20704068585827e+000

2.29432839682530e+005,-7.33375289239757e-001,-2.23785109107226e+000

2.32635602771247e+005,-7.33365066839938e-001,-2.26909164723742e+000

2.35883074766574e+005,-7.33354557221060e-001,-2.30076836131766e+000

2.39175879781588e+005,-7.33343752318006e-001,-2.33288732422791e+000

2.42514650641661e+005,-7.33332643839599e-001,-2.36545471200977e+000

2.45900029006080e+005,-7.33321223262061e-001,-2.39847678702454e+000

2.49332665491357e+005,-7.33309481822692e-001,-2.43195989916249e+000

2.52813219796278e+005,-7.33297410512996e-001,-2.46591048706904e+000

2.56342360828676e+005,-7.33285000072033e-001,-2.50033507938906e+000

2.59920766833993e+005,-7.33272240979169e-001,-2.53524029602796e+000

2.63549125525621e+005,-7.33259123446812e-001,-2.57063284943145e+000

2.67228134217075e+005,-7.33245637413217e-001,-2.60651954588171e+000

2.70958499956006e+005,-7.33231772534465e-001,-2.64290728681422e+000

2.74740939660078e+005,-7.33217518176768e-001,-2.67980307015155e+000

2.78576180254757e+005,-7.33202863408462e-001,-2.71721399165615e+000

2.82464958813007e+005,-7.33187796991479e-001,-2.75514724630307e+000

2.86408022696948e+005,-7.33172307372897e-001,-2.79361012967167e+000

2.90406129701488e+005,-7.33156382676213e-001,-2.83261003935660e+000

2.94460048199957e+005,-7.33140010692151e-001,-2.87215447639984e+000

2.98570557291775e+005,-7.33123178869525e-001,-2.91225104674209e+000

3.02738446952187e+005,-7.33105874305652e-001,-2.95290746269467e+000

3.06964518184081e+005,-7.33088083736480e-001,-2.99413154443370e+000

3.11249583171928e+005,-7.33069793526609e-001,-3.03593122151359e+000

3.15594465437872e+005,-7.33050989658872e-001,-3.07831453440341e+000

3.19999999999997e+005,-7.33031657723755e-001,-3.12128963604434e+000

3.24467033532806e+005,-7.33011782908382e-001,-3.16486479342986e+000

3.28996424529938e+005,-7.32991349985331e-001,-3.20904838920771e+000

3.33589043469155e+005,-7.32970343301079e-001,-3.25384892330523e+000

3.38245772979638e+005,-7.32948746764145e-001,-3.29927501457784e+000

3.42967508011610e+005,-7.32926543832860e-001,-3.34533540248029e+000

3.47755156008335e+005,-7.32903717502901e-001,-3.39203894876262e+000

3.52609637080511e+005,-7.32880250294296e-001,-3.43939463918983e+000

3.57531884183106e+005,-7.32856124238412e-001,-3.48741158528603e+000

3.62522843294651e+005,-7.32831320864078e-001,-3.53609902610406e+000

3.67583473599047e+005,-7.32805821183887e-001,-3.58546633001921e+000

3.72714747669902e+005,-7.32779605679699e-001,-3.63552299655018e+000

3.77917651657445e+005,-7.32752654287927e-001,-3.68627865820465e+000

3.83193185478053e+005,-7.32724946384348e-001,-3.73774308235232e+000

3.88542363006410e+005,-7.32696460768692e-001,-3.78992617312373e+000

3.93966212270369e+005,-7.32667175648436e-001,-3.84283797333758e+000

3.99465775648511e+005,-7.32637068622587e-001,-3.89648866645448e+000

4.05042110070485e+005,-7.32606116664590e-001,-3.95088857855962e+000

4.10696287220124e+005,-7.32574296105262e-001,-4.00604818037305e+000

4.16429393741414e+005,-7.32541582614695e-001,-4.06197808929030e+000

4.22242531447321e+005,-7.32507951184151e-001,-4.11868907145051e+000

4.28136817531551e+005,-7.32473376107280e-001,-4.17619204383550e+000

4.34113384783250e+005,-7.32437830960565e-001,-4.23449807639952e+000

4.40173381804713e+005,-7.32401288583878e-001,-4.29361839422811e+000

4.46317973232124e+005,-7.32363721059762e-001,-4.35356437972956e+000

4.52548339959385e+005,-7.32325099692692e-001,-4.41434757485776e+000

4.58865679365059e+005,-7.32285394987577e-001,-4.47597968336636e+000

4.65271205542494e+005,-7.32244576627587e-001,-4.53847257309680e+000

4.71766149533147e+005,-7.32202613451586e-001,-4.60183827829853e+000

4.78351759563174e+005,-7.32159473430803e-001,-4.66608900198336e+000

4.85029301283321e+005,-7.32115123644882e-001,-4.73123711831372e+000

4.91800058012158e+005,-7.32069530257454e-001,-4.79729517502602e+000

4.98665330982714e+005,-7.32022658490774e-001,-4.86427589588883e+000

5.05626439592555e+005,-7.31974472599830e-001,-4.93219218319725e+000

5.12684721657352e+005,-7.31924935845903e-001,-5.00105712030322e+000

5.19841533667984e+005,-7.31874010469062e-001,-5.07088397418331e+000

5.27098251051240e+005,-7.31821657660322e-001,-5.14168619804322e+000

5.34456268434150e+005,-7.31767837532665e-001,-5.21347743396161e+000

5.41916999912011e+005,-7.31712509091613e-001,-5.28627151557156e+000

