Freq.,VOut,OutRef

1.00000000000000e+004,-1.59006879728221e+001,-1.21664205064258e-001

1.01395947979003e+004,-1.59006880538745e+001,-1.23362573717873e-001

1.02811382665607e+004,-1.59006881372056e+001,-1.25084650699502e-001

1.04246576084112e+004,-1.59006882228796e+001,-1.26830766963501e-001

1.05701804056138e+004,-1.59006883109620e+001,-1.28601258086040e-001

1.07177346253629e+004,-1.59006884015209e+001,-1.30396464326266e-001

1.08673486252606e+004,-1.59006884946256e+001,-1.32216730693972e-001

1.10190511587661e+004,-1.59006885903480e+001,-1.34062407013904e-001

1.11728713807222e+004,-1.59006886887613e+001,-1.35933847996936e-001

1.13288388529580e+004,-1.59006887899416e+001,-1.37831413300718e-001

1.14869835499703e+004,-1.59006888939664e+001,-1.39755467608508e-001

1.16473358646846e+004,-1.59006890009157e+001,-1.41706380691220e-001

1.18099266142953e+004,-1.59006891108718e+001,-1.43684527482589e-001

1.19747870461893e+004,-1.59006892239192e+001,-1.45690288150054e-001

1.21419488439505e+004,-1.59006893401447e+001,-1.47724048168123e-001

1.23114441334492e+004,-1.59006894596377e+001,-1.49786198392249e-001

1.24833054890161e+004,-1.59006895824902e+001,-1.51877135133063e-001

1.26575659397028e+004,-1.59006897087965e+001,-1.53997260235128e-001

1.28342589756290e+004,-1.59006898386537e+001,-1.56146981150920e-001

1.30134185544193e+004,-1.59006899721617e+001,-1.58326711021330e-001

1.31950791077289e+004,-1.59006901094232e+001,-1.60536868754878e-001

1.33792755478611e+004,-1.59006902505437e+001,-1.62777879106272e-001

1.35660432744767e+004,-1.59006903956314e+001,-1.65050172762963e-001

1.37554181813974e+004,-1.59006905447983e+001,-1.67354186419245e-001

1.39474366635040e+004,-1.59006906981587e+001,-1.69690362870454e-001

1.41421356237309e+004,-1.59006908558307e+001,-1.72059151089555e-001

1.43395524801583e+004,-1.59006910179354e+001,-1.74461006319454e-001

1.45397251732031e+004,-1.59006911845975e+001,-1.76896390155419e-001

1.47426921729110e+004,-1.59006913559451e+001,-1.79365770637367e-001

1.49484924863494e+004,-1.59006915321100e+001,-1.81869622339997e-001

1.51571656651040e+004,-1.59006917132274e+001,-1.84408426461791e-001

1.53687518128801e+004,-1.59006918994367e+001,-1.86982670917122e-001

1.55832915932100e+004,-1.59006920908812e+001,-1.89592850432776e-001

1.58008262372675e+004,-1.59006922877079e+001,-1.92239466640824e-001

1.60213975517924e+004,-1.59006924900681e+001,-1.94923028177696e-001

1.62450479271247e+004,-1.59006926981174e+001,-1.97644050776883e-001

1.64718203453514e+004,-1.59006929120157e+001,-2.00403057374382e-001

1.67017583885674e+004,-1.59006931319276e+001,-2.03200578202722e-001

1.69349062472505e+004,-1.59006933580219e+001,-2.06037150899649e-001

1.71713087287550e+004,-1.59006935904727e+001,-2.08913320603599e-001

1.74110112659224e+004,-1.59006938294586e+001,-2.11829640067188e-001

1.76540599258131e+004,-1.59006940751632e+001,-2.14786669756171e-001

1.79005014185594e+004,-1.59006943277754e+001,-2.17784977961326e-001

1.81503831063432e+004,-1.59006945874895e+001,-2.20825140906108e-001

1.84037530124975e+004,-1.59006948545053e+001,-2.23907742855649e-001

1.86606598307361e+004,-1.59006951290278e+001,-2.27033376234724e-001

1.89211529345119e+004,-1.59006954112681e+001,-2.30202641734900e-001

1.91852823865052e+004,-1.59006957014432e+001,-2.33416148434051e-001

1.94530989482457e+004,-1.59006959997764e+001,-2.36674513911302e-001

1.97246540898671e+004,-1.59006963064967e+001,-2.39978364369122e-001

1.99999999999999e+004,-1.59006966218402e+001,-2.43328334747472e-001

2.02791895958005e+004,-1.59006969460490e+001,-2.46725068853649e-001

2.05622765331213e+004,-1.59006972793726e+001,-2.50169219479533e-001

2.08493152168224e+004,-1.59006976220672e+001,-2.53661448528839e-001

2.11403608112276e+004,-1.59006979743961e+001,-2.57202427147794e-001

2.14354692507258e+004,-1.59006983366304e+001,-2.60792835847605e-001

2.17346972505211e+004,-1.59006987090484e+001,-2.64433364641449e-001

2.20381023175322e+004,-1.59006990919365e+001,-2.68124713173857e-001

2.23457427614443e+004,-1.59006994855889e+001,-2.71867590855736e-001

2.26576777059159e+004,-1.59006998903083e+001,-2.75662716999908e-001

2.29739670999406e+004,-1.59007003064060e+001,-2.79510820960880e-001

2.32946717293690e+004,-1.59007007342018e+001,-2.83412642273953e-001

2.36198532285905e+004,-1.59007011740243e+001,-2.87368930799057e-001

2.39495740923785e+004,-1.59007016262119e+001,-2.91380446861756e-001

2.42838976879009e+004,-1.59007020911122e+001,-2.95447961400999e-001

2.46228882668982e+004,-1.59007025690826e+001,-2.99572256118640e-001

2.49666109780322e+004,-1.59007030604905e+001,-3.03754123626869e-001

2.53151318794055e+004,-1.59007035657135e+001,-3.07994367603715e-001

2.56685179512580e+004,-1.59007040851403e+001,-3.12293802943647e-001

2.60268371088386e+004,-1.59007046191701e+001,-3.16653255917276e-001

2.63901582154578e+004,-1.59007051682135e+001,-3.21073564329258e-001

2.67585510957221e+004,-1.59007057326924e+001,-3.25555577679473e-001

2.71320865489533e+004,-1.59007063130408e+001,-3.30100157325161e-001

2.75108363627948e+004,-1.59007069097051e+001,-3.34708176646354e-001

2.78948733270080e+004,-1.59007075231436e+001,-3.39380521217356e-001

2.82842712474618e+004,-1.59007081538282e+001,-3.44118088970876e-001

2.86791049603164e+004,-1.59007088022436e+001,-3.48921790375449e-001

2.90794503464061e+004,-1.59007094688884e+001,-3.53792548608369e-001

2.94853843458219e+004,-1.59007101542749e+001,-3.58731299734138e-001

2.98969849726987e+004,-1.59007108589301e+001,-3.63738992881928e-001

3.03143313302078e+004,-1.59007115833957e+001,-3.68816590431759e-001

3.07375036257601e+004,-1.59007123282286e+001,-3.73965068195321e-001

3.11665831864199e+004,-1.59007130940014e+001,-3.79185415606185e-001

3.16016524745350e+004,-1.59007138813029e+001,-3.84478635909933e-001

3.20427951035848e+004,-1.59007146907381e+001,-3.89845746355534e-001

3.24900958542493e+004,-1.59007155229296e+001,-3.95287778390420e-001

3.29436406907028e+004,-1.59007163785169e+001,-4.00805777860666e-001

3.34035167771346e+004,-1.59007172581578e+001,-4.06400805212370e-001

3.38698124945009e+004,-1.59007181625285e+001,-4.12073935690970e-001

3.43426174575100e+004,-1.59007190923243e+001,-4.17826259552846e-001

3.48220225318448e+004,-1.59007200482599e+001,-4.23658882272875e-001

3.53081198516260e+004,-1.59007210310702e+001,-4.29572924756113e-001

3.58010028371187e+004,-1.59007220415108e+001,-4.35569523553514e-001

3.63007662126863e+004,-1.59007230803584e+001,-4.41649831080701e-001

3.68075060249948e+004,-1.59007241484116e+001,-4.47815015840713e-001

3.73213196614721e+004,-1.59007252464916e+001,-4.54066262644842e-001

3.78423058690237e+004,-1.59007263754423e+001,-4.60404772844177e-001

3.83705647730104e+004,-1.59007275361317e+001,-4.66831764558754e-001

3.89061978964912e+004,-1.59007287294522e+001,-4.73348472908862e-001

3.94493081797342e+004,-1.59007299563211e+001,-4.79956150258688e-001

3.99999999999998e+004,-1.59007312176814e+001,-4.86656066451588e-001

4.05583791916010e+004,-1.59007325145028e+001,-4.93449509055442e-001

4.11245530662425e+004,-1.59007338477824e+001,-5.00337783610268e-001

4.16986304336447e+004,-1.59007352185449e+001,-5.07322213880610e-001

4.22807216224550e+004,-1.59007366278443e+001,-5.14404142105570e-001

4.28709385014515e+004,-1.59007380767637e+001,-5.21584929262529e-001

4.34693945010421e+004,-1.59007395664172e+001,-5.28865955322703e-001

4.40762046350642e+004,-1.59007410979498e+001,-5.36248619520998e-001

4.46914855228886e+004,-1.59007426725390e+001,-5.43734340621534e-001

4.53153554118317e+004,-1.59007442913950e+001,-5.51324557192256e-001

4.59479341998812e+004,-1.59007459557624e+001,-5.59020727880662e-001

4.65893434587380e+004,-1.59007476669207e+001,-5.66824331692805e-001

4.72397064571810e+004,-1.59007494261853e+001,-5.74736868279182e-001

4.78991481847569e+004,-1.59007512349085e+001,-5.82759858221991e-001

4.85677953758016e+004,-1.59007530944808e+001,-5.90894843328028e-001

4.92457765337964e+004,-1.59007550063317e+001,-5.99143386922713e-001

4.99332219560642e+004,-1.59007569719307e+001,-6.07507074153303e-001

5.06302637588109e+004,-1.59007589927892e+001,-6.15987512289685e-001

5.13370359025159e+004,-1.59007610704604e+001,-6.24586331037597e-001

5.20536742176771e+004,-1.59007632065414e+001,-6.33305182848443e-001

5.27803164309155e+004,-1.59007654026744e+001,-6.42145743237281e-001

5.35171021914442e+004,-1.59007676605476e+001,-6.51109711105197e-001

5.42641730979066e+004,-1.59007699818965e+001,-6.60198809065645e-001

5.50216727255895e+004,-1.59007723685058e+001,-6.69414783773590e-001

5.57897466540159e+004,-1.59007748222099e+001,-6.78759406264573e-001

5.65685424949235e+004,-1.59007773448951e+001,-6.88234472291178e-001

5.73582099206328e+004,-1.59007799385005e+001,-6.97841802670014e-001

5.81589006928121e+004,-1.59007826050200e+001,-7.07583243629701e-001

5.89707686916437e+004,-1.59007853465033e+001,-7.17460667167848e-001

5.97939699453972e+004,-1.59007881650577e+001,-7.27475971408795e-001

6.06286626604156e+004,-1.59007910628499e+001,-7.37631080968140e-001

6.14750072515201e+004,-1.59007940421075e+001,-7.47927947322712e-001

6.23331663728396e+004,-1.59007971051206e+001,-7.58368549185822e-001

6.32033049490698e+004,-1.59008002542436e+001,-7.68954892886711e-001

6.40855902071694e+004,-1.59008034918974e+001,-7.79689012755409e-001

6.49801917084985e+004,-1.59008068205706e+001,-7.90572971513647e-001

6.58872813814055e+004,-1.59008102428219e+001,-8.01608860672193e-001

6.68070335542691e+004,-1.59008137612821e+001,-8.12798800929172e-001

6.77396249890018e+004,-1.59008173786557e+001,-8.24144942581610e-001

6.86852349150199e+004,-1.59008210977233e+001,-8.35649465934575e-001

6.96440450636895e+004,-1.59008249213437e+001,-8.47314581721645e-001

7.06162397032520e+004,-1.59008288524560e+001,-8.59142531528974e-001

7.16020056742374e+004,-1.59008328940819e+001,-8.71135588225722e-001

7.26015324253724e+004,-1.59008370493280e+001,-8.83296056400045e-001

7.36150120499896e+004,-1.59008413213886e+001,-8.95626272801256e-001

7.46426393229441e+004,-1.59008457135472e+001,-9.08128606790131e-001

7.56846117380472e+004,-1.59008502291800e+001,-9.20805460790259e-001

7.67411295460207e+004,-1.59008548717580e+001,-9.33659270753611e-001

7.78123957929823e+004,-1.59008596448496e+001,-9.46692506624796e-001

7.88986163594682e+004,-1.59008645521238e+001,-9.59907672815435e-001

7.99999999999995e+004,-1.59008695973525e+001,-9.73307308687053e-001

8.11167583832018e+004,-1.59008747844137e+001,-9.86893989035829e-001

8.22491061324848e+004,-1.59008801172944e+001,-1.00067032458811e+000

8.33972608672892e+004,-1.59008856000936e+001,-1.01463896250142e+000

8.45614432449099e+004,-1.59008912370256e+001,-1.02880258687252e+000

8.57418770029029e+004,-1.59008970324231e+001,-1.04316391925102e+000

8.69387890020841e+004,-1.59009029907406e+001,-1.05772571916332e+000

8.81524092701283e+004,-1.59009091165578e+001,-1.07249078464186e+000

8.93829710457770e+004,-1.59009154145831e+001,-1.08746195276055e+000

9.06307108236633e+004,-1.59009218896572e+001,-1.10264210018113e+000

9.18958683997622e+004,-1.59009285467569e+001,-1.11803414370410e+000

9.31786869174758e+004,-1.59009353909989e+001,-1.13364104082684e+000

9.44794129143618e+004,-1.59009424276437e+001,-1.14946579031347e+000

9.57982963695136e+004,-1.59009496620995e+001,-1.16551143276854e+000

9.71355907516031e+004,-1.59009570999268e+001,-1.18178105122076e+000

9.84915530675926e+004,-1.59009647468420e+001,-1.19827777171413e+000

9.98664439121282e+004,-1.59009726087225e+001,-1.21500476390677e+000

1.01260527517622e+005,-1.59009806916105e+001,-1.23196524168077e+000

1.02674071805032e+005,-1.59009890017186e+001,-1.24916246375561e+000

1.04107348435354e+005,-1.59009975454333e+001,-1.26659973431612e+000

1.05560632861831e+005,-1.59010063293211e+001,-1.28428040364372e+000

1.07034204382888e+005,-1.59010153601327e+001,-1.30220786875992e+000

1.08528346195813e+005,-1.59010246448087e+001,-1.32038557407688e+000

1.10043345451179e+005,-1.59010341904848e+001,-1.33881701205786e+000

1.11579493308032e+005,-1.59010440044971e+001,-1.35750572388781e+000

1.13137084989847e+005,-1.59010540943878e+001,-1.37645530014967e+000

1.14716419841265e+005,-1.59010644679111e+001,-1.39566938151564e+000

1.16317801385624e+005,-1.59010751330394e+001,-1.41515165944170e+000

1.17941537383287e+005,-1.59010860979685e+001,-1.43490587687808e+000

1.19587939890794e+005,-1.59010973711251e+001,-1.45493582898387e+000

1.21257325320831e+005,-1.59011089611723e+001,-1.47524536385563e+000

1.22950014503040e+005,-1.59011208770169e+001,-1.49583838326435e+000

1.24666332745679e+005,-1.59011331278158e+001,-1.51671884340245e+000

1.26406609898139e+005,-1.59011457229833e+001,-1.53789075564145e+000

1.28171180414339e+005,-1.59011586721981e+001,-1.55935818730183e+000

1.29960383416997e+005,-1.59011719854109e+001,-1.58112526242994e+000

1.31774562762811e+005,-1.59011856728520e+001,-1.60319616258878e+000

1.33614067108538e+005,-1.59011997450392e+001,-1.62557512765868e+000

1.35479249978003e+005,-1.59012142127857e+001,-1.64826645664807e+000

1.37370469830040e+005,-1.59012290872085e+001,-1.67127450851818e+000

1.39288090127379e+005,-1.59012443797371e+001,-1.69460370301546e+000

1.41232479406504e+005,-1.59012601021219e+001,-1.71825852151885e+000

1.43204011348474e+005,-1.59012762664436e+001,-1.74224350789657e+000

1.45203064850745e+005,-1.59012928851222e+001,-1.76656326937611e+000

1.47230024099979e+005,-1.59013099709266e+001,-1.79122247742530e+000

1.49285278645888e+005,-1.59013275369843e+001,-1.81622586864603e+000

1.51369223476094e+005,-1.59013455967919e+001,-1.84157824568035e+000

1.53482259092041e+005,-1.59013641642248e+001,-1.86728447812859e+000

1.55624791585964e+005,-1.59013832535483e+001,-1.89334950348089e+000

1.57797232718936e+005,-1.59014028794286e+001,-1.91977832806063e+000

1.59999999999999e+005,-1.59014230569434e+001,-1.94657602798255e+000

1.62233516766403e+005,-1.59014438015945e+001,-1.97374775012175e+000

1.64498212264969e+005,-1.59014651293185e+001,-2.00129871309803e+000

1.66794521734578e+005,-1.59014870565002e+001,-2.02923420827226e+000

1.69122886489819e+005,-1.59015095999841e+001,-2.05755960075854e+000

1.71483754005805e+005,-1.59015327770881e+001,-2.08628033044756e+000

1.73877578004168e+005,-1.59015566056163e+001,-2.11540191304639e+000

1.76304818540256e+005,-1.59015811038728e+001,-2.14492994113138e+000

1.78765942091554e+005,-1.59016062906761e+001,-2.17487008521577e+000

1.81261421647326e+005,-1.59016321853725e+001,-2.20522809483225e+000

1.83791736799524e+005,-1.59016588078522e+001,-2.23600979962990e+000

1.86357373834951e+005,-1.59016861785637e+001,-2.26722111048642e+000

1.88958825828723e+005,-1.59017143185294e+001,-2.29886802063628e+000

1.91596592739027e+005,-1.59017432493625e+001,-2.33095660681260e+000

1.94271181503206e+005,-1.59017729932827e+001,-2.36349303040739e+000

1.96983106135185e+005,-1.59018035731336e+001,-2.39648353864481e+000

1.99732887824256e+005,-1.59018350124002e+001,-2.42993446577182e+000

2.02521055035243e+005,-1.59018673352268e+001,-2.46385223426664e+000

2.05348143610063e+005,-1.59019005664356e+001,-2.49824335606021e+000

2.08214696870707e+005,-1.59019347315454e+001,-2.53311443377790e+000

2.11121265723661e+005,-1.59019698567916e+001,-2.56847216199614e+000

2.14068408765776e+005,-1.59020059691458e+001,-2.60432332851674e+000

2.17056692391625e+005,-1.59020430963368e+001,-2.64067481565840e+000

2.20086690902357e+005,-1.59020812668716e+001,-2.67753360156699e+000

2.23158986616063e+005,-1.59021205100574e+001,-2.71490676154105e+000

2.26274169979693e+005,-1.59021608560237e+001,-2.75280146937921e+000

2.29432839682530e+005,-1.59022023357457e+001,-2.79122499874219e+000

2.32635602771247e+005,-1.59022449810677e+001,-2.83018472453544e+000

2.35883074766574e+005,-1.59022888247276e+001,-2.86968812431034e+000

2.39175879781588e+005,-1.59023339003820e+001,-2.90974277968391e+000

2.42514650641661e+005,-1.59023802426317e+001,-2.95035637777822e+000

2.45900029006080e+005,-1.59024278870481e+001,-2.99153671267909e+000

2.49332665491357e+005,-1.59024768702010e+001,-3.03329168691472e+000

2.52813219796278e+005,-1.59025272296855e+001,-3.07562931295429e+000

2.56342360828676e+005,-1.59025790041517e+001,-3.11855771472651e+000

2.59920766833993e+005,-1.59026322333336e+001,-3.16208512915942e+000

2.63549125525621e+005,-1.59026869580797e+001,-3.20621990774016e+000

2.67228134217075e+005,-1.59027432203840e+001,-3.25097051809706e+000

2.70958499956006e+005,-1.59028010634183e+001,-3.29634554560057e+000

2.74740939660078e+005,-1.59028605315648e+001,-3.34235369498913e+000

2.78576180254757e+005,-1.59029216704503e+001,-3.38900379201397e+000

2.82464958813007e+005,-1.59029845269809e+001,-3.43630478510776e+000

2.86408022696948e+005,-1.59030491493776e+001,-3.48426574707458e+000

2.90406129701488e+005,-1.59031155872131e+001,-3.53289587680353e+000

2.94460048199957e+005,-1.59031838914498e+001,-3.58220450100454e+000

2.98570557291775e+005,-1.59032541144785e+001,-3.63220107596771e+000

3.02738446952187e+005,-1.59033263101582e+001,-3.68289518934625e+000

3.06964518184081e+005,-1.59034005338572e+001,-3.73429656196266e+000

3.11249583171928e+005,-1.59034768424953e+001,-3.78641504963955e+000

3.15594465437872e+005,-1.59035552945871e+001,-3.83926064505511e+000

3.19999999999997e+005,-1.59036359502866e+001,-3.89284347962172e+000

3.24467033532806e+005,-1.59037188714327e+001,-3.94717382539198e+000

3.28996424529938e+005,-1.59038041215964e+001,-4.00226209698680e+000

3.33589043469155e+005,-1.59038917661294e+001,-4.05811885355219e+000

3.38245772979638e+005,-1.59039818722132e+001,-4.11475480073939e+000

3.42967508011610e+005,-1.59040745089107e+001,-4.17218079271319e+000

3.47755156008335e+005,-1.59041697472181e+001,-4.23040783418445e+000

3.52609637080511e+005,-1.59042676601194e+001,-4.28944708247176e+000

3.57531884183106e+005,-1.59043683226413e+001,-4.34930984958746e+000

3.62522843294651e+005,-1.59044718119103e+001,-4.41000760435408e+000

3.67583473599047e+005,-1.59045782072115e+001,-4.47155197454524e+000

3.72714747669902e+005,-1.59046875900482e+001,-4.53395474905679e+000

3.77917651657445e+005,-1.59048000442037e+001,-4.59722788010579e+000

3.83193185478053e+005,-1.59049156558054e+001,-4.66138348545645e+000

3.88542363006410e+005,-1.59050345133894e+001,-4.72643385067746e+000

3.93966212270369e+005,-1.59051567079674e+001,-4.79239143142635e+000

3.99465775648511e+005,-1.59052823330963e+001,-4.85926885576451e+000

4.05042110070485e+005,-1.59054114849483e+001,-4.92707892650184e+000

4.10696287220124e+005,-1.59055442623837e+001,-4.99583462357095e+000

4.16429393741414e+005,-1.59056807670258e+001,-5.06554910643254e+000

4.22242531447321e+005,-1.59058211033375e+001,-5.13623571651107e+000

4.28136817531551e+005,-1.59059653787002e+001,-5.20790797966122e+000

4.34113384783250e+005,-1.59061137034946e+001,-5.28057960866665e+000

4.40173381804713e+005,-1.59062661911843e+001,-5.35426450576943e+000

4.46317973232124e+005,-1.59064229584009e+001,-5.42897676523149e+000

4.52548339959385e+005,-1.59065841250323e+001,-5.50473067592920e+000

4.58865679365059e+005,-1.59067498143123e+001,-5.58154072397986e+000

4.65271205542494e+005,-1.59069201529138e+001,-5.65942159540102e+000

4.71766149533147e+005,-1.59070952710442e+001,-5.73838817880295e+000

4.78351759563174e+005,-1.59072753025424e+001,-5.81845556811524e+000

4.85029301283321e+005,-1.59074603849800e+001,-5.89963906534661e+000

4.91800058012158e+005,-1.59076506597644e+001,-5.98195418337860e+000

4.98665330982714e+005,-1.59078462722447e+001,-6.06541664879389e+000

5.05626439592555e+005,-1.59080473718205e+001,-6.15004240473947e+000

5.12684721657352e+005,-1.59082541120541e+001,-6.23584761382474e+000

5.19841533667984e+005,-1.59084666507849e+001,-6.32284866105413e+000

5.27098251051240e+005,-1.59086851502478e+001,-6.41106215679593e+000

5.34456268434150e+005,-1.59089097771943e+001,-6.50050493978640e+000

5.41916999912011e+005,-1.59091407030168e+001,-6.59119408017038e+000

