Freq.,VOut,OutRef

1.00000000000000e+004,-9.63186723728445e+000,-5.71662448636201e-002

1.01395947979003e+004,-9.63186721575975e+000,-5.79642559750444e-002

1.02811382665607e+004,-9.63186719363000e+000,-5.87734069086398e-002

1.04246576084112e+004,-9.63186717087786e+000,-5.95938531732113e-002

1.05701804056138e+004,-9.63186714748646e+000,-6.04257524417420e-002

1.07177346253629e+004,-9.63186712343713e+000,-6.12692645965022e-002

1.08673486252606e+004,-9.63186709871172e+000,-6.21245517456967e-002

1.10190511587661e+004,-9.63186707329122e+000,-6.29917782617781e-002

1.11728713807222e+004,-9.63186704715610e+000,-6.38711108126700e-002

1.13288388529580e+004,-9.63186702028621e+000,-6.47627183925508e-002

1.14869835499703e+004,-9.63186699266078e+000,-6.56667723555246e-002

1.16473358646846e+004,-9.63186696425885e+000,-6.65834464449705e-002

1.18099266142953e+004,-9.63186693505839e+000,-6.75129168326290e-002

1.19747870461893e+004,-9.63186690503709e+000,-6.84553621475664e-002

1.21419488439505e+004,-9.63186687417146e+000,-6.94109635158067e-002

1.23114441334492e+004,-9.63186684243835e+000,-7.03799045856671e-002

1.24833054890161e+004,-9.63186680981316e+000,-7.13623715737570e-002

1.26575659397028e+004,-9.63186677627044e+000,-7.23585532974461e-002

1.28342589756290e+004,-9.63186674178494e+000,-7.33686412043057e-002

1.30134185544193e+004,-9.63186670632992e+000,-7.43928294190957e-002

1.31950791077289e+004,-9.63186666987808e+000,-7.54313147752461e-002

1.33792755478611e+004,-9.63186663240151e+000,-7.64842968529295e-002

1.35660432744767e+004,-9.63186659387130e+000,-7.75519780197649e-002

1.37554181813974e+004,-9.63186655425791e+000,-7.86345634671841e-002

1.39474366635040e+004,-9.63186651353072e+000,-7.97322612526230e-002

1.41421356237309e+004,-9.63186647165836e+000,-8.08452823371006e-002

1.43395524801583e+004,-9.63186642860903e+000,-8.19738406237973e-002

1.45397251732031e+004,-9.63186638434941e+000,-8.31181530056415e-002

1.47426921729110e+004,-9.63186633884552e+000,-8.42784394018204e-002

1.49484924863494e+004,-9.63186629206236e+000,-8.54549228017168e-002

1.51571656651040e+004,-9.63186624396393e+000,-8.66478293076240e-002

1.53687518128801e+004,-9.63186619451306e+000,-8.78573881791423e-002

1.55832915932100e+004,-9.63186614367210e+000,-8.90838318728956e-002

1.58008262372675e+004,-9.63186609140191e+000,-9.03273960929498e-002

1.60213975517924e+004,-9.63186603766194e+000,-9.15883198357720e-002

1.62450479271247e+004,-9.63186598241140e+000,-9.28668454283884e-002

1.64718203453514e+004,-9.63186592560748e+000,-9.41632185861583e-002

1.67017583885674e+004,-9.63186586720648e+000,-9.54776884525101e-002

1.69349062472505e+004,-9.63186580716370e+000,-9.68105076473148e-002

1.71713087287550e+004,-9.63186574543304e+000,-9.81619323176845e-002

1.74110112659224e+004,-9.63186568196676e+000,-9.95322221891859e-002

1.76540599258131e+004,-9.63186561671614e+000,-1.00921640610356e-001

1.79005014185594e+004,-9.63186554963105e+000,-1.02330454605964e-001

1.81503831063432e+004,-9.63186548065997e+000,-1.03758934928438e-001

1.84037530124975e+004,-9.63186540974995e+000,-1.05207356109897e-001

1.86606598307361e+004,-9.63186533684637e+000,-1.06675996515852e-001

1.89211529345119e+004,-9.63186526189317e+000,-1.08165138396864e-001

1.91852823865052e+004,-9.63186518483264e+000,-1.09675067944231e-001

1.94530989482457e+004,-9.63186510560585e+000,-1.11206075341900e-001

1.97246540898671e+004,-9.63186502415136e+000,-1.12758454829850e-001

1.99999999999999e+004,-9.63186494040731e+000,-1.14332504747476e-001

2.02791895958005e+004,-9.63186485430856e+000,-1.15928527608529e-001

2.05622765331213e+004,-9.63186476578935e+000,-1.17546830141999e-001

2.08493152168224e+004,-9.63186467478161e+000,-1.19187723361754e-001

2.11403608112276e+004,-9.63186458121521e+000,-1.20851522624260e-001

2.14354692507258e+004,-9.63186448501835e+000,-1.22538547686103e-001

2.17346972505211e+004,-9.63186438611705e+000,-1.24249122768574e-001

2.20381023175322e+004,-9.63186428443523e+000,-1.25983576619496e-001

2.23457427614443e+004,-9.63186417989469e+000,-1.27742242575314e-001

2.26576777059159e+004,-9.63186407241523e+000,-1.29525458624860e-001

2.29739670999406e+004,-9.63186396191396e+000,-1.31333567477470e-001

2.32946717293690e+004,-9.63186384830631e+000,-1.33166916622935e-001

2.36198532285905e+004,-9.63186373150448e+000,-1.35025858407094e-001

2.39495740923785e+004,-9.63186361141901e+000,-1.36910750089242e-001

2.42838976879009e+004,-9.63186348795756e+000,-1.38821953917964e-001

2.46228882668982e+004,-9.63186336102515e+000,-1.40759837199563e-001

2.49666109780322e+004,-9.63186323052411e+000,-1.42724772367585e-001

2.53151318794055e+004,-9.63186309635407e+000,-1.44717137054544e-001

2.56685179512580e+004,-9.63186295841219e+000,-1.46737314161985e-001

2.60268371088386e+004,-9.63186281659222e+000,-1.48785691940286e-001

2.63901582154578e+004,-9.63186267078509e+000,-1.50862664058384e-001

2.67585510957221e+004,-9.63186252087885e+000,-1.52968629679757e-001

2.71320865489533e+004,-9.63186236675809e+000,-1.55103993541896e-001

2.75108363627948e+004,-9.63186220830453e+000,-1.57269166030125e-001

2.78948733270080e+004,-9.63186204539613e+000,-1.59464563261262e-001

2.82842712474618e+004,-9.63186187790795e+000,-1.61690607157530e-001

2.86791049603164e+004,-9.63186170571084e+000,-1.63947725535757e-001

2.90794503464061e+004,-9.63186152867270e+000,-1.66236352180345e-001

2.94853843458219e+004,-9.63186134665748e+000,-1.68556926933122e-001

2.98969849726987e+004,-9.63186115952490e+000,-1.70909895778021e-001

3.03143313302078e+004,-9.63186096713137e+000,-1.73295710921536e-001

3.07375036257601e+004,-9.63186076932912e+000,-1.75714830883231e-001

3.11665831864199e+004,-9.63186056596579e+000,-1.78167720586211e-001

3.16016524745350e+004,-9.63186035688517e+000,-1.80654851441372e-001

3.20427951035848e+004,-9.63186014192657e+000,-1.83176701440852e-001

3.24900958542493e+004,-9.63185992092458e+000,-1.85733755250622e-001

3.29436406907028e+004,-9.63185969370935e+000,-1.88326504301493e-001

3.34035167771346e+004,-9.63185946010641e+000,-1.90955446883317e-001

3.38698124945009e+004,-9.63185921993596e+000,-1.93621088244592e-001

3.43426174575100e+004,-9.63185897301351e+000,-1.96323940685223e-001

3.48220225318448e+004,-9.63185871914894e+000,-1.99064523658863e-001

3.53081198516260e+004,-9.63185845814743e+000,-2.01843363867015e-001

3.58010028371187e+004,-9.63185818980822e+000,-2.04660995366578e-001

3.63007662126863e+004,-9.63185791392500e+000,-2.07517959669652e-001

3.68075060249948e+004,-9.63185763028561e+000,-2.10414805847760e-001

3.73213196614721e+004,-9.63185733867217e+000,-2.13352090635857e-001

3.78423058690237e+004,-9.63185703886036e+000,-2.16330378542899e-001

3.83705647730104e+004,-9.63185673061962e+000,-2.19350241957989e-001

3.89061978964912e+004,-9.63185641371331e+000,-2.22412261258438e-001

3.94493081797342e+004,-9.63185608789744e+000,-2.25517024927498e-001

3.99999999999998e+004,-9.63185575292168e+000,-2.28665129660716e-001

4.05583791916010e+004,-9.63185540852864e+000,-2.31857180483723e-001

4.11245530662425e+004,-9.63185505445331e+000,-2.35093790870556e-001

4.16986304336447e+004,-9.63185469042369e+000,-2.38375582856424e-001

4.22807216224550e+004,-9.63185431615991e+000,-2.41703187161476e-001

4.28709385014515e+004,-9.63185393137422e+000,-2.45077243311480e-001

4.34693945010421e+004,-9.63185353577067e+000,-2.48498399759879e-001

4.40762046350642e+004,-9.63185312904532e+000,-2.51967314011154e-001

4.46914855228886e+004,-9.63185271088558e+000,-2.55484652748708e-001

4.53153554118317e+004,-9.63185228096962e+000,-2.59051091966249e-001

4.59479341998812e+004,-9.63185183896736e+000,-2.62667317089236e-001

4.65893434587380e+004,-9.63185138453876e+000,-2.66334023116149e-001

4.72397064571810e+004,-9.63185091733442e+000,-2.70051914746263e-001

4.78991481847569e+004,-9.63185043699534e+000,-2.73821706515671e-001

4.85677953758016e+004,-9.63184994315223e+000,-2.77644122936220e-001

4.92457765337964e+004,-9.63184943542540e+000,-2.81519898634721e-001

4.99332219560642e+004,-9.63184891342449e+000,-2.85449778493363e-001

5.06302637588109e+004,-9.63184837674833e+000,-2.89434517791899e-001

5.13370359025159e+004,-9.63184782498432e+000,-2.93474882355159e-001

5.20536742176771e+004,-9.63184725770819e+000,-2.97571648699660e-001

5.27803164309155e+004,-9.63184667448395e+000,-3.01725604180988e-001

5.35171021914442e+004,-9.63184607486312e+000,-3.05937547147680e-001

5.42641730979066e+004,-9.63184545838481e+000,-3.10208287092831e-001

5.50216727255895e+004,-9.63184482457520e+000,-3.14538644809864e-001

5.57897466540159e+004,-9.63184417294699e+000,-3.18929452552021e-001

5.65685424949235e+004,-9.63184350299909e+000,-3.23381554191553e-001

5.73582099206328e+004,-9.63184281421661e+000,-3.27895805380055e-001

5.81589006928121e+004,-9.63184210607017e+000,-3.32473073714746e-001

5.89707686916437e+004,-9.63184137801515e+000,-3.37114238906670e-001

5.97939699453972e+004,-9.63184062949195e+000,-3.41820192946540e-001

6.06286626604156e+004,-9.63183985992520e+000,-3.46591840277941e-001

6.14750072515201e+004,-9.63183906872324e+000,-3.51430097971776e-001

6.23331663728396e+004,-9.63183825527787e+000,-3.56335895901310e-001

6.32033049490698e+004,-9.63183741896375e+000,-3.61310176922015e-001

6.40855902071694e+004,-9.63183655913794e+000,-3.66353897052161e-001

6.49801917084985e+004,-9.63183567513948e+000,-3.71468025656587e-001

6.58872813814055e+004,-9.63183476628877e+000,-3.76653545633755e-001

6.68070335542691e+004,-9.63183383188717e+000,-3.81911453603720e-001

6.77396249890018e+004,-9.63183287121641e+000,-3.87242760100161e-001

6.86852349150199e+004,-9.63183188353794e+000,-3.92648489765699e-001

6.96440450636895e+004,-9.63183086809252e+000,-3.98129681547062e-001

7.06162397032520e+004,-9.63182982409950e+000,-4.03687388896478e-001

7.16020056742374e+004,-9.63182875075641e+000,-4.09322679972455e-001

7.26015324253724e+004,-9.63182764723796e+000,-4.15036637848020e-001

7.36150120499896e+004,-9.63182651269591e+000,-4.20830360715914e-001

7.46426393229441e+004,-9.63182534625830e+000,-4.26704962099681e-001

7.56846117380472e+004,-9.63182414702816e+000,-4.32661571072574e-001

7.67411295460207e+004,-9.63182291408377e+000,-4.38701332468103e-001

7.78123957929823e+004,-9.63182164647729e+000,-4.44825407104650e-001

7.88986163594682e+004,-9.63182034323433e+000,-4.51034972006613e-001

7.99999999999995e+004,-9.63181900335290e+000,-4.57331220632751e-001

8.11167583832018e+004,-9.63181762580324e+000,-4.63715363101828e-001

8.22491061324848e+004,-9.63181620952619e+000,-4.70188626430785e-001

8.33972608672892e+004,-9.63181475343303e+000,-4.76752254766110e-001

8.45614432449099e+004,-9.63181325640456e+000,-4.83407509624620e-001

8.57418770029029e+004,-9.63181171728998e+000,-4.90155670135943e-001

8.69387890020841e+004,-9.63181013490605e+000,-4.96998033290365e-001

8.81524092701283e+004,-9.63180850803629e+000,-5.03935914185892e-001

8.93829710457770e+004,-9.63180683543039e+000,-5.10970646279775e-001

9.06307108236633e+004,-9.63180511580239e+000,-5.18103581650532e-001

9.18958683997622e+004,-9.63180334783042e+000,-5.25336091252283e-001

9.31786869174758e+004,-9.63180153015539e+000,-5.32669565181982e-001

9.44794129143618e+004,-9.63179966138007e+000,-5.40105412944697e-001

9.57982963695136e+004,-9.63179774006795e+000,-5.47645063725502e-001

9.71355907516031e+004,-9.63179576474213e+000,-5.55289966664467e-001

9.84915530675926e+004,-9.63179373388414e+000,-5.63041591135843e-001

9.98664439121282e+004,-9.63179164593286e+000,-5.70901427029903e-001

1.01260527517622e+005,-9.63178949928326e+000,-5.78870985039660e-001

1.02674071805032e+005,-9.63178729228529e+000,-5.86951796951487e-001

1.04107348435354e+005,-9.63178502324236e+000,-5.95145415940698e-001

1.05560632861831e+005,-9.63178269041036e+000,-6.03453416868474e-001

1.07034204382888e+005,-9.63178029199603e+000,-6.11877396586762e-001

1.08528346195813e+005,-9.63177782615580e+000,-6.20418974243861e-001

1.10043345451179e+005,-9.63177529099408e+000,-6.29079791598170e-001

1.11579493308032e+005,-9.63177268456225e+000,-6.37861513330944e-001

1.13137084989847e+005,-9.63177000485679e+000,-6.46765827368719e-001

1.14716419841265e+005,-9.63176724981785e+000,-6.55794445208599e-001

1.16317801385624e+005,-9.63176441732779e+000,-6.64949102244608e-001

1.17941537383287e+005,-9.63176150520918e+000,-6.74231558106019e-001

1.19587939890794e+005,-9.63175851122379e+000,-6.83643596991048e-001

1.21257325320831e+005,-9.63175543307005e+000,-6.93187028014867e-001

1.22950014503040e+005,-9.63175226838205e+000,-7.02863685553644e-001

1.24666332745679e+005,-9.63174901472719e+000,-7.12675429600538e-001

1.26406609898139e+005,-9.63174566960449e+000,-7.22624146122757e-001

1.28171180414339e+005,-9.63174223044281e+000,-7.32711747423292e-001

1.29960383416997e+005,-9.63173869459848e+000,-7.42940172511685e-001

1.31774562762811e+005,-9.63173505935389e+000,-7.53311387473654e-001

1.33614067108538e+005,-9.63173132191474e+000,-7.63827385853116e-001

1.35479249978003e+005,-9.63172747940830e+000,-7.74490189033477e-001

1.37370469830040e+005,-9.63172352888111e+000,-7.85301846627956e-001

1.39288090127379e+005,-9.63171946729667e+000,-7.96264436873917e-001

1.41232479406504e+005,-9.63171529153317e+000,-8.07380067032099e-001

1.43204011348474e+005,-9.63171099838108e+000,-8.18650873793704e-001

1.45203064850745e+005,-9.63170658454041e+000,-8.30079023692288e-001

1.47230024099979e+005,-9.63170204661888e+000,-8.41666713517032e-001

1.49285278645888e+005,-9.63169738112846e+000,-8.53416170741426e-001

1.51369223476094e+005,-9.63169258448331e+000,-8.65329653947481e-001

1.53482259092041e+005,-9.63168765299668e+000,-8.77409453263841e-001

1.55624791585964e+005,-9.63168258287838e+000,-8.89657890804213e-001

1.57797232718936e+005,-9.63167737023143e+000,-9.02077321117735e-001

1.59999999999999e+005,-9.63167201104958e+000,-9.14670131639156e-001

1.62233516766403e+005,-9.63166650121386e+000,-9.27438743151159e-001

1.64498212264969e+005,-9.63166083648961e+000,-9.40385610249576e-001

1.66794521734578e+005,-9.63165501252303e+000,-9.53513221817160e-001

1.69122886489819e+005,-9.63164902483812e+000,-9.66824101501726e-001

1.71483754005805e+005,-9.63164286883296e+000,-9.80320808204168e-001

1.73877578004168e+005,-9.63163653977647e+000,-9.94005936569329e-001

1.76304818540256e+005,-9.63163003280444e+000,-1.00788211748860e+000

1.78765942091554e+005,-9.63162334291608e+000,-1.02195201860480e+000

1.81261421647326e+005,-9.63161646496995e+000,-1.03621834482789e+000

1.83791736799524e+005,-9.63160939368027e+000,-1.05068383885519e+000

1.86357373834951e+005,-9.63160212361261e+000,-1.06535128170089e+000

1.88958825828723e+005,-9.63159464917991e+000,-1.08022349323168e+000

1.91596592739027e+005,-9.63158696463811e+000,-1.09530333271034e+000

1.94271181503206e+005,-9.63157906408158e+000,-1.11059369934872e+000

1.96983106135185e+005,-9.63157094143902e+000,-1.12609753286361e+000

1.99732887824256e+005,-9.63156259046834e+000,-1.14181781404723e+000

2.02521055035243e+005,-9.63155400475198e+000,-1.15775756533999e+000

2.05348143610063e+005,-9.63154517769232e+000,-1.17391985141347e+000

2.08214696870707e+005,-9.63153610250621e+000,-1.19030777976269e+000

2.11121265723661e+005,-9.63152677221984e+000,-1.20692450130564e+000

2.14068408765776e+005,-9.63151717966352e+000,-1.22377321099034e+000

2.17056692391625e+005,-9.63150731746622e+000,-1.24085714841184e+000

2.20086690902357e+005,-9.63149717804966e+000,-1.25817959843804e+000

2.23158986616063e+005,-9.63148675362266e+000,-1.27574389184322e+000

2.26274169979693e+005,-9.63147603617525e+000,-1.29355340595054e+000

2.29432839682530e+005,-9.63146501747245e+000,-1.31161156528497e+000

2.32635602771247e+005,-9.63145368904767e+000,-1.32992184223507e+000

2.35883074766574e+005,-9.63144204219667e+000,-1.34848775772202e+000

2.39175879781588e+005,-9.63143006797075e+000,-1.36731288188049e+000

2.42514650641661e+005,-9.63141775716959e+000,-1.38640083474910e+000

2.45900029006080e+005,-9.63140510033460e+000,-1.40575528696838e+000

2.49332665491357e+005,-9.63139208774143e+000,-1.42537996049087e+000

2.52813219796278e+005,-9.63137870939258e+000,-1.44527862930069e+000

2.56342360828676e+005,-9.63136495500976e+000,-1.46545512014225e+000

2.59920766833993e+005,-9.63135081402577e+000,-1.48591331326168e+000

2.63549125525621e+005,-9.63133627557685e+000,-1.50665714315464e+000

2.67228134217075e+005,-9.63132132849400e+000,-1.52769059932913e+000

2.70958499956006e+005,-9.63130596129447e+000,-1.54901772707684e+000

2.74740939660078e+005,-9.63129016217312e+000,-1.57064262825522e+000

2.78576180254757e+005,-9.63127391899319e+000,-1.59256946208148e+000

2.82464958813007e+005,-9.63125721927691e+000,-1.61480244593833e+000

2.86408022696948e+005,-9.63124005019638e+000,-1.63734585618844e+000

2.90406129701488e+005,-9.63122239856326e+000,-1.66020402900441e+000

2.94460048199957e+005,-9.63120425081894e+000,-1.68338136120715e+000

2.98570557291775e+005,-9.63118559302398e+000,-1.70688231111866e+000

3.02738446952187e+005,-9.63116641084762e+000,-1.73071139942413e+000

3.06964518184081e+005,-9.63114668955658e+000,-1.75487321005025e+000

3.11249583171928e+005,-9.63112641400405e+000,-1.77937239105083e+000

3.15594465437872e+005,-9.63110556861778e+000,-1.80421365551082e+000

3.19999999999997e+005,-9.63108413738840e+000,-1.82940178245831e+000

3.24467033532806e+005,-9.63106210385697e+000,-1.85494161779243e+000

3.28996424529938e+005,-9.63103945110274e+000,-1.88083807522236e+000

3.33589043469155e+005,-9.63101616172961e+000,-1.90709613722305e+000

3.38245772979638e+005,-9.63099221785328e+000,-1.93372085600053e+000

3.42967508011610e+005,-9.63096760108753e+000,-1.96071735447303e+000

3.47755156008335e+005,-9.63094229252991e+000,-1.98809082726729e+000

3.52609637080511e+005,-9.63091627274735e+000,-2.01584654172748e+000

3.57531884183106e+005,-9.63088952176161e+000,-2.04398983893690e+000

3.62522843294651e+005,-9.63086201903344e+000,-2.07252613475952e+000

3.67583473599047e+005,-9.63083374344738e+000,-2.10146092089071e+000

3.72714747669902e+005,-9.63080467329536e+000,-2.13079976592665e+000

3.77917651657445e+005,-9.63077478626008e+000,-2.16054831644794e+000

3.83193185478053e+005,-9.63074405939808e+000,-2.19071229811867e+000

3.88542363006410e+005,-9.63071246912215e+000,-2.22129751680093e+000

3.93966212270369e+005,-9.63067999118321e+000,-2.25230985968733e+000

3.99465775648511e+005,-9.63064660065197e+000,-2.28375529644620e+000

4.05042110070485e+005,-9.63061227189970e+000,-2.31563988038729e+000

4.10696287220124e+005,-9.63057697857875e+000,-2.34796974964143e+000

4.16429393741414e+005,-9.63054069360240e+000,-2.38075112835871e+000

4.22242531447321e+005,-9.63050338912426e+000,-2.41399032792226e+000

4.28136817531551e+005,-9.63046503651685e+000,-2.44769374818268e+000

4.34113384783250e+005,-9.63042560634990e+000,-2.48186787870662e+000

4.40173381804713e+005,-9.63038506836784e+000,-2.51651930004588e+000

4.46317973232124e+005,-9.63034339146655e+000,-2.55165468502526e+000

4.52548339959385e+005,-9.63030054367003e+000,-2.58728080004593e+000

4.58865679365059e+005,-9.63025649210561e+000,-2.62340450641169e+000

4.65271205542494e+005,-9.63021120297915e+000,-2.66003276167168e+000

4.71766149533147e+005,-9.63016464154907e+000,-2.69717262098468e+000

4.78351759563174e+005,-9.63011677210005e+000,-2.73483123850123e+000

4.85029301283321e+005,-9.63006755791583e+000,-2.77301586876726e+000

4.91800058012158e+005,-9.63001696125102e+000,-2.81173386814859e+000

4.98665330982714e+005,-9.62996494330264e+000,-2.85099269627472e+000

5.05626439592555e+005,-9.62991146418034e+000,-2.89079991750507e+000

5.12684721657352e+005,-9.62985648287623e+000,-2.93116320241624e+000

5.19841533667984e+005,-9.62979995723349e+000,-2.97209032931142e+000

5.27098251051240e+005,-9.62974184391459e+000,-3.01358918575067e+000

5.34456268434150e+005,-9.62968209836789e+000,-3.05566777010698e+000

5.41916999912011e+005,-9.62962067479426e+000,-3.09833419314050e+000

