Freq.,VOut,OutRef

1.00000000000000e+004,-6.66535072460764e+000,-1.69214077349415e-002

1.01395947979003e+004,-6.66535072174765e+000,-1.71576217864273e-002

1.02811382665607e+004,-6.66535071880746e+000,-1.73971332622638e-002

1.04246576084112e+004,-6.66535071578444e+000,-1.76399881949179e-002

1.05701804056138e+004,-6.66535071267629e+000,-1.78862332570993e-002

1.07177346253629e+004,-6.66535070948082e+000,-1.81359157719352e-002

1.08673486252606e+004,-6.66535070619572e+000,-1.83890837237556e-002

1.10190511587661e+004,-6.66535070281765e+000,-1.86457857724012e-002

1.11728713807222e+004,-6.66535069934528e+000,-1.89060712439467e-002

1.13288388529580e+004,-6.66535069577477e+000,-1.91699901688768e-002

1.14869835499703e+004,-6.66535069210419e+000,-1.94375932626789e-002

1.16473358646846e+004,-6.66535068833050e+000,-1.97089319562410e-002

1.18099266142953e+004,-6.66535068445057e+000,-1.99840583979849e-002

1.19747870461893e+004,-6.66535068046177e+000,-2.02630254603666e-002

1.21419488439505e+004,-6.66535067636049e+000,-2.05458867601681e-002

1.23114441334492e+004,-6.66535067214414e+000,-2.08326966553532e-002

1.24833054890161e+004,-6.66535066780900e+000,-2.11235102693732e-002

1.26575659397028e+004,-6.66535066335214e+000,-2.14183834894090e-002

1.28342589756290e+004,-6.66535065876997e+000,-2.17173729862767e-002

1.30134185544193e+004,-6.66535065405912e+000,-2.20205362205056e-002

1.31950791077289e+004,-6.66535064921561e+000,-2.23279314572444e-002

1.33792755478611e+004,-6.66535064423603e+000,-2.26396177712879e-002

1.35660432744767e+004,-6.66535063911665e+000,-2.29556550631370e-002

1.37554181813974e+004,-6.66535063385303e+000,-2.32761040735263e-002

1.39474366635040e+004,-6.66535062844171e+000,-2.36010263836253e-002

1.41421356237309e+004,-6.66535062287781e+000,-2.39304844434739e-002

1.43395524801583e+004,-6.66535061715790e+000,-2.42645415640634e-002

1.45397251732031e+004,-6.66535061127690e+000,-2.46032619505908e-002

1.47426921729110e+004,-6.66535060523091e+000,-2.49467106953711e-002

1.49484924863494e+004,-6.66535059901457e+000,-2.52949538087877e-002

1.51571656651040e+004,-6.66535059262382e+000,-2.56480582131146e-002

1.53687518128801e+004,-6.66535058605325e+000,-2.60060917724804e-002

1.55832915932100e+004,-6.66535057929815e+000,-2.63691232932378e-002

1.58008262372675e+004,-6.66535057235258e+000,-2.67372225491667e-002

1.60213975517924e+004,-6.66535056521242e+000,-2.71104602752843e-002

1.62450479271247e+004,-6.66535055787093e+000,-2.74889082100041e-002

1.64718203453514e+004,-6.66535055032341e+000,-2.78726390794667e-002

1.67017583885674e+004,-6.66535054256360e+000,-2.82617266330983e-002

1.69349062472505e+004,-6.66535053458560e+000,-2.86562456473473e-002

1.71713087287550e+004,-6.66535052638312e+000,-2.90562719434593e-002

1.74110112659224e+004,-6.66535051795051e+000,-2.94618823962022e-002

1.76540599258131e+004,-6.66535050928056e+000,-2.98731549620227e-002

1.79005014185594e+004,-6.66535050036698e+000,-3.02901686789749e-002

1.81503831063432e+004,-6.66535049120237e+000,-3.07130036936164e-002

1.84037530124975e+004,-6.66535048178060e+000,-3.11417412627442e-002

1.86606598307361e+004,-6.66535047209353e+000,-3.15764637887387e-002

1.89211529345119e+004,-6.66535046213459e+000,-3.20172548126629e-002

1.91852823865052e+004,-6.66535045189530e+000,-3.24641990531281e-002

1.94530989482457e+004,-6.66535044136822e+000,-3.29173824029072e-002

1.97246540898671e+004,-6.66535043054526e+000,-3.33768919567377e-002

1.99999999999999e+004,-6.66535041941820e+000,-3.38428160246299e-002

2.02791895958005e+004,-6.66535040797834e+000,-3.43152441507475e-002

2.05622765331213e+004,-6.66535039621626e+000,-3.47942671327250e-002

2.08493152168224e+004,-6.66535038412410e+000,-3.52799770232467e-002

2.11403608112276e+004,-6.66535037169177e+000,-3.57724671737108e-002

2.14354692507258e+004,-6.66535035890987e+000,-3.62718322316471e-002

2.17346972505211e+004,-6.66535034576872e+000,-3.67781681666649e-002

2.20381023175322e+004,-6.66535033225803e+000,-3.72915722893468e-002

2.23457427614443e+004,-6.66535031836758e+000,-3.78121432671669e-002

2.26576777059159e+004,-6.66535030408676e+000,-3.83399811455592e-002

2.29739670999406e+004,-6.66535028940426e+000,-3.88751873684160e-002

2.32946717293690e+004,-6.66535027430882e+000,-3.94178647941804e-002

2.36198532285905e+004,-6.66535025878928e+000,-3.99681177140110e-002

2.39495740923785e+004,-6.66535024283340e+000,-4.05260518798619e-002

2.42838976879009e+004,-6.66535022642901e+000,-4.10917745174878e-002

2.46228882668982e+004,-6.66535020956322e+000,-4.16653943517385e-002

2.49666109780322e+004,-6.66535019222309e+000,-4.22470216231980e-002

2.53151318794055e+004,-6.66535017439590e+000,-4.28367681076946e-002

2.56685179512580e+004,-6.66535015606722e+000,-4.34347471499189e-002

2.60268371088386e+004,-6.66535013722341e+000,-4.40410736694582e-002

2.63901582154578e+004,-6.66535011784963e+000,-4.46558641949078e-002

2.67585510957221e+004,-6.66535009793163e+000,-4.52792368754305e-002

2.71320865489533e+004,-6.66535007745312e+000,-4.59113115196174e-002

2.75108363627948e+004,-6.66535005639907e+000,-4.65522095981230e-002

2.78948733270080e+004,-6.66535003475307e+000,-4.72020542829209e-002

2.82842712474618e+004,-6.66535001249885e+000,-4.78609704615473e-002

2.86791049603164e+004,-6.66534998961854e+000,-4.85290847726834e-002

2.90794503464061e+004,-6.66534996609522e+000,-4.92065256129614e-002

2.94853843458219e+004,-6.66534994191055e+000,-4.98934231776858e-002

2.98969849726987e+004,-6.66534991704609e+000,-5.05899094770033e-002

3.03143313302078e+004,-6.66534989148228e+000,-5.12961183676942e-002

3.07375036257601e+004,-6.66534986519980e+000,-5.20121855698745e-002

3.11665831864199e+004,-6.66534983817866e+000,-5.27382486991392e-002

3.16016524745350e+004,-6.66534981039774e+000,-5.34744472962824e-002

3.20427951035848e+004,-6.66534978183570e+000,-5.42209228466503e-002

3.24900958542493e+004,-6.66534975247091e+000,-5.49778188095680e-002

3.29436406907028e+004,-6.66534972228019e+000,-5.57452806523943e-002

3.34035167771346e+004,-6.66534969124106e+000,-5.65234558649865e-002

3.38698124945009e+004,-6.66534965932900e+000,-5.73124940044885e-002

3.43426174575100e+004,-6.66534962652007e+000,-5.81125467080856e-002

3.48220225318448e+004,-6.66534959278860e+000,-5.89237677368029e-002

3.53081198516260e+004,-6.66534955810869e+000,-5.97463129943112e-002

3.58010028371187e+004,-6.66534952245401e+000,-6.05803405593141e-002

3.63007662126863e+004,-6.66534948579695e+000,-6.14260107199240e-002

3.68075060249948e+004,-6.66534944810918e+000,-6.22834860021261e-002

3.73213196614721e+004,-6.66534940936187e+000,-6.31529311985599e-002

3.78423058690237e+004,-6.66534936952517e+000,-6.40345134036326e-002

3.83705647730104e+004,-6.66534932856877e+000,-6.49284020418892e-002

3.89061978964912e+004,-6.66534928646075e+000,-6.58347689076572e-002

3.94493081797342e+004,-6.66534924316880e+000,-6.67537881906565e-002

3.99999999999998e+004,-6.66534919865993e+000,-6.76856365098827e-002

4.05583791916010e+004,-6.66534915289970e+000,-6.86304929543480e-002

4.11245530662425e+004,-6.66534910585297e+000,-6.95885391105136e-002

4.16986304336447e+004,-6.66534905748346e+000,-7.05599591007932e-002

4.22807216224550e+004,-6.66534900775423e+000,-7.15449396158196e-002

4.28709385014515e+004,-6.66534895662703e+000,-7.25436699539393e-002

4.34693945010421e+004,-6.66534890406215e+000,-7.35563420582407e-002

4.40762046350642e+004,-6.66534885001970e+000,-7.45831505458174e-002

4.46914855228886e+004,-6.66534879445787e+000,-7.56242927553456e-002

4.53153554118317e+004,-6.66534873733397e+000,-7.66799687781945e-002

4.59479341998812e+004,-6.66534867860407e+000,-7.77503814993472e-002

4.65893434587380e+004,-6.66534861822325e+000,-7.88357366345847e-002

4.72397064571810e+004,-6.66534855614452e+000,-7.99362427757980e-002

4.78991481847569e+004,-6.66534849232073e+000,-8.10521114206055e-002

4.85677953758016e+004,-6.66534842670259e+000,-8.21835570230295e-002

4.92457765337964e+004,-6.66534835923983e+000,-8.33307970290886e-002

4.99332219560642e+004,-6.66534828988030e+000,-8.44940519222779e-002

5.06302637588109e+004,-6.66534821857077e+000,-8.56735452626317e-002

5.13370359025159e+004,-6.66534814525649e+000,-8.68695037300184e-002

5.20536742176771e+004,-6.66534806988112e+000,-8.80821571697539e-002

5.27803164309155e+004,-6.66534799238652e+000,-8.93117386367158e-002

5.35171021914442e+004,-6.66534791271339e+000,-9.05584844365178e-002

5.42641730979066e+004,-6.66534783080016e+000,-9.18226341766964e-002

5.50216727255895e+004,-6.66534774658425e+000,-9.31044308055262e-002

5.57897466540159e+004,-6.66534766000049e+000,-9.44041206678533e-002

5.65685424949235e+004,-6.66534757098295e+000,-9.57219535406761e-002

5.73582099206328e+004,-6.66534747946243e+000,-9.70581826966133e-002

5.81589006928121e+004,-6.66534738536894e+000,-9.84130649367891e-002

5.89707686916437e+004,-6.66534728863022e+000,-9.97868606486287e-002

5.97939699453972e+004,-6.66534718917173e+000,-1.01179833856636e-001

6.06286626604156e+004,-6.66534708691722e+000,-1.02592252268398e-001

6.14750072515201e+004,-6.66534698178774e+000,-1.04024387331565e-001

6.23331663728396e+004,-6.66534687370268e+000,-1.05476514280247e-001

6.32033049490698e+004,-6.66534676257914e+000,-1.06948912190688e-001

6.40855902071694e+004,-6.66534664833131e+000,-1.08441864038413e-001

6.49801917084985e+004,-6.66534653087168e+000,-1.09955656744812e-001

6.58872813814055e+004,-6.66534641010979e+000,-1.11490581239626e-001

6.68070335542691e+004,-6.66534628595268e+000,-1.13046932513520e-001

6.77396249890018e+004,-6.66534615830522e+000,-1.14625009672646e-001

6.86852349150199e+004,-6.66534602706915e+000,-1.16225116001653e-001

6.96440450636895e+004,-6.66534589214326e+000,-1.17847559018875e-001

7.06162397032520e+004,-6.66534575342431e+000,-1.19492650531961e-001

7.16020056742374e+004,-6.66534561080545e+000,-1.21160706704627e-001

7.26015324253724e+004,-6.66534546417694e+000,-1.22852048113942e-001

7.36150120499896e+004,-6.66534531342619e+000,-1.24566999810438e-001

7.46426393229441e+004,-6.66534515843729e+000,-1.26305891383398e-001

7.56846117380472e+004,-6.66534499909101e+000,-1.28069057023477e-001

7.67411295460207e+004,-6.66534483526484e+000,-1.29856835585708e-001

7.78123957929823e+004,-6.66534466683298e+000,-1.31669570655040e-001

7.88986163594682e+004,-6.66534449366592e+000,-1.33507610613440e-001

7.99999999999995e+004,-6.66534431563033e+000,-1.35371308707231e-001

8.11167583832018e+004,-6.66534413258969e+000,-1.37261023110974e-001

8.22491061324848e+004,-6.66534394440300e+000,-1.39177117002857e-001

8.33972608672892e+004,-6.66534375092549e+000,-1.41119958629860e-001

8.45614432449099e+004,-6.66534355200893e+000,-1.43089921375945e-001

8.57418770029029e+004,-6.66534334749979e+000,-1.45087383844089e-001

8.69387890020841e+004,-6.66534313724124e+000,-1.47112729916601e-001

8.81524092701283e+004,-6.66534292107155e+000,-1.49166348837358e-001

8.93829710457770e+004,-6.66534269882447e+000,-1.51248635284134e-001

9.06307108236633e+004,-6.66534247032917e+000,-1.53359989443669e-001

9.18958683997622e+004,-6.66534223541014e+000,-1.55500817088423e-001

9.31786869174758e+004,-6.66534199388654e+000,-1.57671529657960e-001

9.44794129143618e+004,-6.66534174557275e+000,-1.59872544333145e-001

9.57982963695136e+004,-6.66534149027801e+000,-1.62104284118746e-001

9.71355907516031e+004,-6.66534122780600e+000,-1.64367177925622e-001

9.84915530675926e+004,-6.66534095795494e+000,-1.66661660651595e-001

9.98664439121282e+004,-6.66534068051717e+000,-1.68988173266902e-001

1.01260527517622e+005,-6.66534039527966e+000,-1.71347162895171e-001

1.02674071805032e+005,-6.66534010202312e+000,-1.73739082903126e-001

1.04107348435354e+005,-6.66533980052206e+000,-1.76164392986740e-001

1.05560632861831e+005,-6.66533949054446e+000,-1.78623559260684e-001

1.07034204382888e+005,-6.66533917185248e+000,-1.81117054341729e-001

1.08528346195813e+005,-6.66533884420073e+000,-1.83645357450142e-001

1.10043345451179e+005,-6.66533850733753e+000,-1.86208954492475e-001

1.11579493308032e+005,-6.66533816100384e+000,-1.88808338159523e-001

1.13137084989847e+005,-6.66533780493344e+000,-1.91444008020250e-001

1.14716419841265e+005,-6.66533743885251e+000,-1.94116470617645e-001

1.16317801385624e+005,-6.66533706247970e+000,-1.96826239565536e-001

1.17941537383287e+005,-6.66533667552559e+000,-1.99573835648379e-001

1.19587939890794e+005,-6.66533627769286e+000,-2.02359786919738e-001

1.21257325320831e+005,-6.66533586867548e+000,-2.05184628806535e-001

1.22950014503040e+005,-6.66533544815909e+000,-2.08048904209192e-001

1.24666332745679e+005,-6.66533501582058e+000,-2.10953163605913e-001

1.26406609898139e+005,-6.66533457132731e+000,-2.13897965162760e-001

1.28171180414339e+005,-6.66533411433765e+000,-2.16883874835739e-001

1.29960383416997e+005,-6.66533364450034e+000,-2.19911466481531e-001

1.31774562762811e+005,-6.66533316145424e+000,-2.22981321968034e-001

1.33614067108538e+005,-6.66533266482777e+000,-2.26094031288114e-001

1.35479249978003e+005,-6.66533215423945e+000,-2.29250192667228e-001

1.37370469830040e+005,-6.66533162929647e+000,-2.32450412687005e-001

1.39288090127379e+005,-6.66533108959553e+000,-2.35695306391970e-001

1.41232479406504e+005,-6.66533053472153e+000,-2.38985497417282e-001

1.43204011348474e+005,-6.66532996424798e+000,-2.42321618101841e-001

1.45203064850745e+005,-6.66532937773631e+000,-2.45704309612567e-001

1.47230024099979e+005,-6.66532877473562e+000,-2.49134222067374e-001

1.49285278645888e+005,-6.66532815478249e+000,-2.52612014659630e-001

1.51369223476094e+005,-6.66532751740007e+000,-2.56138355787196e-001

1.53482259092041e+005,-6.66532686209862e+000,-2.59713923175861e-001

1.55624791585964e+005,-6.66532618837402e+000,-2.63339404016727e-001

1.57797232718936e+005,-6.66532549570879e+000,-2.67015495089711e-001

1.59999999999999e+005,-6.66532478357006e+000,-2.70742902906540e-001

1.62233516766403e+005,-6.66532405141058e+000,-2.74522343838984e-001

1.64498212264969e+005,-6.66532329866749e+000,-2.78354544261277e-001

1.66794521734578e+005,-6.66532252476194e+000,-2.82240240688843e-001

1.69122886489819e+005,-6.66532172909916e+000,-2.86180179917746e-001

1.71483754005805e+005,-6.66532091106740e+000,-2.90175119170590e-001

1.73877578004168e+005,-6.66532007003788e+000,-2.94225826241068e-001

1.76304818540256e+005,-6.66531920536387e+000,-2.98333079642999e-001

1.78765942091554e+005,-6.66531831638079e+000,-3.02497668757028e-001

1.81261421647326e+005,-6.66531740240510e+000,-3.06720393985699e-001

1.83791736799524e+005,-6.66531646273446e+000,-3.11002066903280e-001

1.86357373834951e+005,-6.66531549664617e+000,-3.15343510418338e-001

1.88958825828723e+005,-6.66531450339775e+000,-3.19745558924422e-001

1.91596592739027e+005,-6.66531348222545e+000,-3.24209058466255e-001

1.94271181503206e+005,-6.66531243234454e+000,-3.28734866897812e-001

1.96983106135185e+005,-6.66531135294751e+000,-3.33323854053092e-001

1.99732887824256e+005,-6.66531024320494e+000,-3.37976901906132e-001

2.02521055035243e+005,-6.66530910226351e+000,-3.42694904746663e-001

2.05348143610063e+005,-6.66530792924622e+000,-3.47478769348823e-001

2.08214696870707e+005,-6.66530672325129e+000,-3.52329415146266e-001

2.11121265723661e+005,-6.66530548335151e+000,-3.57247774410721e-001

2.14068408765776e+005,-6.66530420859390e+000,-3.62234792426478e-001

2.17056692391625e+005,-6.66530289799833e+000,-3.67291427678627e-001

2.20086690902357e+005,-6.66530155055726e+000,-3.72418652032363e-001

2.23158986616063e+005,-6.66530016523507e+000,-3.77617450920478e-001

2.26274169979693e+005,-6.66529874096651e+000,-3.82888823536646e-001

2.29432839682530e+005,-6.66529727665688e+000,-3.88233783022382e-001

2.32635602771247e+005,-6.66529577118049e+000,-3.93653356664994e-001

2.35883074766574e+005,-6.66529422337993e+000,-3.99148586095276e-001

2.39175879781588e+005,-6.66529263206538e+000,-4.04720527486052e-001

2.42514650641661e+005,-6.66529099601352e+000,-4.10370251756712e-001

2.45900029006080e+005,-6.66528931396674e+000,-4.16098844777882e-001

2.49332665491357e+005,-6.66528758463180e+000,-4.21907407582773e-001

2.52813219796278e+005,-6.66528580667942e+000,-4.27797056575255e-001

2.56342360828676e+005,-6.66528397874279e+000,-4.33768923747662e-001

2.59920766833993e+005,-6.66528209941670e+000,-4.39824156896932e-001

2.63549125525621e+005,-6.66528016725650e+000,-4.45963919845899e-001

2.67228134217075e+005,-6.66527818077678e+000,-4.52189392667158e-001

2.70958499956006e+005,-6.66527613845052e+000,-4.58501771910060e-001

2.74740939660078e+005,-6.66527403870770e+000,-4.64902270830185e-001

2.78576180254757e+005,-6.66527187993426e+000,-4.71392119623106e-001

2.82464958813007e+005,-6.66526966047048e+000,-4.77972565662934e-001

2.86408022696948e+005,-6.66526737861040e+000,-4.84644873737964e-001

2.90406129701488e+005,-6.66526503259982e+000,-4.91410326298035e-001

2.94460048199957e+005,-6.66526262063531e+000,-4.98270223699446e-001

2.98570557291775e+005,-6.66526014086267e+000,-5.05225884455540e-001

3.02738446952187e+005,-6.66525759137564e+000,-5.12278645489857e-001

3.06964518184081e+005,-6.66525497021449e+000,-5.19429862393096e-001

3.11249583171928e+005,-6.66525227536418e+000,-5.26680909685899e-001

3.15594465437872e+005,-6.66524950475312e+000,-5.34033181080790e-001

3.19999999999997e+005,-6.66524665625156e+000,-5.41488089751595e-001

3.24467033532806e+005,-6.66524372766978e+000,-5.49047068605502e-001

3.28996424529938e+005,-6.66524071675650e+000,-5.56711570558498e-001

3.33589043469155e+005,-6.66523762119717e+000,-5.64483068814757e-001

3.38245772979638e+005,-6.66523443861229e+000,-5.72363057149657e-001

3.42967508011610e+005,-6.66523116655529e+000,-5.80353050199041e-001

3.47755156008335e+005,-6.66522780251097e+000,-5.88454583748096e-001

3.52609637080511e+005,-6.66522434389332e+000,-5.96669215029826e-001

3.57531884183106e+005,-6.66522078804371e+000,-6.04998523022005e-001

3.62522843294651e+005,-6.66521713222885e+000,-6.13444108752339e-001

3.67583473599047e+005,-6.66521337363829e+000,-6.22007595608268e-001

3.72714747669902e+005,-6.66520950938299e+000,-6.30690629645400e-001

3.77917651657445e+005,-6.66520553649240e+000,-6.39494879908555e-001

3.83193185478053e+005,-6.66520145191264e+000,-6.48422038749870e-001

3.88542363006410e+005,-6.66519725250399e+000,-6.57473822156505e-001

3.93966212270369e+005,-6.66519293503828e+000,-6.66651970081007e-001

3.99465775648511e+005,-6.66518849619682e+000,-6.75958246774565e-001

4.05042110070485e+005,-6.66518393256746e+000,-6.85394441128707e-001

4.10696287220124e+005,-6.66517924064234e+000,-6.94962367018077e-001

4.16429393741414e+005,-6.66517441681479e+000,-7.04663863651241e-001

4.22242531447321e+005,-6.66516945737688e+000,-7.14500795923517e-001

4.28136817531551e+005,-6.66516435851629e+000,-7.24475054777695e-001

4.34113384783250e+005,-6.66515911631384e+000,-7.34588557565532e-001

4.40173381804713e+005,-6.66515372673995e+000,-7.44843248419684e-001

4.46317973232124e+005,-6.66514818565182e+000,-7.55241098627370e-001

4.52548339959385e+005,-6.66514248879031e+000,-7.65784107008886e-001

4.58865679365059e+005,-6.66513663177630e+000,-7.76474300305118e-001

4.65271205542494e+005,-6.66513061010799e+000,-7.87313733564766e-001

4.71766149533147e+005,-6.66512441915657e+000,-7.98304490543707e-001

4.78351759563174e+005,-6.66511805416356e+000,-8.09448684103110e-001

4.85029301283321e+005,-6.66511151023643e+000,-8.20748456619718e-001

4.91800058012158e+005,-6.66510478234522e+000,-8.32205980396102e-001

4.98665330982714e+005,-6.66509786531877e+000,-8.43823458080243e-001

5.05626439592555e+005,-6.66509075384023e+000,-8.55603123091323e-001

5.12684721657352e+005,-6.66508344244355e+000,-8.67547240048334e-001

5.19841533667984e+005,-6.66507592550905e+000,-8.79658105206655e-001

5.27098251051240e+005,-6.66506819725897e+000,-8.91938046902383e-001

5.34456268434150e+005,-6.66506025175337e+000,-9.04389425999232e-001

5.41916999912011e+005,-6.66505208288502e+000,-9.17014636346238e-001

