Freq.,VOut,OutRef

1.00000000000000e+004,-2.78969582435230e+001,-2.27285526314756e-001

1.01395947979003e+004,-2.78969589700185e+001,-2.30458306734738e-001

1.02811382665607e+004,-2.78969597169384e+001,-2.33675377209782e-001

1.04246576084112e+004,-2.78969604848570e+001,-2.36937355991736e-001

1.05701804056138e+004,-2.78969612743645e+001,-2.40244869964990e-001

1.07177346253629e+004,-2.78969620860679e+001,-2.43598554761720e-001

1.08673486252606e+004,-2.78969629205914e+001,-2.46999054887430e-001

1.10190511587661e+004,-2.78969637785763e+001,-2.50447023845116e-001

1.11728713807222e+004,-2.78969646606825e+001,-2.53943124257715e-001

1.13288388529580e+004,-2.78969655675877e+001,-2.57488027999987e-001

1.14869835499703e+004,-2.78969664999893e+001,-2.61082416322538e-001

1.16473358646846e+004,-2.78969674586042e+001,-2.64726979985573e-001

1.18099266142953e+004,-2.78969684441692e+001,-2.68422419392266e-001

1.19747870461893e+004,-2.78969694574420e+001,-2.72169444721475e-001

1.21419488439505e+004,-2.78969704992014e+001,-2.75968776065508e-001

1.23114441334492e+004,-2.78969715702486e+001,-2.79821143566245e-001

1.24833054890161e+004,-2.78969726714067e+001,-2.83727287559609e-001

1.26575659397028e+004,-2.78969738035223e+001,-2.87687958713610e-001

1.28342589756290e+004,-2.78969749674659e+001,-2.91703918173070e-001

1.30134185544193e+004,-2.78969761641319e+001,-2.95775937710816e-001

1.31950791077289e+004,-2.78969773944406e+001,-2.99904799868089e-001

1.33792755478611e+004,-2.78969786593377e+001,-3.04091298110373e-001

1.35660432744767e+004,-2.78969799597954e+001,-3.08336236979920e-001

1.37554181813974e+004,-2.78969812968138e+001,-3.12640432245144e-001

1.39474366635040e+004,-2.78969826714203e+001,-3.17004711065440e-001

1.41421356237309e+004,-2.78969840846720e+001,-3.21429912140825e-001

1.43395524801583e+004,-2.78969855376551e+001,-3.25916885881847e-001

1.45397251732031e+004,-2.78969870314867e+001,-3.30466494566019e-001

1.47426921729110e+004,-2.78969885673152e+001,-3.35079612507946e-001

1.49484924863494e+004,-2.78969901463210e+001,-3.39757126225378e-001

1.51571656651040e+004,-2.78969917697184e+001,-3.44499934608350e-001

1.53687518128801e+004,-2.78969934387550e+001,-3.49308949095138e-001

1.55832915932100e+004,-2.78969951547141e+001,-3.54185093844188e-001

1.58008262372675e+004,-2.78969969189148e+001,-3.59129305913524e-001

1.60213975517924e+004,-2.78969987327132e+001,-3.64142535439749e-001

1.62450479271247e+004,-2.78970005975037e+001,-3.69225745820661e-001

1.64718203453514e+004,-2.78970025147200e+001,-3.74379913900437e-001

1.67017583885674e+004,-2.78970044858356e+001,-3.79606030159223e-001

1.69349062472505e+004,-2.78970065123661e+001,-3.84905098897808e-001

1.71713087287550e+004,-2.78970085958693e+001,-3.90278138436786e-001

1.74110112659224e+004,-2.78970107379468e+001,-3.95726181309225e-001

1.76540599258131e+004,-2.78970129402452e+001,-4.01250274458649e-001

1.79005014185594e+004,-2.78970152044577e+001,-4.06851479440462e-001

1.81503831063432e+004,-2.78970175323247e+001,-4.12530872626859e-001

1.84037530124975e+004,-2.78970199256359e+001,-4.18289545411532e-001

1.86606598307361e+004,-2.78970223862311e+001,-4.24128604421154e-001

1.89211529345119e+004,-2.78970249160015e+001,-4.30049171727705e-001

1.91852823865052e+004,-2.78970275168923e+001,-4.36052385061679e-001

1.94530989482457e+004,-2.78970301909026e+001,-4.42139398033717e-001

1.97246540898671e+004,-2.78970329400880e+001,-4.48311380354124e-001

1.99999999999999e+004,-2.78970357665619e+001,-4.54569518057507e-001

2.02791895958005e+004,-2.78970386724972e+001,-4.60915013731801e-001

2.05622765331213e+004,-2.78970416601275e+001,-4.67349086748674e-001

2.08493152168224e+004,-2.78970447317499e+001,-4.73872973494770e-001

2.11403608112276e+004,-2.78970478897251e+001,-4.80487927614985e-001

2.14354692507258e+004,-2.78970511364810e+001,-4.87195220247734e-001

2.17346972505211e+004,-2.78970544745135e+001,-4.93996140271169e-001

2.20381023175322e+004,-2.78970579063884e+001,-5.00891994550809e-001

2.23457427614443e+004,-2.78970614347440e+001,-5.07884108190315e-001

2.26576777059159e+004,-2.78970650622925e+001,-5.14973824785050e-001

2.29739670999406e+004,-2.78970687918225e+001,-5.22162506680342e-001

2.32946717293690e+004,-2.78970726262009e+001,-5.29451535234883e-001

2.36198532285905e+004,-2.78970765683752e+001,-5.36842311081764e-001

2.39495740923785e+004,-2.78970806213758e+001,-5.44336254401282e-001

2.42838976879009e+004,-2.78970847883183e+001,-5.51934805191408e-001

2.46228882668982e+004,-2.78970890724059e+001,-5.59639423544445e-001

2.49666109780322e+004,-2.78970934769315e+001,-5.67451589928822e-001

2.53151318794055e+004,-2.78970980052812e+001,-5.75372805469952e-001

2.56685179512580e+004,-2.78971026609358e+001,-5.83404592240837e-001

2.60268371088386e+004,-2.78971074474739e+001,-5.91548493554751e-001

2.63901582154578e+004,-2.78971123685752e+001,-5.99806074258077e-001

2.67585510957221e+004,-2.78971174280223e+001,-6.08178921034649e-001

2.71320865489533e+004,-2.78971226297044e+001,-6.16668642706066e-001

2.75108363627948e+004,-2.78971279776199e+001,-6.25276870543948e-001

2.78948733270080e+004,-2.78971334758797e+001,-6.34005258581157e-001

2.82842712474618e+004,-2.78971391287103e+001,-6.42855483928482e-001

2.86791049603164e+004,-2.78971449404567e+001,-6.51829247097933e-001

2.90794503464061e+004,-2.78971509155864e+001,-6.60928272327812e-001

2.94853843458219e+004,-2.78971570586923e+001,-6.70154307913674e-001

2.98969849726987e+004,-2.78971633744964e+001,-6.79509126544567e-001

3.03143313302078e+004,-2.78971698678534e+001,-6.88994525640798e-001

3.07375036257601e+004,-2.78971765437547e+001,-6.98612327700842e-001

3.11665831864199e+004,-2.78971834073315e+001,-7.08364380650785e-001

3.16016524745350e+004,-2.78971904638597e+001,-7.18252558195899e-001

3.20427951035848e+004,-2.78971977187635e+001,-7.28278760183380e-001

3.24900958542493e+004,-2.78972051776192e+001,-7.38444912964563e-001

3.29436406907028e+004,-2.78972128461600e+001,-7.48752969765128e-001

3.34035167771346e+004,-2.78972207302803e+001,-7.59204911058740e-001

3.38698124945009e+004,-2.78972288360403e+001,-7.69802744947236e-001

3.43426174575100e+004,-2.78972371696702e+001,-7.80548507545501e-001

3.48220225318448e+004,-2.78972457375757e+001,-7.91444263370998e-001

3.53081198516260e+004,-2.78972545463421e+001,-8.02492105740992e-001

3.58010028371187e+004,-2.78972636027402e+001,-8.13694157171491e-001

3.63007662126863e+004,-2.78972729137309e+001,-8.25052569786186e-001

3.68075060249948e+004,-2.78972824864708e+001,-8.36569525727191e-001

3.73213196614721e+004,-2.78972923283176e+001,-8.48247237573113e-001

3.78423058690237e+004,-2.78973024468358e+001,-8.60087948764969e-001

3.83705647730104e+004,-2.78973128498025e+001,-8.72093934032538e-001

3.89061978964912e+004,-2.78973235452135e+001,-8.84267499833181e-001

3.94493081797342e+004,-2.78973345412890e+001,-8.96610984791455e-001

3.99999999999998e+004,-2.78973458464807e+001,-9.09126760147545e-001

4.05583791916010e+004,-2.78973574694775e+001,-9.21817230211858e-001

4.11245530662425e+004,-2.78973694192125e+001,-9.34684832824976e-001

4.16986304336447e+004,-2.78973817048700e+001,-9.47732039823684e-001

4.22807216224550e+004,-2.78973943358922e+001,-9.60961357514921e-001

4.28709385014515e+004,-2.78974073219870e+001,-9.74375327154804e-001

4.34693945010421e+004,-2.78974206731348e+001,-9.87976525435671e-001

4.40762046350642e+004,-2.78974343995966e+001,-1.00176756497873e+000

4.46914855228886e+004,-2.78974485119217e+001,-1.01575109483360e+000

4.53153554118317e+004,-2.78974630209560e+001,-1.02992980098477e+000

4.59479341998812e+004,-2.78974779378502e+001,-1.04430640686686e+000

4.65893434587380e+004,-2.78974932740681e+001,-1.05888367388396e+000

4.72397064571810e+004,-2.78975090413958e+001,-1.07366440193787e+000

4.78991481847569e+004,-2.78975252519506e+001,-1.08865142996438e+000

4.85677953758016e+004,-2.78975419181904e+001,-1.10384763647430e+000

4.92457765337964e+004,-2.78975590529230e+001,-1.11925594010490e+000

4.99332219560642e+004,-2.78975766693162e+001,-1.13487930017776e+000

5.06302637588109e+004,-2.78975947809077e+001,-1.15072071726328e+000

5.13370359025159e+004,-2.78976134016157e+001,-1.16678323375412e+000

5.20536742176771e+004,-2.78976325457495e+001,-1.18306993444714e+000

5.27803164309155e+004,-2.78976522280204e+001,-1.19958394713091e+000

5.35171021914442e+004,-2.78976724635529e+001,-1.21632844318526e+000

5.42641730979066e+004,-2.78976932678968e+001,-1.23330663818466e+000

5.50216727255895e+004,-2.78977146570385e+001,-1.25052179251217e+000

5.57897466540159e+004,-2.78977366474137e+001,-1.26797721198280e+000

5.65685424949235e+004,-2.78977592559199e+001,-1.28567624847352e+000

5.73582099206328e+004,-2.78977824999292e+001,-1.30362230056174e+000

5.81589006928121e+004,-2.78978063973018e+001,-1.32181881417552e+000

5.89707686916437e+004,-2.78978309663998e+001,-1.34026928324871e+000

5.97939699453972e+004,-2.78978562261010e+001,-1.35897725038785e+000

6.06286626604156e+004,-2.78978821958136e+001,-1.37794630754689e+000

6.14750072515201e+004,-2.78979088954910e+001,-1.39718009671268e+000

6.23331663728396e+004,-2.78979363456472e+001,-1.41668231059725e+000

6.32033049490698e+004,-2.78979645673724e+001,-1.43645669334149e+000

6.40855902071694e+004,-2.78979935823492e+001,-1.45650704122929e+000

6.49801917084985e+004,-2.78980234128693e+001,-1.47683720340828e+000

6.58872813814055e+004,-2.78980540818505e+001,-1.49745108262324e+000

6.68070335542691e+004,-2.78980856128546e+001,-1.51835263595854e+000

6.77396249890018e+004,-2.78981180301047e+001,-1.53954587559095e+000

6.86852349150199e+004,-2.78981513585047e+001,-1.56103486955168e+000

6.96440450636895e+004,-2.78981856236578e+001,-1.58282374250061e+000

7.06162397032520e+004,-2.78982208518862e+001,-1.60491667650878e+000

7.16020056742374e+004,-2.78982570702514e+001,-1.62731791185394e+000

7.26015324253724e+004,-2.78982943065751e+001,-1.65003174782508e+000

7.36150120499896e+004,-2.78983325894599e+001,-1.67306254353896e+000

7.46426393229441e+004,-2.78983719483120e+001,-1.69641471876689e+000

7.56846117380472e+004,-2.78984124133632e+001,-1.72009275477324e+000

7.67411295460207e+004,-2.78984540156943e+001,-1.74410119516524e+000

7.78123957929823e+004,-2.78984967872586e+001,-1.76844464675404e+000

7.88986163594682e+004,-2.78985407609070e+001,-1.79312778042760e+000

7.99999999999995e+004,-2.78985859704124e+001,-1.81815533203613e+000

8.11167583832018e+004,-2.78986324504961e+001,-1.84353210328722e+000

8.22491061324848e+004,-2.78986802368542e+001,-1.86926296265540e+000

8.33972608672892e+004,-2.78987293661849e+001,-1.89535284630324e+000

8.45614432449099e+004,-2.78987798762168e+001,-1.92180675901409e+000

8.57418770029029e+004,-2.78988318057373e+001,-1.94862977513789e+000

8.69387890020841e+004,-2.78988851946230e+001,-1.97582703955004e+000

8.81524092701283e+004,-2.78989400838695e+001,-2.00340376862293e+000

8.93829710457770e+004,-2.78989965156231e+001,-2.03136525120964e+000

9.06307108236633e+004,-2.78990545332132e+001,-2.05971684964155e+000

9.18958683997622e+004,-2.78991141811853e+001,-2.08846400073983e+000

9.31786869174758e+004,-2.78991755053349e+001,-2.11761221683899e+000

9.44794129143618e+004,-2.78992385527427e+001,-2.14716708682546e+000

9.57982963695136e+004,-2.78993033718107e+001,-2.17713427718880e+000

9.71355907516031e+004,-2.78993700122987e+001,-2.20751953308801e+000

9.84915530675926e+004,-2.78994385253631e+001,-2.23832867943103e+000

9.98664439121282e+004,-2.78995089635956e+001,-2.26956762196843e+000

1.01260527517622e+005,-2.78995813810631e+001,-2.30124234840348e+000

1.02674071805032e+005,-2.78996558333495e+001,-2.33335892951358e+000

1.04107348435354e+005,-2.78997323775978e+001,-2.36592352029013e+000

1.05560632861831e+005,-2.78998110725542e+001,-2.39894236108996e+000

1.07034204382888e+005,-2.78998919786124e+001,-2.43242177880448e+000

1.08528346195813e+005,-2.78999751578600e+001,-2.46636818804310e+000

1.10043345451179e+005,-2.79000606741258e+001,-2.50078809233175e+000

1.11579493308032e+005,-2.79001485930288e+001,-2.53568808532819e+000

1.13137084989847e+005,-2.79002389820277e+001,-2.57107485205188e+000

1.14716419841265e+005,-2.79003319104730e+001,-2.60695517013035e+000

1.16317801385624e+005,-2.79004274496594e+001,-2.64333591106274e+000

1.17941537383287e+005,-2.79005256728804e+001,-2.68022404149797e+000

1.19587939890794e+005,-2.79006266554840e+001,-2.71762662453038e+000

1.21257325320831e+005,-2.79007304749305e+001,-2.75555082101237e+000

1.22950014503040e+005,-2.79008372108509e+001,-2.79400389088317e+000

1.24666332745679e+005,-2.79009469451083e+001,-2.83299319451484e+000

1.26406609898139e+005,-2.79010597618595e+001,-2.87252619407663e+000

1.28171180414339e+005,-2.79011757476196e+001,-2.91261045491413e+000

1.29960383416997e+005,-2.79012949913278e+001,-2.95325364694905e+000

1.31774562762811e+005,-2.79014175844146e+001,-2.99446354609502e+000

1.33614067108538e+005,-2.79015436208722e+001,-3.03624803569103e+000

1.35479249978003e+005,-2.79016731973250e+001,-3.07861510795417e+000

1.37370469830040e+005,-2.79018064131039e+001,-3.12157286544997e+000

1.39288090127379e+005,-2.79019433703212e+001,-3.16512952258088e+000

1.41232479406504e+005,-2.79020841739485e+001,-3.20929340709413e+000

1.43204011348474e+005,-2.79022289318964e+001,-3.25407296160781e+000

1.45203064850745e+005,-2.79023777550963e+001,-3.29947674515600e+000

1.47230024099979e+005,-2.79025307575847e+001,-3.34551343475266e+000

1.49285278645888e+005,-2.79026880565896e+001,-3.39219182697613e+000

1.51369223476094e+005,-2.79028497726197e+001,-3.43952083957126e+000

1.53482259092041e+005,-2.79030160295552e+001,-3.48750951307236e+000

1.55624791585964e+005,-2.79031869547425e+001,-3.53616701244550e+000

1.57797232718936e+005,-2.79033626790897e+001,-3.58550262875042e+000

1.59999999999999e+005,-2.79035433371667e+001,-3.63552578082318e+000

1.62233516766403e+005,-2.79037290673062e+001,-3.68624601697847e+000

1.64498212264969e+005,-2.79039200117090e+001,-3.73767301673278e+000

1.66794521734578e+005,-2.79041163165511e+001,-3.78981659254691e+000

1.69122886489819e+005,-2.79043181320945e+001,-3.84268669159086e+000

1.71483754005805e+005,-2.79045256128003e+001,-3.89629339752799e+000

1.73877578004168e+005,-2.79047389174461e+001,-3.95064693232035e+000

1.76304818540256e+005,-2.79049582092448e+001,-4.00575765805618e+000

1.78765942091554e+005,-2.79051836559686e+001,-4.06163607879673e+000

1.81261421647326e+005,-2.79054154300752e+001,-4.11829284244534e+000

1.83791736799524e+005,-2.79056537088375e+001,-4.17573874263873e+000

1.86357373834951e+005,-2.79058986744775e+001,-4.23398472065723e+000

1.88958825828723e+005,-2.79061505143032e+001,-4.29304186735917e+000

1.91596592739027e+005,-2.79064094208494e+001,-4.35292142513566e+000

1.94271181503206e+005,-2.79066755920229e+001,-4.41363478988667e+000

1.96983106135185e+005,-2.79069492312507e+001,-4.47519351302028e+000

1.99732887824256e+005,-2.79072305476328e+001,-4.53760930347171e+000

2.02521055035243e+005,-2.79075197560995e+001,-4.60089402974700e+000

2.05348143610063e+005,-2.79078170775721e+001,-4.66505972198563e+000

2.08214696870707e+005,-2.79081227391283e+001,-4.73011857404769e+000

2.11121265723661e+005,-2.79084369741729e+001,-4.79608294562110e+000

2.14068408765776e+005,-2.79087600226117e+001,-4.86296536435222e+000

2.17056692391625e+005,-2.79090921310311e+001,-4.93077852799742e+000

2.20086690902357e+005,-2.79094335528825e+001,-4.99953530659734e+000

2.23158986616063e+005,-2.79097845486710e+001,-5.06924874467313e+000

2.26274169979693e+005,-2.79101453861503e+001,-5.13993206344377e+000

2.29432839682530e+005,-2.79105163405215e+001,-5.21159866306643e+000

2.32635602771247e+005,-2.79108976946384e+001,-5.28426212489779e+000

2.35883074766574e+005,-2.79112897392177e+001,-5.35793621377718e+000

2.39175879781588e+005,-2.79116927730550e+001,-5.43263488033210e+000

2.42514650641661e+005,-2.79121071032469e+001,-5.50837226330399e+000

2.45900029006080e+005,-2.79125330454182e+001,-5.58516269189620e+000

2.49332665491357e+005,-2.79129709239561e+001,-5.66302068814319e+000

2.52813219796278e+005,-2.79134210722502e+001,-5.74196096929998e+000

2.56342360828676e+005,-2.79138838329388e+001,-5.82199845025381e+000

2.59920766833993e+005,-2.79143595581621e+001,-5.90314824595432e+000

2.63549125525621e+005,-2.79148486098218e+001,-5.98542567386641e+000

2.67228134217075e+005,-2.79153513598476e+001,-6.06884625644145e+000

2.70958499956006e+005,-2.79158681904713e+001,-6.15342572360897e+000

2.74740939660078e+005,-2.79163994945070e+001,-6.23918001528740e+000

2.78576180254757e+005,-2.79169456756400e+001,-6.32612528391520e+000

2.82464958813007e+005,-2.79175071487224e+001,-6.41427789699814e+000

2.86408022696948e+005,-2.79180843400768e+001,-6.50365443967802e+000

2.90406129701488e+005,-2.79186776878079e+001,-6.59427171731634e+000

2.94460048199957e+005,-2.79192876421223e+001,-6.68614675809797e+000

2.98570557291775e+005,-2.79199146656566e+001,-6.77929681564931e+000

3.02738446952187e+005,-2.79205592338140e+001,-6.87373937167447e+000

3.06964518184081e+005,-2.79212218351096e+001,-6.96949213860643e+000

3.11249583171928e+005,-2.79219029715252e+001,-7.06657306227334e+000

3.15594465437872e+005,-2.79226031588721e+001,-7.16500032457951e+000

3.19999999999997e+005,-2.79233229271647e+001,-7.26479234620010e+000

3.24467033532806e+005,-2.79240628210025e+001,-7.36596778928807e+000

3.28996424529938e+005,-2.79248233999626e+001,-7.46854556019448e+000

3.33589043469155e+005,-2.79256052390019e+001,-7.57254481219899e+000

3.38245772979638e+005,-2.79264089288699e+001,-7.67798494825156e+000

3.42967508011610e+005,-2.79272350765316e+001,-7.78488562372311e+000

3.47755156008335e+005,-2.79280843056013e+001,-7.89326674916435e+000

3.52609637080511e+005,-2.79289572567875e+001,-8.00314849307311e+000

3.57531884183106e+005,-2.79298545883491e+001,-8.11455128466635e+000

3.62522843294651e+005,-2.79307769765621e+001,-8.22749581665864e+000

3.67583473599047e+005,-2.79317251161996e+001,-8.34200304804322e+000

3.72714747669902e+005,-2.79326997210224e+001,-8.45809420687637e+000

3.77917651657445e+005,-2.79337015242824e+001,-8.57579079306229e+000

3.83193185478053e+005,-2.79347312792382e+001,-8.69511458113781e+000

3.88542363006410e+005,-2.79357897596837e+001,-8.81608762305571e+000

3.93966212270369e+005,-2.79368777604896e+001,-8.93873225096288e+000

3.99465775648511e+005,-2.79379960981578e+001,-9.06307107997537e+000

4.05042110070485e+005,-2.79391456113896e+001,-9.18912701094438e+000

4.10696287220124e+005,-2.79403271616678e+001,-9.31692323321498e+000

4.16429393741414e+005,-2.79415416338523e+001,-9.44648322737317e+000

4.22242531447321e+005,-2.79427899367907e+001,-9.57783076797993e+000

4.28136817531551e+005,-2.79440730039427e+001,-9.71098992629060e+000

4.34113384783250e+005,-2.79453917940200e+001,-9.84598507295735e+000

4.40173381804713e+005,-2.79467472916407e+001,-9.98284088071102e+000

4.46317973232124e+005,-2.79481405080000e+001,-1.01215823270219e+001

4.52548339959385e+005,-2.79495724815550e+001,-1.02622346967353e+001

4.58865679365059e+005,-2.79510442787273e+001,-1.04048235846803e+001

4.65271205542494e+005,-2.79525569946200e+001,-1.05493748982485e+001

4.71766149533147e+005,-2.79541117537523e+001,-1.06959148599388e+001

4.78351759563174e+005,-2.79557097108107e+001,-1.08444700098680e+001

4.85029301283321e+005,-2.79573520514162e+001,-1.09950672082408e+001

4.91800058012158e+005,-2.79590399929100e+001,-1.11477336377783e+001

4.98665330982714e+005,-2.79607747851556e+001,-1.13024968061002e+001

5.05626439592555e+005,-2.79625577113596e+001,-1.14593845480580e+001

5.12684721657352e+005,-2.79643900889092e+001,-1.16184250280151e+001

5.19841533667984e+005,-2.79662732702292e+001,-1.17796467420703e+001

5.27098251051240e+005,-2.79682086436566e+001,-1.19430785202202e+001

5.34456268434150e+005,-2.79701976343338e+001,-1.21087495284563e+001

5.41916999912011e+005,-2.79722417051211e+001,-1.22766892707941e+001

