Freq.,VOut,OutRef

1.00000000000000e+004,-2.15026083472809e+001,-3.83412802119303e-001

1.01395947979003e+004,-2.15026100610046e+001,-3.88765017111474e-001

1.02811382665607e+004,-2.15026118229071e+001,-3.94191945039665e-001

1.04246576084112e+004,-2.15026136343426e+001,-3.99694628807260e-001

1.05701804056138e+004,-2.15026154967036e+001,-4.05274125873550e-001

1.07177346253629e+004,-2.15026174114220e+001,-4.10931508455832e-001

1.08673486252606e+004,-2.15026193799695e+001,-4.16667863738472e-001

1.10190511587661e+004,-2.15026214038596e+001,-4.22484294078609e-001

1.11728713807222e+004,-2.15026234846479e+001,-4.28381917219759e-001

1.13288388529580e+004,-2.15026256239343e+001,-4.34361866505819e-001

1.14869835499703e+004,-2.15026278233630e+001,-4.40425291098486e-001

1.16473358646846e+004,-2.15026300846250e+001,-4.46573356198844e-001

1.18099266142953e+004,-2.15026324094585e+001,-4.52807243270051e-001

1.19747870461893e+004,-2.15026347996506e+001,-4.59128150265168e-001

1.21419488439505e+004,-2.15026372570388e+001,-4.65537291856318e-001

1.23114441334492e+004,-2.15026397835124e+001,-4.72035899668075e-001

1.24833054890161e+004,-2.15026423810131e+001,-4.78625222515976e-001

1.26575659397028e+004,-2.15026450515380e+001,-4.85306526642321e-001

1.28342589756290e+004,-2.15026477971398e+001,-4.92081095963490e-001

1.30134185544193e+004,-2.15026506199293e+001,-4.98950232313586e-001

1.31950791077289e+004,-2.15026535220764e+001,-5.05915255695590e-001

1.33792755478611e+004,-2.15026565058118e+001,-5.12977504535756e-001

1.35660432744767e+004,-2.15026595734294e+001,-5.20138335937617e-001

1.37554181813974e+004,-2.15026627272873e+001,-5.27399125945321e-001

1.39474366635040e+004,-2.15026659698099e+001,-5.34761269807041e-001

1.41421356237309e+004,-2.15026693034897e+001,-5.42226182242950e-001

1.43395524801583e+004,-2.15026727308894e+001,-5.49795297716145e-001

1.45397251732031e+004,-2.15026762546436e+001,-5.57470070708580e-001

1.47426921729110e+004,-2.15026798774611e+001,-5.65251975999682e-001

1.49484924863494e+004,-2.15026836021268e+001,-5.73142508950233e-001

1.51571656651040e+004,-2.15026874315038e+001,-5.81143185789541e-001

1.53687518128801e+004,-2.15026913685358e+001,-5.89255543905517e-001

1.55832915932100e+004,-2.15026954162493e+001,-5.97481142140411e-001

1.58008262372675e+004,-2.15026995777555e+001,-6.05821561089793e-001

1.60213975517924e+004,-2.15027038562537e+001,-6.14278403405790e-001

1.62450479271247e+004,-2.15027082550323e+001,-6.22853294106315e-001

1.64718203453514e+004,-2.15027127774730e+001,-6.31547880882587e-001

1.67017583885674e+004,-2.15027174270520e+001,-6.40363834420905e-001

1.69349062472505e+004,-2.15027222073433e+001,-6.49302848719765e-001

1.71713087287550e+004,-2.15027271220216e+001,-6.58366641415130e-001

1.74110112659224e+004,-2.15027321748645e+001,-6.67556954111400e-001

1.76540599258131e+004,-2.15027373697562e+001,-6.76875552713874e-001

1.79005014185594e+004,-2.15027427106899e+001,-6.86324227769289e-001

1.81503831063432e+004,-2.15027482017708e+001,-6.95904794808261e-001

1.84037530124975e+004,-2.15027538472201e+001,-7.05619094693514e-001

1.86606598307361e+004,-2.15027596513770e+001,-7.15468993974026e-001

1.89211529345119e+004,-2.15027656187030e+001,-7.25456385241640e-001

1.91852823865052e+004,-2.15027717537851e+001,-7.35583187495433e-001

1.94530989482457e+004,-2.15027780613389e+001,-7.45851346509068e-001

1.97246540898671e+004,-2.15027845462127e+001,-7.56262835204250e-001

1.99999999999999e+004,-2.15027912133914e+001,-7.66819654028099e-001

2.02791895958005e+004,-2.15027980679995e+001,-7.77523831339188e-001

2.05622765331213e+004,-2.15028051153058e+001,-7.88377423793741e-001

2.08493152168224e+004,-2.15028123607272e+001,-7.99382516741878e-001

2.11403608112276e+004,-2.15028198098328e+001,-8.10541224626130e-001

2.14354692507258e+004,-2.15028274683480e+001,-8.21855691388642e-001

2.17346972505211e+004,-2.15028353421598e+001,-8.33328090879837e-001

2.20381023175322e+004,-2.15028434373199e+001,-8.44960627277282e-001

2.23457427614443e+004,-2.15028517600504e+001,-8.56755535506767e-001

2.26576777059159e+004,-2.15028603167486e+001,-8.68715081670861e-001

2.29739670999406e+004,-2.15028691139910e+001,-8.80841563484117e-001

2.32946717293690e+004,-2.15028781585393e+001,-8.93137310712764e-001

2.36198532285905e+004,-2.15028874573453e+001,-9.05604685621188e-001

2.39495740923785e+004,-2.15028970175559e+001,-9.18246083424250e-001

2.42838976879009e+004,-2.15029068465192e+001,-9.31063932746818e-001

2.46228882668982e+004,-2.15029169517894e+001,-9.44060696088898e-001

2.49666109780322e+004,-2.15029273411335e+001,-9.57238870296742e-001

2.53151318794055e+004,-2.15029380225364e+001,-9.70600987041601e-001

2.56685179512580e+004,-2.15029490042076e+001,-9.84149613305110e-001

2.60268371088386e+004,-2.15029602945871e+001,-9.97887351870002e-001

2.63901582154578e+004,-2.15029719023524e+001,-1.01181684181857e+000

2.67585510957221e+004,-2.15029838364248e+001,-1.02594075903795e+000

2.71320865489533e+004,-2.15029961059761e+001,-1.04026181673420e+000

2.75108363627948e+004,-2.15030087204360e+001,-1.05478276594851e+000

2.78948733270080e+004,-2.15030216894992e+001,-1.06950639608584e+000

2.82842712474618e+004,-2.15030350231328e+001,-1.08443553544874e+000

2.86791049603164e+004,-2.15030487315840e+001,-1.09957305177817e+000

2.90794503464061e+004,-2.15030628253881e+001,-1.11492185280188e+000

2.94853843458219e+004,-2.15030773153761e+001,-1.13048488679106e+000

2.98969849726987e+004,-2.15030922126838e+001,-1.14626514312433e+000

3.03143313302078e+004,-2.15031075287596e+001,-1.16226565285941e+000

3.07375036257601e+004,-2.15031232753737e+001,-1.17848948931303e+000

3.11665831864199e+004,-2.15031394646270e+001,-1.19493976864839e+000

3.16016524745350e+004,-2.15031561089606e+001,-1.21161965047031e+000

3.20427951035848e+004,-2.15031732211648e+001,-1.22853233843024e+000

3.24900958542493e+004,-2.15031908143897e+001,-1.24568108083825e+000

3.29436406907028e+004,-2.15032089021546e+001,-1.26306917128347e+000

3.34035167771346e+004,-2.15032274983589e+001,-1.28069994926326e+000

3.38698124945009e+004,-2.15032466172922e+001,-1.29857680082212e+000

3.43426174575100e+004,-2.15032662736459e+001,-1.31670315919692e+000

3.48220225318448e+004,-2.15032864825240e+001,-1.33508250547428e+000

3.53081198516260e+004,-2.15033072594549e+001,-1.35371836925370e+000

3.58010028371187e+004,-2.15033286204033e+001,-1.37261432932214e+000

3.63007662126863e+004,-2.15033505817823e+001,-1.39177401433724e+000

3.68075060249948e+004,-2.15033731604663e+001,-1.41120110351932e+000

3.73213196614721e+004,-2.15033963738034e+001,-1.43089932735355e+000

3.78423058690237e+004,-2.15034202396296e+001,-1.45087246830115e+000

3.83705647730104e+004,-2.15034447762814e+001,-1.47112436152194e+000

3.89061978964912e+004,-2.15034700026107e+001,-1.49165889560348e+000

3.94493081797342e+004,-2.15034959379990e+001,-1.51248001330458e+000

3.99999999999998e+004,-2.15035226023719e+001,-1.53359171230552e+000

4.05583791916010e+004,-2.15035500162152e+001,-1.55499804596964e+000

4.11245530662425e+004,-2.15035782005896e+001,-1.57670312411625e+000

4.16986304336447e+004,-2.15036071771478e+001,-1.59871111380220e+000

4.22807216224550e+004,-2.15036369681503e+001,-1.62102624011631e+000

4.28709385014515e+004,-2.15036675964831e+001,-1.64365278698330e+000

4.34693945010421e+004,-2.15036990856748e+001,-1.66659509797887e+000

4.40762046350642e+004,-2.15037314599149e+001,-1.68985757715578e+000

4.46914855228886e+004,-2.15037647440721e+001,-1.71344468988172e+000

4.53153554118317e+004,-2.15037989637137e+001,-1.73736096368832e+000

4.59479341998812e+004,-2.15038341451248e+001,-1.76161098913196e+000

4.65893434587380e+004,-2.15038703153288e+001,-1.78619942066504e+000

4.72397064571810e+004,-2.15039075021078e+001,-1.81113097752116e+000

4.78991481847569e+004,-2.15039457340242e+001,-1.83641044461101e+000

4.85677953758016e+004,-2.15039850404420e+001,-1.86204267343006e+000

4.92457765337964e+004,-2.15040254515501e+001,-1.88803258298002e+000

4.99332219560642e+004,-2.15040669983849e+001,-1.91438516070106e+000

5.06302637588109e+004,-2.15041097128540e+001,-1.94110546341829e+000

5.13370359025159e+004,-2.15041536277610e+001,-1.96819861829965e+000

5.20536742176771e+004,-2.15041987768303e+001,-1.99566982382808e+000

5.27803164309155e+004,-2.15042451947331e+001,-2.02352435078461e+000

5.35171021914442e+004,-2.15042929171138e+001,-2.05176754324857e+000

5.42641730979066e+004,-2.15043419806174e+001,-2.08040481960670e+000

5.50216727255895e+004,-2.15043924229174e+001,-2.10944167357902e+000

5.57897466540159e+004,-2.15044442827448e+001,-2.13888367525769e+000

5.65685424949235e+004,-2.15044975999176e+001,-2.16873647215926e+000

5.73582099206328e+004,-2.15045524153713e+001,-2.19900579029154e+000

5.81589006928121e+004,-2.15046087711901e+001,-2.22969743523452e+000

5.89707686916437e+004,-2.15046667106394e+001,-2.26081729323632e+000

5.97939699453972e+004,-2.15047262781985e+001,-2.29237133232311e+000

6.06286626604156e+004,-2.15047875195947e+001,-2.32436560342388e+000

6.14750072515201e+004,-2.15048504818383e+001,-2.35680624151162e+000

6.23331663728396e+004,-2.15049152132589e+001,-2.38969946675598e+000

6.32033049490698e+004,-2.15049817635415e+001,-2.42305158569719e+000

6.40855902071694e+004,-2.15050501837651e+001,-2.45686899242918e+000

6.49801917084985e+004,-2.15051205264416e+001,-2.49115816980326e+000

6.58872813814055e+004,-2.15051928455556e+001,-2.52592569064509e+000

6.68070335542691e+004,-2.15052671966061e+001,-2.56117821898926e+000

6.77396249890018e+004,-2.15053436366484e+001,-2.59692251132797e+000

6.86852349150199e+004,-2.15054222243380e+001,-2.63316541787902e+000

6.96440450636895e+004,-2.15055030199751e+001,-2.66991388386920e+000

7.06162397032520e+004,-2.15055860855507e+001,-2.70717495083283e+000

7.16020056742374e+004,-2.15056714847941e+001,-2.74495575793033e+000

7.26015324253724e+004,-2.15057592832211e+001,-2.78326354328247e+000

7.36150120499896e+004,-2.15058495481840e+001,-2.82210564532206e+000

7.46426393229441e+004,-2.15059423489234e+001,-2.86148950416260e+000

7.56846117380472e+004,-2.15060377566204e+001,-2.90142266298719e+000

7.67411295460207e+004,-2.15061358444511e+001,-2.94191276945234e+000

7.78123957929823e+004,-2.15062366876423e+001,-2.98296757711208e+000

7.88986163594682e+004,-2.15063403635288e+001,-3.02459494685951e+000

7.99999999999995e+004,-2.15064469516121e+001,-3.06680284838807e+000

8.11167583832018e+004,-2.15065565336212e+001,-3.10959936166973e+000

8.22491061324848e+004,-2.15066691935746e+001,-3.15299267845370e+000

8.33972608672892e+004,-2.15067850178440e+001,-3.19699110378389e+000

8.45614432449099e+004,-2.15069040952204e+001,-3.24160305753568e+000

8.57418770029029e+004,-2.15070265169812e+001,-3.28683707597204e+000

8.69387890020841e+004,-2.15071523769600e+001,-3.33270181331956e+000

8.81524092701283e+004,-2.15072817716173e+001,-3.37920604336495e+000

8.93829710457770e+004,-2.15074148001142e+001,-3.42635866107075e+000

9.06307108236633e+004,-2.15075515643874e+001,-3.47416868421224e+000

9.18958683997622e+004,-2.15076921692269e+001,-3.52264525503366e+000

9.31786869174758e+004,-2.15078367223549e+001,-3.57179764192704e+000

9.44794129143618e+004,-2.15079853345080e+001,-3.62163524113011e+000

9.57982963695136e+004,-2.15081381195211e+001,-3.67216757844632e+000

9.71355907516031e+004,-2.15082951944132e+001,-3.72340431098578e+000

9.84915530675926e+004,-2.15084566794766e+001,-3.77535522892736e+000

9.98664439121282e+004,-2.15086226983676e+001,-3.82803025730359e+000

1.01260527517622e+005,-2.15087933781999e+001,-3.88143945780573e+000

1.02674071805032e+005,-2.15089688496413e+001,-3.93559303061183e+000

1.04107348435354e+005,-2.15091492470120e+001,-3.99050131623716e+000

1.05560632861831e+005,-2.15093347083863e+001,-4.04617479740640e+000

1.07034204382888e+005,-2.15095253756967e+001,-4.10262410094825e+000

1.08528346195813e+005,-2.15097213948416e+001,-4.15985999971288e+000

1.10043345451179e+005,-2.15099229157944e+001,-4.21789341451264e+000

1.11579493308032e+005,-2.15101300927175e+001,-4.27673541608506e+000

1.13137084989847e+005,-2.15103430840780e+001,-4.33639722707942e+000

1.14716419841265e+005,-2.15105620527671e+001,-4.39689022406583e+000

1.16317801385624e+005,-2.15107871662232e+001,-4.45822593956928e+000

1.17941537383287e+005,-2.15110185965570e+001,-4.52041606412504e+000

1.19587939890794e+005,-2.15112565206816e+001,-4.58347244835995e+000

1.21257325320831e+005,-2.15115011204454e+001,-4.64740710509529e+000

1.22950014503040e+005,-2.15117525827682e+001,-4.71223221147558e+000

1.24666332745679e+005,-2.15120110997819e+001,-4.77796011112005e+000

1.26406609898139e+005,-2.15122768689745e+001,-4.84460331629833e+000

1.28171180414339e+005,-2.15125500933380e+001,-4.91217451013090e+000

1.29960383416997e+005,-2.15128309815204e+001,-4.98068654881356e+000

1.31774562762811e+005,-2.15131197479819e+001,-5.05015246386565e+000

1.33614067108538e+005,-2.15134166131553e+001,-5.12058546440335e+000

1.35479249978003e+005,-2.15137218036106e+001,-5.19199893943723e+000

1.37370469830040e+005,-2.15140355522240e+001,-5.26440646019429e+000

1.39288090127379e+005,-2.15143580983521e+001,-5.33782178246423e+000

1.41232479406504e+005,-2.15146896880098e+001,-5.41225884897076e+000

1.43204011348474e+005,-2.15150305740535e+001,-5.48773179176670e+000

1.45203064850745e+005,-2.15153810163695e+001,-5.56425493465439e+000

1.47230024099979e+005,-2.15157412820672e+001,-5.64184279562987e+000

1.49285278645888e+005,-2.15161116456768e+001,-5.72051008935222e+000

1.51369223476094e+005,-2.15164923893537e+001,-5.80027172963667e+000

1.53482259092041e+005,-2.15168838030872e+001,-5.88114283197196e+000

1.55624791585964e+005,-2.15172861849153e+001,-5.96313871606284e+000

1.57797232718936e+005,-2.15176998411450e+001,-6.04627490839547e+000

1.59999999999999e+005,-2.15181250865784e+001,-6.13056714482774e+000

1.62233516766403e+005,-2.15185622447455e+001,-6.21603137320247e+000

1.64498212264969e+005,-2.15190116481419e+001,-6.30268375598570e+000

1.66794521734578e+005,-2.15194736384742e+001,-6.39054067292685e+000

1.69122886489819e+005,-2.15199485669107e+001,-6.47961872374304e+000

1.71483754005805e+005,-2.15204367943397e+001,-6.56993473082623e+000

1.73877578004168e+005,-2.15209386916334e+001,-6.66150574197325e+000

1.76304818540256e+005,-2.15214546399205e+001,-6.75434903313751e+000

1.78765942091554e+005,-2.15219850308638e+001,-6.84848211120416e+000

1.81261421647326e+005,-2.15225302669469e+001,-6.94392271678558e+000

1.83791736799524e+005,-2.15230907617676e+001,-7.04068882703915e+000

1.86357373834951e+005,-2.15236669403386e+001,-7.13879865850594e+000

1.88958825828723e+005,-2.15242592393968e+001,-7.23827066996927e+000

1.91596592739027e+005,-2.15248681077201e+001,-7.33912356533381e+000

1.94271181503206e+005,-2.15254940064527e+001,-7.44137629652441e+000

1.96983106135185e+005,-2.15261374094382e+001,-7.54504806640296e+000

1.99732887824256e+005,-2.15267988035622e+001,-7.65015833170487e+000

2.02521055035243e+005,-2.15274786891030e+001,-7.75672680599166e+000

2.05348143610063e+005,-2.15281775800914e+001,-7.86477346262213e+000

2.08214696870707e+005,-2.15288960046799e+001,-7.97431853773887e+000

2.11121265723661e+005,-2.15296345055213e+001,-8.08538253327023e+000

2.14068408765776e+005,-2.15303936401561e+001,-8.19798621994780e+000

2.17056692391625e+005,-2.15311739814115e+001,-8.31215064033663e+000

2.20086690902357e+005,-2.15319761178082e+001,-8.42789711187876e+000

2.23158986616063e+005,-2.15328006539793e+001,-8.54524722994927e+000

2.26274169979693e+005,-2.15336482110985e+001,-8.66422287092172e+000

2.29432839682530e+005,-2.15345194273200e+001,-8.78484619524480e+000

2.32635602771247e+005,-2.15354149582280e+001,-8.90713965052652e+000

2.35883074766574e+005,-2.15363354772986e+001,-9.03112597462639e+000

2.39175879781588e+005,-2.15372816763726e+001,-9.15682819875311e+000

2.42514650641661e+005,-2.15382542661397e+001,-9.28426965056697e+000

2.45900029006080e+005,-2.15392539766348e+001,-9.41347395728658e+000

2.49332665491357e+005,-2.15402815577463e+001,-9.54446504879506e+000

2.52813219796278e+005,-2.15413377797369e+001,-9.67726716074903e+000

2.56342360828676e+005,-2.15424234337770e+001,-9.81190483768373e+000

2.59920766833993e+005,-2.15435393324898e+001,-9.94840293611658e+000

2.63549125525621e+005,-2.15446863105117e+001,-1.00867866276442e+001

2.67228134217075e+005,-2.15458652250634e+001,-1.02270814020339e+001

2.70958499956006e+005,-2.15470769565368e+001,-1.03693130703044e+001

2.74740939660078e+005,-2.15483224090937e+001,-1.05135077677965e+001

2.78576180254757e+005,-2.15496025112803e+001,-1.06596919572302e+001

2.82464958813007e+005,-2.15509182166544e+001,-1.08078924317458e+001

2.86408022696948e+005,-2.15522705044283e+001,-1.09581363179268e+001

2.90406129701488e+005,-2.15536603801253e+001,-1.11104510788026e+001

2.94460048199957e+005,-2.15550888762525e+001,-1.12648645168273e+001

2.98570557291775e+005,-2.15565570529873e+001,-1.14214047768328e+001

3.02738446952187e+005,-2.15580659988806e+001,-1.15801003489532e+001

3.06964518184081e+005,-2.15596168315749e+001,-1.17409800715163e+001

3.11249583171928e+005,-2.15612106985382e+001,-1.19040731339014e+001

3.15594465437872e+005,-2.15628487778147e+001,-1.20694090793576e+001

3.19999999999997e+005,-2.15645322787911e+001,-1.22370178077812e+001

3.24467033532806e+005,-2.15662624429794e+001,-1.24069295784473e+001

3.28996424529938e+005,-2.15680405448168e+001,-1.25791750126932e+001

3.33589043469155e+005,-2.15698678924825e+001,-1.27537850965487e+001

3.38245772979638e+005,-2.15717458287307e+001,-1.29307911833095e+001

3.42967508011610e+005,-2.15736757317420e+001,-1.31102249960510e+001

3.47755156008335e+005,-2.15756590159913e+001,-1.32921186300757e+001

3.52609637080511e+005,-2.15776971331337e+001,-1.34765045552922e+001

3.57531884183106e+005,-2.15797915729076e+001,-1.36634156185201e+001

3.62522843294651e+005,-2.15819438640563e+001,-1.38528850457164e+001

3.67583473599047e+005,-2.15841555752665e+001,-1.40449464441169e+001

3.72714747669902e+005,-2.15864283161259e+001,-1.42396338042915e+001

3.77917651657445e+005,-2.15887637380978e+001,-1.44369815021032e+001

3.83193185478053e+005,-2.15911635355142e+001,-1.46370243005690e+001

3.88542363006410e+005,-2.15936294465876e+001,-1.48397973516156e+001

3.93966212270369e+005,-2.15961632544398e+001,-1.50453361977247e+001

3.99465775648511e+005,-2.15987667881496e+001,-1.52536767734606e+001

4.05042110070485e+005,-2.16014419238182e+001,-1.54648554068761e+001

4.10696287220124e+005,-2.16041905856531e+001,-1.56789088207887e+001

4.16429393741414e+005,-2.16070147470693e+001,-1.58958741339209e+001

4.22242531447321e+005,-2.16099164318085e+001,-1.61157888618988e+001

4.28136817531551e+005,-2.16128977150762e+001,-1.63386909181001e+001

4.34113384783250e+005,-2.16159607246957e+001,-1.65646186143467e+001

4.40173381804713e+005,-2.16191076422797e+001,-1.67936106614336e+001

4.46317973232124e+005,-2.16223407044187e+001,-1.70257061694854e+001

4.52548339959385e+005,-2.16256622038859e+001,-1.72609446481353e+001

4.58865679365059e+005,-2.16290744908584e+001,-1.74993660065162e+001

4.65271205542494e+005,-2.16325799741546e+001,-1.77410105530579e+001

4.71766149533147e+005,-2.16361811224859e+001,-1.79859189950806e+001

4.78351759563174e+005,-2.16398804657250e+001,-1.82341324381768e+001

4.85029301283321e+005,-2.16436805961870e+001,-1.84856923853743e+001

4.91800058012158e+005,-2.16475841699250e+001,-1.87406407360689e+001

4.98665330982714e+005,-2.16515939080381e+001,-1.89990197847208e+001

5.05626439592555e+005,-2.16557125979931e+001,-1.92608722193029e+001

5.12684721657352e+005,-2.16599430949556e+001,-1.95262411194944e+001

5.19841533667984e+005,-2.16642883231337e+001,-1.97951699546083e+001

5.27098251051240e+005,-2.16687512771302e+001,-2.00677025812444e+001

5.34456268434150e+005,-2.16733350233038e+001,-2.03438832406578e+001

5.41916999912011e+005,-2.16780427011380e+001,-2.06237565558335e+001

