Freq.,VOut,OutRef

1.00000000000000e+004,-1.67034077672391e+001,-9.50659602406872e-002

1.01395947979003e+004,-1.67034083838205e+001,-9.63929600912567e-002

1.02811382665607e+004,-1.67034090177247e+001,-9.77384811335453e-002

1.04246576084112e+004,-1.67034096694378e+001,-9.91027817869561e-002

1.05701804056138e+004,-1.67034103394599e+001,-1.00486124068743e-001

1.07177346253629e+004,-1.67034110283049e+001,-1.01888773652977e-001

1.08673486252606e+004,-1.67034117365014e+001,-1.03310999910426e-001

1.10190511587661e+004,-1.67034124645922e+001,-1.04753075972840e-001

1.11728713807222e+004,-1.67034132131362e+001,-1.06215278771150e-001

1.13288388529580e+004,-1.67034139827071e+001,-1.07697889101703e-001

1.14869835499703e+004,-1.67034147738953e+001,-1.09201191668920e-001

1.16473358646846e+004,-1.67034155873074e+001,-1.10725475147113e-001

1.18099266142953e+004,-1.67034164235670e+001,-1.12271032232062e-001

1.19747870461893e+004,-1.67034172833154e+001,-1.13838159696509e-001

1.21419488439505e+004,-1.67034181672117e+001,-1.15427158448179e-001

1.23114441334492e+004,-1.67034190759334e+001,-1.17038333587947e-001

1.24833054890161e+004,-1.67034200101773e+001,-1.18671994464128e-001

1.26575659397028e+004,-1.67034209706590e+001,-1.20328454738188e-001

1.28342589756290e+004,-1.67034219581151e+001,-1.22008032435611e-001

1.30134185544193e+004,-1.67034229733021e+001,-1.23711050013177e-001

1.31950791077289e+004,-1.67034240169980e+001,-1.25437834420012e-001

1.33792755478611e+004,-1.67034250900021e+001,-1.27188717157337e-001

1.35660432744767e+004,-1.67034261931368e+001,-1.28964034340595e-001

1.37554181813974e+004,-1.67034273272471e+001,-1.30764126766552e-001

1.39474366635040e+004,-1.67034284932017e+001,-1.32589339977534e-001

1.41421356237309e+004,-1.67034296918936e+001,-1.34440024324868e-001

1.43395524801583e+004,-1.67034309242406e+001,-1.36316535038773e-001

1.45397251732031e+004,-1.67034321911864e+001,-1.38219232292646e-001

1.47426921729110e+004,-1.67034334937013e+001,-1.40148481273091e-001

1.49484924863494e+004,-1.67034348327821e+001,-1.42104652250068e-001

1.51571656651040e+004,-1.67034362094540e+001,-1.44088120646095e-001

1.53687518128801e+004,-1.67034376247705e+001,-1.46099267106974e-001

1.55832915932100e+004,-1.67034390798149e+001,-1.48138477574659e-001

1.58008262372675e+004,-1.67034405757002e+001,-1.50206143362448e-001

1.60213975517924e+004,-1.67034421135714e+001,-1.52302661222921e-001

1.62450479271247e+004,-1.67034436946044e+001,-1.54428433433029e-001

1.64718203453514e+004,-1.67034453200087e+001,-1.56583867860138e-001

1.67017583885674e+004,-1.67034469910275e+001,-1.58769378045627e-001

1.69349062472505e+004,-1.67034487089383e+001,-1.60985383281713e-001

1.71713087287550e+004,-1.67034504750543e+001,-1.63232308690865e-001

1.74110112659224e+004,-1.67034522907261e+001,-1.65510585302208e-001

1.76540599258131e+004,-1.67034541573407e+001,-1.67820650142266e-001

1.79005014185594e+004,-1.67034560763251e+001,-1.70162946306452e-001

1.81503831063432e+004,-1.67034580491452e+001,-1.72537923051171e-001

1.84037530124975e+004,-1.67034600773078e+001,-1.74946035876272e-001

1.86606598307361e+004,-1.67034621623621e+001,-1.77387746607734e-001

1.89211529345119e+004,-1.67034643059003e+001,-1.79863523488924e-001

1.91852823865052e+004,-1.67034665095589e+001,-1.82373841266292e-001

1.94530989482457e+004,-1.67034687750201e+001,-1.84919181280039e-001

1.97246540898671e+004,-1.67034711040126e+001,-1.87500031556178e-001

1.99999999999999e+004,-1.67034734983136e+001,-1.90116886894474e-001

2.02791895958005e+004,-1.67034759597497e+001,-1.92770248963119e-001

2.05622765331213e+004,-1.67034784901978e+001,-1.95460626397556e-001

2.08493152168224e+004,-1.67034810915879e+001,-1.98188534886271e-001

2.11403608112276e+004,-1.67034837659027e+001,-2.00954497277802e-001

2.14354692507258e+004,-1.67034865151808e+001,-2.03759043672574e-001

2.17346972505211e+004,-1.67034893415167e+001,-2.06602711524362e-001

2.20381023175322e+004,-1.67034922470638e+001,-2.09486045739607e-001

2.23457427614443e+004,-1.67034952340348e+001,-2.12409598781663e-001

2.26576777059159e+004,-1.67034983047037e+001,-2.15373930772911e-001

2.29739670999406e+004,-1.67035014614080e+001,-2.18379609599193e-001

2.32946717293690e+004,-1.67035047065501e+001,-2.21427211013548e-001

2.36198532285905e+004,-1.67035080425982e+001,-2.24517318750882e-001

2.39495740923785e+004,-1.67035114720898e+001,-2.27650524628778e-001

2.42838976879009e+004,-1.67035149976321e+001,-2.30827428661957e-001

2.46228882668982e+004,-1.67035186219048e+001,-2.34048639172720e-001

2.49666109780322e+004,-1.67035223476617e+001,-2.37314772904959e-001

2.53151318794055e+004,-1.67035261777326e+001,-2.40626455137927e-001

2.56685179512580e+004,-1.67035301150258e+001,-2.43984319802328e-001

2.60268371088386e+004,-1.67035341625297e+001,-2.47389009598668e-001

2.63901582154578e+004,-1.67035383233154e+001,-2.50841176115965e-001

2.67585510957221e+004,-1.67035426005388e+001,-2.54341479951257e-001

2.71320865489533e+004,-1.67035469974430e+001,-2.57890590832054e-001

2.75108363627948e+004,-1.67035515173601e+001,-2.61489187743500e-001

2.78948733270080e+004,-1.67035561637145e+001,-2.65137959048132e-001

2.82842712474618e+004,-1.67035609400250e+001,-2.68837602614776e-001

2.86791049603164e+004,-1.67035658499067e+001,-2.72588825950248e-001

2.90794503464061e+004,-1.67035708970748e+001,-2.76392346323835e-001

2.94853843458219e+004,-1.67035760853463e+001,-2.80248890903578e-001

2.98969849726987e+004,-1.67035814186433e+001,-2.84159196887372e-001

3.03143313302078e+004,-1.67035869009955e+001,-2.88124011637419e-001

3.07375036257601e+004,-1.67035925365433e+001,-2.92144092819695e-001

3.11665831864199e+004,-1.67035983295407e+001,-2.96220208538794e-001

3.16016524745350e+004,-1.67036042843579e+001,-3.00353137481698e-001

3.20427951035848e+004,-1.67036104054854e+001,-3.04543669054580e-001

3.24900958542493e+004,-1.67036166975362e+001,-3.08792603532752e-001

3.29436406907028e+004,-1.67036231652496e+001,-3.13100752200750e-001

3.34035167771346e+004,-1.67036298134943e+001,-3.17468937500895e-001

3.38698124945009e+004,-1.67036366472719e+001,-3.21897993183639e-001

3.43426174575100e+004,-1.67036436717209e+001,-3.26388764455991e-001

3.48220225318448e+004,-1.67036508921193e+001,-3.30942108134846e-001

3.53081198516260e+004,-1.67036583138890e+001,-3.35558892803060e-001

3.58010028371187e+004,-1.67036659425994e+001,-3.40239998962788e-001

3.63007662126863e+004,-1.67036737839716e+001,-3.44986319193797e-001

3.68075060249948e+004,-1.67036818438817e+001,-3.49798758315221e-001

3.73213196614721e+004,-1.67036901283654e+001,-3.54678233545144e-001

3.78423058690237e+004,-1.67036986436220e+001,-3.59625674665731e-001

3.83705647730104e+004,-1.67037073960184e+001,-3.64642024188322e-001

3.89061978964912e+004,-1.67037163920940e+001,-3.69728237519989e-001

3.94493081797342e+004,-1.67037256385647e+001,-3.74885283133557e-001

3.99999999999998e+004,-1.67037351423277e+001,-3.80114142738685e-001

4.05583791916010e+004,-1.67037449104658e+001,-3.85415811456281e-001

4.11245530662425e+004,-1.67037549502529e+001,-3.90791297990418e-001

4.16986304336447e+004,-1.67037652691583e+001,-3.96241624809075e-001

4.22807216224550e+004,-1.67037758748516e+001,-4.01767828321932e-001

4.28709385014515e+004,-1.67037867752083e+001,-4.07370959060004e-001

4.34693945010421e+004,-1.67037979783148e+001,-4.13052081861271e-001

4.40762046350642e+004,-1.67038094924737e+001,-4.18812276052817e-001

4.46914855228886e+004,-1.67038213262093e+001,-4.24652635640905e-001

4.53153554118317e+004,-1.67038334882732e+001,-4.30574269497257e-001

4.59479341998812e+004,-1.67038459876496e+001,-4.36578301554535e-001

4.65893434587380e+004,-1.67038588335622e+001,-4.42665870992290e-001

4.72397064571810e+004,-1.67038720354787e+001,-4.48838132439957e-001

4.78991481847569e+004,-1.67038856031183e+001,-4.55096256167832e-001

4.85677953758016e+004,-1.67038995464567e+001,-4.61441428289845e-001

4.92457765337964e+004,-1.67039138757332e+001,-4.67874850964621e-001

4.99332219560642e+004,-1.67039286014568e+001,-4.74397742596606e-001

5.06302637588109e+004,-1.67039437344130e+001,-4.81011338043154e-001

5.13370359025159e+004,-1.67039592856702e+001,-4.87716888822519e-001

5.20536742176771e+004,-1.67039752665869e+001,-4.94515663321377e-001

5.27803164309155e+004,-1.67039916888183e+001,-5.01408947007767e-001

5.35171021914442e+004,-1.67040085643242e+001,-5.08398042642697e-001

5.42641730979066e+004,-1.67040259053750e+001,-5.15484270498530e-001

5.50216727255895e+004,-1.67040437245600e+001,-5.22668968574787e-001

5.57897466540159e+004,-1.67040620347950e+001,-5.29953492816847e-001

5.65685424949235e+004,-1.67040808493292e+001,-5.37339217339597e-001

5.73582099206328e+004,-1.67041001817536e+001,-5.44827534649979e-001

5.81589006928121e+004,-1.67041200460086e+001,-5.52419855872738e-001

5.89707686916437e+004,-1.67041404563923e+001,-5.60117610977189e-001

5.97939699453972e+004,-1.67041614275683e+001,-5.67922249009033e-001

6.06286626604156e+004,-1.67041829745744e+001,-5.75835238318827e-001

6.14750072515201e+004,-1.67042051128308e+001,-5.83858066797849e-001

6.23331663728396e+004,-1.67042278581489e+001,-5.91992242112896e-001

6.32033049490698e+004,-1.67042512267393e+001,-6.00239291943928e-001

6.40855902071694e+004,-1.67042752352217e+001,-6.08600764221449e-001

6.49801917084985e+004,-1.67042999006328e+001,-6.17078227371508e-001

6.58872813814055e+004,-1.67043252404357e+001,-6.25673270555542e-001

6.68070335542691e+004,-1.67043512725295e+001,-6.34387503915397e-001

6.77396249890018e+004,-1.67043780152578e+001,-6.43222558822962e-001

6.86852349150199e+004,-1.67044054874186e+001,-6.52180088124749e-001

6.96440450636895e+004,-1.67044337082735e+001,-6.61261766396338e-001

7.06162397032520e+004,-1.67044626975572e+001,-6.70469290191972e-001

7.16020056742374e+004,-1.67044924754873e+001,-6.79804378299674e-001

7.26015324253724e+004,-1.67045230627745e+001,-6.89268771995068e-001

7.36150120499896e+004,-1.67045544806309e+001,-6.98864235302591e-001

7.46426393229441e+004,-1.67045867507816e+001,-7.08592555250658e-001

7.56846117380472e+004,-1.67046198954736e+001,-7.18455542134417e-001

7.67411295460207e+004,-1.67046539374860e+001,-7.28455029778746e-001

7.78123957929823e+004,-1.67046889001401e+001,-7.38592875800042e-001

7.88986163594682e+004,-1.67047248073092e+001,-7.48870961874087e-001

7.99999999999995e+004,-1.67047616834291e+001,-7.59291194001916e-001

8.11167583832018e+004,-1.67047995535075e+001,-7.69855502779615e-001

8.22491061324848e+004,-1.67048384431347e+001,-7.80565843667105e-001

8.33972608672892e+004,-1.67048783784934e+001,-7.91424197260652e-001

8.45614432449099e+004,-1.67049193863685e+001,-8.02432569567013e-001

8.57418770029029e+004,-1.67049614941572e+001,-8.13592992276309e-001

8.69387890020841e+004,-1.67050047298791e+001,-8.24907523039025e-001

8.81524092701283e+004,-1.67050491221856e+001,-8.36378245743424e-001

8.93829710457770e+004,-1.67050947003699e+001,-8.48007270794193e-001

9.06307108236633e+004,-1.67051414943764e+001,-8.59796735392544e-001

9.18958683997622e+004,-1.67051895348104e+001,-8.71748803817726e-001

9.31786869174758e+004,-1.67052388529468e+001,-8.83865667710725e-001

9.44794129143618e+004,-1.67052894807400e+001,-8.96149546357577e-001

9.57982963695136e+004,-1.67053414508320e+001,-9.08602686974576e-001

9.71355907516031e+004,-1.67053947965615e+001,-9.21227364996135e-001

9.84915530675926e+004,-1.67054495519722e+001,-9.34025884361813e-001

9.98664439121282e+004,-1.67055057518206e+001,-9.47000577806725e-001

1.01260527517622e+005,-1.67055634315839e+001,-9.60153807152778e-001

1.02674071805032e+005,-1.67056226274679e+001,-9.73487963598582e-001

1.04107348435354e+005,-1.67056833764131e+001,-9.87005468015267e-001

1.05560632861831e+005,-1.67057457161019e+001,-1.00070877124114e+000

1.07034204382888e+005,-1.67058096849645e+001,-1.01460035437701e+000

1.08528346195813e+005,-1.67058753221849e+001,-1.02868272908453e+000

1.10043345451179e+005,-1.67059426677054e+001,-1.04295843788685e+000

1.11579493308032e+005,-1.67060117622318e+001,-1.05743005446694e+000

1.13137084989847e+005,-1.67060826472366e+001,-1.07210018397438e+000

1.14716419841265e+005,-1.67061553649630e+001,-1.08697146332535e+000

1.16317801385624e+005,-1.67062299584269e+001,-1.10204656151364e+000

1.17941537383287e+005,-1.67063064714190e+001,-1.11732817991493e+000

1.19587939890794e+005,-1.67063849485057e+001,-1.13281905260076e+000

1.21257325320831e+005,-1.67064654350296e+001,-1.14852194664799e+000

1.22950014503040e+005,-1.67065479771079e+001,-1.16443966245796e+000

1.24666332745679e+005,-1.67066326216318e+001,-1.18057503407140e+000

1.26406609898139e+005,-1.67067194162631e+001,-1.19693092948915e+000

1.28171180414339e+005,-1.67068084094306e+001,-1.21351025099796e+000

1.29960383416997e+005,-1.67068996503255e+001,-1.23031593549558e+000

1.31774562762811e+005,-1.67069931888949e+001,-1.24735095482034e+000

1.33614067108538e+005,-1.67070890758349e+001,-1.26461831608840e+000

1.35479249978003e+005,-1.67071873625818e+001,-1.28212106202892e+000

1.37370469830040e+005,-1.67072881013023e+001,-1.29986227132800e+000

1.39288090127379e+005,-1.67073913448822e+001,-1.31784505897537e+000

1.41232479406504e+005,-1.67074971469133e+001,-1.33607257661810e+000

1.43204011348474e+005,-1.67076055616792e+001,-1.35454801291737e+000

1.45203064850745e+005,-1.67077166441392e+001,-1.37327459391373e+000

1.47230024099979e+005,-1.67078304499111e+001,-1.39225558339539e+000

1.49285278645888e+005,-1.67079470352510e+001,-1.41149428327852e+000

1.51369223476094e+005,-1.67080664570326e+001,-1.43099403399053e+000

1.53482259092041e+005,-1.67081887727242e+001,-1.45075821486274e+000

1.55624791585964e+005,-1.67083140403636e+001,-1.47079024453355e+000

1.57797232718936e+005,-1.67084423185307e+001,-1.49109358135868e+000

1.59999999999999e+005,-1.67085736663191e+001,-1.51167172383226e+000

1.62233516766403e+005,-1.67087081433049e+001,-1.53252821101908e+000

1.64498212264969e+005,-1.67088458095128e+001,-1.55366662299775e+000

1.66794521734578e+005,-1.67089867253814e+001,-1.57509058131659e+000

1.69122886489819e+005,-1.67091309517247e+001,-1.59680374946303e+000

1.71483754005805e+005,-1.67092785496927e+001,-1.61880983334611e+000

1.73877578004168e+005,-1.67094295807285e+001,-1.64111258179567e+000

1.76304818540256e+005,-1.67095841065234e+001,-1.66371578707561e+000

1.78765942091554e+005,-1.67097421889703e+001,-1.68662328541503e+000

1.81261421647326e+005,-1.67099038901132e+001,-1.70983895755897e+000

1.83791736799524e+005,-1.67100692720957e+001,-1.73336672933562e+000

1.86357373834951e+005,-1.67102383971057e+001,-1.75721057224734e+000

1.88958825828723e+005,-1.67104113273189e+001,-1.78137450407944e+000

1.91596592739027e+005,-1.67105881248383e+001,-1.80586258953496e+000

1.94271181503206e+005,-1.67107688516331e+001,-1.83067894089216e+000

1.96983106135185e+005,-1.67109535694730e+001,-1.85582771868813e+000

1.99732887824256e+005,-1.67111423398618e+001,-1.88131313242818e+000

2.02521055035243e+005,-1.67113352239675e+001,-1.90713944132494e+000

2.05348143610063e+005,-1.67115322825506e+001,-1.93331095506648e+000

2.08214696870707e+005,-1.67117335758897e+001,-1.95983203461446e+000

2.11121265723661e+005,-1.67119391637053e+001,-1.98670709303684e+000

2.14068408765776e+005,-1.67121491050809e+001,-2.01394059637303e+000

2.17056692391625e+005,-1.67123634583824e+001,-2.04153706453518e+000

2.20086690902357e+005,-1.67125822811757e+001,-2.06950107224747e+000

2.23158986616063e+005,-1.67128056301416e+001,-2.09783725002280e+000

2.26274169979693e+005,-1.67130335609902e+001,-2.12655028518007e+000

2.29432839682530e+005,-1.67132661283730e+001,-2.15564492290295e+000

2.32635602771247e+005,-1.67135033857933e+001,-2.18512596734335e+000

2.35883074766574e+005,-1.67137453855167e+001,-2.21499828276778e+000

2.39175879781588e+005,-1.67139921784794e+001,-2.24526679474952e+000

2.42514650641661e+005,-1.67142438141957e+001,-2.27593649141274e+000

2.45900029006080e+005,-1.67145003406664e+001,-2.30701242471916e+000

2.49332665491357e+005,-1.67147618042850e+001,-2.33849971181101e+000

2.52813219796278e+005,-1.67150282497453e+001,-2.37040353640177e+000

2.56342360828676e+005,-1.67152997199487e+001,-2.40272915022271e+000

2.59920766833993e+005,-1.67155762559120e+001,-2.43548187452142e+000

2.63549125525621e+005,-1.67158578966768e+001,-2.46866710161617e+000

2.67228134217075e+005,-1.67161446792190e+001,-2.50229029650758e+000

2.70958499956006e+005,-1.67164366383609e+001,-2.53635699854528e+000

2.74740939660078e+005,-1.67167338066846e+001,-2.57087282315482e+000

2.78576180254757e+005,-1.67170362144483e+001,-2.60584346362053e+000

2.82464958813007e+005,-1.67173438895052e+001,-2.64127469292837e+000

2.86408022696948e+005,-1.67176568572248e+001,-2.67717236566928e+000

2.90406129701488e+005,-1.67179751404190e+001,-2.71354241999962e+000

2.94460048199957e+005,-1.67182987592712e+001,-2.75039087966292e+000

2.98570557291775e+005,-1.67186277312703e+001,-2.78772385607041e+000

3.02738446952187e+005,-1.67189620711496e+001,-2.82554755044027e+000

3.06964518184081e+005,-1.67193017908305e+001,-2.86386825599618e+000

3.11249583171928e+005,-1.67196468993731e+001,-2.90269236022296e+000

3.15594465437872e+005,-1.67199974029311e+001,-2.94202634717973e+000

3.19999999999997e+005,-1.67203533047158e+001,-2.98187679986879e+000

3.24467033532806e+005,-1.67207146049651e+001,-3.02225040265923e+000

3.28996424529938e+005,-1.67210813009213e+001,-3.06315394376297e+000

3.33589043469155e+005,-1.67214533868163e+001,-3.10459431776342e+000

3.38245772979638e+005,-1.67218308538654e+001,-3.14657852819264e+000

3.42967508011610e+005,-1.67222136902701e+001,-3.18911369015549e+000

3.47755156008335e+005,-1.67226018812297e+001,-3.23220703299960e+000

3.52609637080511e+005,-1.67229954089628e+001,-3.27586590302798e+000

3.57531884183106e+005,-1.67233942527385e+001,-3.32009776624997e+000

3.62522843294651e+005,-1.67237983889181e+001,-3.36491021117012e+000

3.67583473599047e+005,-1.67242077910069e+001,-3.41031095161062e+000

3.72714747669902e+005,-1.67246224297177e+001,-3.45630782956291e+000

3.77917651657445e+005,-1.67250422730439e+001,-3.50290881806876e+000

3.83193185478053e+005,-1.67254672863454e+001,-3.55012202412135e+000

3.88542363006410e+005,-1.67258974324451e+001,-3.59795569158914e+000

3.93966212270369e+005,-1.67263326717366e+001,-3.64641820415345e+000

3.99465775648511e+005,-1.67267729623049e+001,-3.69551808825897e+000

4.05042110070485e+005,-1.67272182600569e+001,-3.74526401607238e+000

4.10696287220124e+005,-1.67276685188656e+001,-3.79566480844378e+000

4.16429393741414e+005,-1.67281236907240e+001,-3.84672943786972e+000

4.22242531447321e+005,-1.67285837259120e+001,-3.89846703145006e+000

4.28136817531551e+005,-1.67290485731742e+001,-3.95088687383856e+000

4.34113384783250e+005,-1.67295181799090e+001,-4.00399841017968e+000

4.40173381804713e+005,-1.67299924923682e+001,-4.05781124902990e+000

4.46317973232124e+005,-1.67304714558686e+001,-4.11233516525851e+000

4.52548339959385e+005,-1.67309550150128e+001,-4.16758010292570e+000

4.58865679365059e+005,-1.67314431139205e+001,-4.22355617813137e+000

4.65271205542494e+005,-1.67319356964699e+001,-4.28027368183554e+000

4.71766149533147e+005,-1.67324327065479e+001,-4.33774308264147e+000

4.78351759563174e+005,-1.67329340883088e+001,-4.39597502954539e+000

4.85029301283321e+005,-1.67334397864419e+001,-4.45498035464268e+000

4.91800058012158e+005,-1.67339497464467e+001,-4.51477007579451e+000

4.98665330982714e+005,-1.67344639149144e+001,-4.57535539924708e+000

5.05626439592555e+005,-1.67349822398169e+001,-4.63674772220655e+000

5.12684721657352e+005,-1.67355046708014e+001,-4.69895863536314e+000

5.19841533667984e+005,-1.67360311594897e+001,-4.76199992536661e+000

5.27098251051240e+005,-1.67365616597827e+001,-4.82588357725106e+000

5.34456268434150e+005,-1.67370961281684e+001,-4.89062177680669e+000

5.41916999912011e+005,-1.67376345240333e+001,-4.95622691290100e+000

