Freq.,VOut,OutRef

1.00000000000000e+004,-6.58525498194531e+000,-2.84239642664926e-002

1.01395947979003e+004,-6.58525519093547e+000,-2.88207208342280e-002

1.02811382665607e+004,-6.58525540579654e+000,-2.92230147638839e-002

1.04246576084112e+004,-6.58525562669344e+000,-2.96309233046790e-002

1.05701804056138e+004,-6.58525585379524e+000,-3.00445247848351e-002

1.07177346253629e+004,-6.58525608727689e+000,-3.04638986164172e-002

1.08673486252606e+004,-6.58525632731682e+000,-3.08891253271390e-002

1.10190511587661e+004,-6.58525657409903e+000,-3.13202865625144e-002

1.11728713807222e+004,-6.58525682781353e+000,-3.17574651003366e-002

1.13288388529580e+004,-6.58525708865393e+000,-3.22007448819354e-002

1.14869835499703e+004,-6.58525735682039e+000,-3.26502110108765e-002

1.16473358646846e+004,-6.58525763251901e+000,-3.31059497733956e-002

1.18099266142953e+004,-6.58525791596064e+000,-3.35680486645215e-002

1.19747870461893e+004,-6.58525820736235e+000,-3.40365963951303e-002

1.21419488439505e+004,-6.58525850694806e+000,-3.45116829064992e-002

1.23114441334492e+004,-6.58525881494676e+000,-3.49933993997026e-002

1.24833054890161e+004,-6.58525913159490e+000,-3.54818383390265e-002

1.26575659397028e+004,-6.58525945713504e+000,-3.59770934793432e-002

1.28342589756290e+004,-6.58525979181610e+000,-3.64792598827138e-002

1.30134185544193e+004,-6.58526013589508e+000,-3.69884339278524e-002

1.31950791077289e+004,-6.58526048963494e+000,-3.75047133422467e-002

1.33792755478611e+004,-6.58526085330746e+000,-3.80281972042557e-002

1.35660432744767e+004,-6.58526122718995e+000,-3.85589859840809e-002

1.37554181813974e+004,-6.58526161156978e+000,-3.90971815354952e-002

1.39474366635040e+004,-6.58526200674057e+000,-3.96428871402810e-002

1.41421356237309e+004,-6.58526241300498e+000,-4.01962075119673e-002

1.43395524801583e+004,-6.58526283067455e+000,-4.07572488177712e-002

1.45397251732031e+004,-6.58526326006805e+000,-4.13261187109945e-002

1.47426921729110e+004,-6.58526370151439e+000,-4.19029263347431e-002

1.49484924863494e+004,-6.58526415535154e+000,-4.24877823499924e-002

1.51571656651040e+004,-6.58526462192649e+000,-4.30807989594544e-002

1.53687518128801e+004,-6.58526510159631e+000,-4.36820899232264e-002

1.55832915932100e+004,-6.58526559472788e+000,-4.42917705837153e-002

1.58008262372675e+004,-6.58526610169815e+000,-4.49099578875394e-002

1.60213975517924e+004,-6.58526662289484e+000,-4.55367704059523e-002

1.62450479271247e+004,-6.58526715871634e+000,-4.61723283573455e-002

1.64718203453514e+004,-6.58526770957237e+000,-4.68167536301067e-002

1.67017583885674e+004,-6.58526827588363e+000,-4.74701698088312e-002

1.69349062472505e+004,-6.58526885808342e+000,-4.81327021888546e-002

1.71713087287550e+004,-6.58526945661601e+000,-4.88044778130605e-002

1.74110112659224e+004,-6.58527007193869e+000,-4.94856254843625e-002

1.76540599258131e+004,-6.58527070452151e+000,-5.01762757942239e-002

1.79005014185594e+004,-6.58527135484720e+000,-5.08765611495314e-002

1.81503831063432e+004,-6.58527202341253e+000,-5.15866157909781e-002

1.84037530124975e+004,-6.58527271072823e+000,-5.23065758220446e-002

1.86606598307361e+004,-6.58527341731791e+000,-5.30365792429510e-002

1.89211529345119e+004,-6.58527414372128e+000,-5.37767659594322e-002

1.91852823865052e+004,-6.58527489049208e+000,-5.45272778229029e-002

1.94530989482457e+004,-6.58527565820043e+000,-5.52882586472001e-002

1.97246540898671e+004,-6.58527644743079e+000,-5.60598542493311e-002

1.99999999999999e+004,-6.58527725878558e+000,-5.68422124570826e-002

2.02791895958005e+004,-6.58527809288281e+000,-5.76354831544925e-002

2.05622765331213e+004,-6.58527895035801e+000,-5.84398183009768e-002

2.08493152168224e+004,-6.58527983186438e+000,-5.92553719607235e-002

2.11403608112276e+004,-6.58528073807311e+000,-6.00823003335244e-002

2.14354692507258e+004,-6.58528166967437e+000,-6.09207617798305e-002

2.17346972505211e+004,-6.58528262737710e+000,-6.17709168559613e-002

2.20381023175322e+004,-6.58528361190985e+000,-6.26329283402394e-002

2.23457427614443e+004,-6.58528462402177e+000,-6.35069612621034e-002

2.26576777059159e+004,-6.58528566448255e+000,-6.43931829355607e-002

2.29739670999406e+004,-6.58528673408297e+000,-6.52917629907403e-002

2.32946717293690e+004,-6.58528783363622e+000,-6.62028734003638e-002

2.36198532285905e+004,-6.58528896397725e+000,-6.71266885199641e-002

2.39495740923785e+004,-6.58529012596504e+000,-6.80633851087257e-002

2.42838976879009e+004,-6.58529132048134e+000,-6.90131423753721e-002

2.46228882668982e+004,-6.58529254843319e+000,-6.99761419979126e-002

2.49666109780322e+004,-6.58529381075203e+000,-7.09525681681688e-002

2.53151318794055e+004,-6.58529510839500e+000,-7.19426076210551e-002

2.56685179512580e+004,-6.58529644234614e+000,-7.29464496657249e-002

2.60268371088386e+004,-6.58529781361641e+000,-7.39642862248649e-002

2.63901582154578e+004,-6.58529922324409e+000,-7.49963118725427e-002

2.67585510957221e+004,-6.58530067229731e+000,-7.60427238572388e-002

2.71320865489533e+004,-6.58530216187200e+000,-7.71037221574590e-002

2.75108363627948e+004,-6.58530369309571e+000,-7.81795094973900e-002

2.78948733270080e+004,-6.58530526712608e+000,-7.92702914000283e-002

2.82842712474618e+004,-6.58530688515305e+000,-8.03762762150841e-002

2.86791049603164e+004,-6.58530854839847e+000,-8.14976751650109e-002

2.90794503464061e+004,-6.58531025811885e+000,-8.26347023716907e-002

2.94853843458219e+004,-6.58531201560439e+000,-8.37875749063848e-002

2.98969849726987e+004,-6.58531382218080e+000,-8.49565128243561e-002

3.03143313302078e+004,-6.58531567921014e+000,-8.61417392041768e-002

3.07375036257601e+004,-6.58531758809197e+000,-8.73434801874257e-002

3.11665831864199e+004,-6.58531955026334e+000,-8.85619650255544e-002

3.16016524745350e+004,-6.58532156720137e+000,-8.97974261113579e-002

3.20427951035848e+004,-6.58532364042337e+000,-9.10500990260245e-002

3.24900958542493e+004,-6.58532577148784e+000,-9.23202225822742e-002

3.29436406907028e+004,-6.58532796199551e+000,-9.36080388668481e-002

3.34035167771346e+004,-6.58533021359111e+000,-9.49137932800390e-002

3.38698124945009e+004,-6.58533252796411e+000,-9.62377345813251e-002

3.43426174575100e+004,-6.58533490684988e+000,-9.75801149339137e-002

3.48220225318448e+004,-6.58533735203018e+000,-9.89411899546173e-002

3.53081198516260e+004,-6.58533986533630e+000,-1.00321218745233e-001

3.58010028371187e+004,-6.58534244864805e+000,-1.01720463954081e-001

3.63007662126863e+004,-6.58534510389701e+000,-1.03139191809371e-001

3.68075060249948e+004,-6.58534783306633e+000,-1.04577672175573e-001

3.73213196614721e+004,-6.58535063819295e+000,-1.06036178594618e-001

3.78423058690237e+004,-6.58535352136883e+000,-1.07514988335214e-001

3.83705647730104e+004,-6.58535648474212e+000,-1.09014382442641e-001

3.89061978964912e+004,-6.58535953051891e+000,-1.10534645785219e-001

3.94493081797342e+004,-6.58536266096433e+000,-1.12076067106471e-001

3.99999999999998e+004,-6.58536587840480e+000,-1.13638939069907e-001

4.05583791916010e+004,-6.58536918522842e+000,-1.15223558316763e-001

4.11245530662425e+004,-6.58537258388788e+000,-1.16830225508768e-001

4.16986304336447e+004,-6.58537607690083e+000,-1.18459245387794e-001

4.22807216224550e+004,-6.58537966685255e+000,-1.20110926819862e-001

4.28709385014515e+004,-6.58538335639706e+000,-1.21785582852930e-001

4.34693945010421e+004,-6.58538714825861e+000,-1.23483530770662e-001

4.40762046350642e+004,-6.58539104523434e+000,-1.25205092140250e-001

4.46914855228886e+004,-6.58539505019566e+000,-1.26950592869381e-001

4.53153554118317e+004,-6.58539916608916e+000,-1.28720363266423e-001

4.59479341998812e+004,-6.58540339594024e+000,-1.30514738084587e-001

4.65893434587380e+004,-6.58540774285368e+000,-1.32334056585640e-001

4.72397064571810e+004,-6.58541221001582e+000,-1.34178662595765e-001

4.78991481847569e+004,-6.58541680069693e+000,-1.36048904558361e-001

4.85677953758016e+004,-6.58542151825305e+000,-1.37945135593494e-001

4.92457765337964e+004,-6.58542636612810e+000,-1.39867713555080e-001

4.99332219560642e+004,-6.58543134785605e+000,-1.41817001088422e-001

5.06302637588109e+004,-6.58543646706239e+000,-1.43793365693296e-001

5.13370359025159e+004,-6.58544172746737e+000,-1.45797179777318e-001

5.20536742176771e+004,-6.58544713288762e+000,-1.47828820718188e-001

5.27803164309155e+004,-6.58545268723883e+000,-1.49888670922535e-001

5.35171021914442e+004,-6.58545839453707e+000,-1.51977117892420e-001

5.42641730979066e+004,-6.58546425890241e+000,-1.54094554277967e-001

5.50216727255895e+004,-6.58547028456059e+000,-1.56241377944694e-001

5.57897466540159e+004,-6.58547647584543e+000,-1.58417992034649e-001

5.65685424949235e+004,-6.58548283720156e+000,-1.60624805028589e-001

5.73582099206328e+004,-6.58548937318665e+000,-1.62862230809540e-001

5.81589006928121e+004,-6.58549608847454e+000,-1.65130688723070e-001

5.89707686916437e+004,-6.58550298785657e+000,-1.67430603649917e-001

5.97939699453972e+004,-6.58551007624568e+000,-1.69762406059827e-001

6.06286626604156e+004,-6.58551735867819e+000,-1.72126532082791e-001

6.14750072515201e+004,-6.58552484031644e+000,-1.74523423574259e-001

6.23331663728396e+004,-6.58553252645186e+000,-1.76953528178265e-001

6.32033049490698e+004,-6.58554042250765e+000,-1.79417299394965e-001

6.40855902071694e+004,-6.58554853404112e+000,-1.81915196648999e-001

6.49801917084985e+004,-6.58555686674738e+000,-1.84447685350554e-001

6.58872813814055e+004,-6.58556542646131e+000,-1.87015236969113e-001

6.68070335542691e+004,-6.58557421916073e+000,-1.89618329098519e-001

6.77396249890018e+004,-6.58558325096911e+000,-1.92257445525836e-001

6.86852349150199e+004,-6.58559252815928e+000,-1.94933076294867e-001

6.96440450636895e+004,-6.58560205715491e+000,-1.97645717783710e-001

7.06162397032520e+004,-6.58561184453490e+000,-2.00395872764413e-001

7.16020056742374e+004,-6.58562189703528e+000,-2.03184050479450e-001

7.26015324253724e+004,-6.58563222155281e+000,-2.06010766705939e-001

7.36150120499896e+004,-6.58564282514750e+000,-2.08876543829762e-001

7.46426393229441e+004,-6.58565371504606e+000,-2.11781910911652e-001

7.56846117380472e+004,-6.58566489864441e+000,-2.14727403759946e-001

7.67411295460207e+004,-6.58567638351068e+000,-2.17713565001958e-001

7.78123957929823e+004,-6.58568817738869e+000,-2.20740944150955e-001

7.88986163594682e+004,-6.58570028820036e+000,-2.23810097680126e-001

7.99999999999995e+004,-6.58571272404874e+000,-2.26921589092758e-001

8.11167583832018e+004,-6.58572549322103e+000,-2.30075988993775e-001

8.22491061324848e+004,-6.58573860419156e+000,-2.33273875159900e-001

8.33972608672892e+004,-6.58575206562428e+000,-2.36515832612378e-001

8.45614432449099e+004,-6.58576588637557e+000,-2.39802453690159e-001

8.57418770029029e+004,-6.58578007549792e+000,-2.43134338115131e-001

8.69387890020841e+004,-6.58579464224107e+000,-2.46512093072795e-001

8.81524092701283e+004,-6.58580959605585e+000,-2.49936333278209e-001

8.93829710457770e+004,-6.58582494659645e+000,-2.53407681048289e-001

9.06307108236633e+004,-6.58584070372256e+000,-2.56926766377078e-001

9.18958683997622e+004,-6.58585687750231e+000,-2.60494227003265e-001

9.31786869174758e+004,-6.58587347821424e+000,-2.64110708485360e-001

9.44794129143618e+004,-6.58589051634946e+000,-2.67776864273366e-001

9.57982963695136e+004,-6.58590800261381e+000,-2.71493355780169e-001

9.71355907516031e+004,-6.58592594792994e+000,-2.75260852453232e-001

9.84915530675926e+004,-6.58594436343902e+000,-2.79080031847072e-001

9.98664439121282e+004,-6.58596326050240e+000,-2.82951579695248e-001

1.01260527517622e+005,-6.58598265070328e+000,-2.86876189981217e-001

1.02674071805032e+005,-6.58600254584767e+000,-2.90854565012656e-001

1.04107348435354e+005,-6.58602295796573e+000,-2.94887415492303e-001

1.05560632861831e+005,-6.58604389931297e+000,-2.98975460588100e-001

1.07034204382888e+005,-6.58606538237058e+000,-3.03119428007432e-001

1.08528346195813e+005,-6.58608741984607e+000,-3.07320054067762e-001

1.10043345451179e+005,-6.58611002467353e+000,-3.11578083769153e-001

1.11579493308032e+005,-6.58613321001353e+000,-3.15894270866175e-001

1.13137084989847e+005,-6.58615698925267e+000,-3.20269377940903e-001

1.14716419841265e+005,-6.58618137600355e+000,-3.24704176470921e-001

1.16317801385624e+005,-6.58620638410310e+000,-3.29199446907091e-001

1.17941537383287e+005,-6.58623202761151e+000,-3.33755978743251e-001

1.19587939890794e+005,-6.58625832081101e+000,-3.38374570587368e-001

1.21257325320831e+005,-6.58628527820342e+000,-3.43056030236790e-001

1.22950014503040e+005,-6.58631291450781e+000,-3.47801174749679e-001

1.24666332745679e+005,-6.58634124465751e+000,-3.52610830521145e-001

1.26406609898139e+005,-6.58637028379749e+000,-3.57485833351406e-001

1.28171180414339e+005,-6.58640004727969e+000,-3.62427028526575e-001

1.29960383416997e+005,-6.58643055065936e+000,-3.67435270889969e-001

1.31774562762811e+005,-6.58646180969002e+000,-3.72511424918376e-001

1.33614067108538e+005,-6.58649384031863e+000,-3.77656364796232e-001

1.35479249978003e+005,-6.58652665867901e+000,-3.82870974497430e-001

1.37370469830040e+005,-6.58656028108590e+000,-3.88156147858984e-001

1.39288090127379e+005,-6.58659472402767e+000,-3.93512788662388e-001

1.41232479406504e+005,-6.58663000415858e+000,-3.98941810713984e-001

1.43204011348474e+005,-6.58666613829068e+000,-4.04444137924962e-001

1.45203064850745e+005,-6.58670314338415e+000,-4.10020704397881e-001

1.47230024099979e+005,-6.58674103653823e+000,-4.15672454507327e-001

1.49285278645888e+005,-6.58677983498001e+000,-4.21400342991334e-001

1.51369223476094e+005,-6.58681955605331e+000,-4.27205335038247e-001

1.53482259092041e+005,-6.58686021720692e+000,-4.33088406376210e-001

1.55624791585964e+005,-6.58690183598097e+000,-4.39050543370981e-001

1.57797232718936e+005,-6.58694442999365e+000,-4.45092743118864e-001

1.59999999999999e+005,-6.58698801692600e+000,-4.51216013549954e-001

1.62233516766403e+005,-6.58703261450693e+000,-4.57421373526789e-001

1.64498212264969e+005,-6.58707824049630e+000,-4.63709852953259e-001

1.66794521734578e+005,-6.58712491266723e+000,-4.70082492886190e-001

1.69122886489819e+005,-6.58717264878827e+000,-4.76540345646009e-001

1.71483754005805e+005,-6.58722146660315e+000,-4.83084474939552e-001

1.73877578004168e+005,-6.58727138381087e+000,-4.89715955982675e-001

1.76304818540256e+005,-6.58732241804410e+000,-4.96435875627743e-001

1.78765942091554e+005,-6.58737458684642e+000,-5.03245332500291e-001

1.81261421647326e+005,-6.58742790764898e+000,-5.10145437138658e-001

1.83791736799524e+005,-6.58748239774527e+000,-5.17137312143106e-001

1.86357373834951e+005,-6.58753807426599e+000,-5.24222092326539e-001

1.88958825828723e+005,-6.58759495415174e+000,-5.31400924878779e-001

1.91596592739027e+005,-6.58765305412517e+000,-5.38674969533872e-001

1.94271181503206e+005,-6.58771239066172e+000,-5.46045398748919e-001

1.96983106135185e+005,-6.58777297995984e+000,-5.53513397887602e-001

1.99732887824256e+005,-6.58783483790905e+000,-5.61080165420046e-001

2.02521055035243e+005,-6.58789798005843e+000,-5.68746913121678e-001

2.05348143610063e+005,-6.58796242158220e+000,-5.76514866295801e-001

2.08214696870707e+005,-6.58802817724617e+000,-5.84385263993129e-001

2.11121265723661e+005,-6.58809526137154e+000,-5.92359359253858e-001

2.14068408765776e+005,-6.58816368779872e+000,-6.00438419355711e-001

2.17056692391625e+005,-6.58823346984948e+000,-6.08623726076793e-001

2.20086690902357e+005,-6.58830462028891e+000,-6.16916575970191e-001

2.23158986616063e+005,-6.58837715128589e+000,-6.25318280652502e-001

2.26274169979693e+005,-6.58845107437269e+000,-6.33830167108519e-001

2.29432839682530e+005,-6.58852640040429e+000,-6.42453578008215e-001

2.32635602771247e+005,-6.58860313951640e+000,-6.51189872040406e-001

2.35883074766574e+005,-6.58868130108321e+000,-6.60040424262203e-001

2.39175879781588e+005,-6.58876089367415e+000,-6.69006626465406e-001

2.42514650641661e+005,-6.58884192501069e+000,-6.78089887558224e-001

2.45900029006080e+005,-6.58892440192195e+000,-6.87291633967196e-001

2.49332665491357e+005,-6.58900833030076e+000,-6.96613310055061e-001

2.52813219796278e+005,-6.58909371505858e+000,-7.06056378558815e-001

2.56342360828676e+005,-6.58918056008132e+000,-7.15622321044757e-001

2.59920766833993e+005,-6.58926886818392e+000,-7.25312638386222e-001

2.63549125525621e+005,-6.58935864106628e+000,-7.35128851256561e-001

2.67228134217075e+005,-6.58944987926797e+000,-7.45072500648670e-001

2.70958499956006e+005,-6.58954258212479e+000,-7.55145148406990e-001

2.74740939660078e+005,-6.58963674772438e+000,-7.65348377789081e-001

2.78576180254757e+005,-6.58973237286327e+000,-7.75683794042058e-001

2.82464958813007e+005,-6.58982945300452e+000,-7.86153025001870e-001

2.86408022696948e+005,-6.58992798223601e+000,-7.96757721715120e-001

2.90406129701488e+005,-6.59002795322986e+000,-8.07499559081799e-001

2.94460048199957e+005,-6.59012935720311e+000,-8.18380236518726e-001

2.98570557291775e+005,-6.59023218387974e+000,-8.29401478645475e-001

3.02738446952187e+005,-6.59033642145390e+000,-8.40565035991303e-001

3.06964518184081e+005,-6.59044205655541e+000,-8.51872685721609e-001

3.11249583171928e+005,-6.59054907421644e+000,-8.63326232388018e-001

3.15594465437872e+005,-6.59065745784025e+000,-8.74927508697942e-001

3.19999999999997e+005,-6.59076718917284e+000,-8.86678376301336e-001

3.24467033532806e+005,-6.59087824827570e+000,-8.98580726602398e-001

3.28996424529938e+005,-6.59099061350210e+000,-9.10636481584894e-001

3.33589043469155e+005,-6.59110426147513e+000,-9.22847594660474e-001

3.38245772979638e+005,-6.59121916706938e+000,-9.35216051530193e-001

3.42967508011610e+005,-6.59133530339449e+000,-9.47743871066804e-001

3.47755156008335e+005,-6.59145264178284e+000,-9.60433106210055e-001

3.52609637080511e+005,-6.59157115177959e+000,-9.73285844877853e-001

3.57531884183106e+005,-6.59169080113611e+000,-9.86304210892897e-001

3.62522843294651e+005,-6.59181155580761e+000,-9.99490364917844e-001

3.67583473599047e+005,-6.59193337995308e+000,-1.01284650540715e+000

3.72714747669902e+005,-6.59205623593952e+000,-1.02637486956658e+000

3.77917651657445e+005,-6.59218008435007e+000,-1.04007773431985e+000

3.83193185478053e+005,-6.59230488399512e+000,-1.05395741728757e+000

3.88542363006410e+005,-6.59243059192786e+000,-1.06801627776807e+000

3.93966212270369e+005,-6.59255716346336e+000,-1.08225671772560e+000

3.99465775648511e+005,-6.59268455220140e+000,-1.09668118278067e+000

4.05042110070485e+005,-6.59281271005337e+000,-1.11129216320315e+000

4.10696287220124e+005,-6.59294158727297e+000,-1.12609219490277e+000

4.16429393741414e+005,-6.59307113249039e+000,-1.14108386042308e+000

4.22242531447321e+005,-6.59320129275070e+000,-1.15626978992788e+000

4.28136817531551e+005,-6.59333201355539e+000,-1.17165266218651e+000

4.34113384783250e+005,-6.59346323890810e+000,-1.18723520555055e+000

4.40173381804713e+005,-6.59359491136300e+000,-1.20302019892631e+000

4.46317973232124e+005,-6.59372697207758e+000,-1.21901047273431e+000

4.52548339959385e+005,-6.59385936086771e+000,-1.23520890986249e+000

4.58865679365059e+005,-6.59399201626626e+000,-1.25161844660515e+000

4.65271205542494e+005,-6.59412487558452e+000,-1.26824207358888e+000

4.71766149533147e+005,-6.59425787497628e+000,-1.28508283668659e+000

4.78351759563174e+005,-6.59439094950434e+000,-1.30214383791345e+000

4.85029301283321e+005,-6.59452403320937e+000,-1.31942823630756e+000

4.91800058012158e+005,-6.59465705918084e+000,-1.33693924879393e+000

4.98665330982714e+005,-6.59478995962962e+000,-1.35468015102852e+000

5.05626439592555e+005,-6.59492266596233e+000,-1.37265427822401e+000

5.12684721657352e+005,-6.59505510885646e+000,-1.39086502595783e+000

5.19841533667984e+005,-6.59518721833725e+000,-1.40931585095596e+000

5.27098251051240e+005,-6.59531892385453e+000,-1.42801027186006e+000

5.34456268434150e+005,-6.59545015436025e+000,-1.44695186997249e+000

5.41916999912011e+005,-6.59558083838659e+000,-1.46614428997842e+000

