Freq.,VOut,OutRef

1.00000000000000e+004,-3.33035232519447e+000,-1.75289332017556e-002

1.01395947979003e+004,-3.33035282099235e+000,-1.77735652556531e-002

1.02811382665607e+004,-3.33035333071806e+000,-1.80216095870408e-002

1.04246576084112e+004,-3.33035385476286e+000,-1.82731137142848e-002

1.05701804056138e+004,-3.33035439352944e+000,-1.85281258120086e-002

1.07177346253629e+004,-3.33035494743092e+000,-1.87866947274939e-002

1.08673486252606e+004,-3.33035551689088e+000,-1.90488699918925e-002

1.10190511587661e+004,-3.33035610234752e+000,-1.93147018046908e-002

1.11728713807222e+004,-3.33035670424892e+000,-1.95842410761448e-002

1.13288388529580e+004,-3.33035732305706e+000,-1.98575394122913e-002

1.14869835499703e+004,-3.33035795924518e+000,-2.01346491444105e-002

1.16473358646846e+004,-3.33035861330294e+000,-2.04156233071264e-002

1.18099266142953e+004,-3.33035928573009e+000,-2.07005156931026e-002

1.19747870461893e+004,-3.33035997704264e+000,-2.09893808233838e-002

1.21419488439505e+004,-3.33036068777049e+000,-2.12822739764088e-002

1.23114441334492e+004,-3.33036141845889e+000,-2.15792511919267e-002

1.24833054890161e+004,-3.33036216966640e+000,-2.18803692966342e-002

1.26575659397028e+004,-3.33036294196990e+000,-2.21856858846266e-002

1.28342589756290e+004,-3.33036373596001e+000,-2.24952593612297e-002

1.30134185544193e+004,-3.33036455224631e+000,-2.28091489223164e-002

1.31950791077289e+004,-3.33036539145322e+000,-2.31274145951311e-002

1.33792755478611e+004,-3.33036625422343e+000,-2.34501172299771e-002

1.35660432744767e+004,-3.33036714121812e+000,-2.37773185132059e-002

1.37554181813974e+004,-3.33036805311661e+000,-2.41090809840822e-002

1.39474366635040e+004,-3.33036899061705e+000,-2.44454680448203e-002

1.41421356237309e+004,-3.33036995443636e+000,-2.47865439763212e-002

1.43395524801583e+004,-3.33037094531397e+000,-2.51323739288199e-002

1.45397251732031e+004,-3.33037196400692e+000,-2.54830239691340e-002

1.47426921729110e+004,-3.33037301129545e+000,-2.58385610605040e-002

1.49484924863494e+004,-3.33037408798119e+000,-2.61990530900792e-002

1.51571656651040e+004,-3.33037519488740e+000,-2.65645688834771e-002

1.53687518128801e+004,-3.33037633286148e+000,-2.69351782047611e-002

1.55832915932100e+004,-3.33037750277333e+000,-2.73109517843051e-002

1.58008262372675e+004,-3.33037870551841e+000,-2.76919613160585e-002

1.60213975517924e+004,-3.33037994201636e+000,-2.80782794827027e-002

1.62450479271247e+004,-3.33038121321206e+000,-2.84699799677303e-002

1.64718203453514e+004,-3.33038252007753e+000,-2.88671374597769e-002

1.67017583885674e+004,-3.33038386361224e+000,-2.92698276689709e-002

1.69349062472505e+004,-3.33038524484221e+000,-2.96781273516011e-002

1.71713087287550e+004,-3.33038666482370e+000,-3.00921143047958e-002

1.74110112659224e+004,-3.33038812464053e+000,-3.05118674018185e-002

1.76540599258131e+004,-3.33038962540883e+000,-3.09374665818043e-002

1.79005014185594e+004,-3.33039116827416e+000,-3.13689928873629e-002

1.81503831063432e+004,-3.33039275441489e+000,-3.18065284624360e-002

1.84037530124975e+004,-3.33039438504158e+000,-3.22501565767931e-002

1.86606598307361e+004,-3.33039606139948e+000,-3.26999616296814e-002

1.89211529345119e+004,-3.33039778476707e+000,-3.31560291812102e-002

1.91852823865052e+004,-3.33039955645971e+000,-3.36184459484739e-002

1.94530989482457e+004,-3.33040137782886e+000,-3.40872998328112e-002

1.97246540898671e+004,-3.33040325026330e+000,-3.45626799336400e-002

1.99999999999999e+004,-3.33040517519095e+000,-3.50446765585385e-002

2.02791895958005e+004,-3.33040715407942e+000,-3.55333812420371e-002

2.05622765331213e+004,-3.33040918843637e+000,-3.60288867664378e-002

2.08493152168224e+004,-3.33041127981183e+000,-3.65312871698366e-002

2.11403608112276e+004,-3.33041342979908e+000,-3.70406777633848e-002

2.14354692507258e+004,-3.33041564003529e+000,-3.75571551516679e-002

2.17346972505211e+004,-3.33041791220319e+000,-3.80808172455685e-002

2.20381023175322e+004,-3.33042024803219e+000,-3.86117632801651e-002

2.23457427614443e+004,-3.33042264929947e+000,-3.91500938320911e-002

2.26576777059159e+004,-3.33042511783199e+000,-3.96959108316805e-002

2.29739670999406e+004,-3.33042765550682e+000,-4.02493175876644e-002

2.32946717293690e+004,-3.33043026425318e+000,-4.08104187983393e-002

2.36198532285905e+004,-3.33043294605325e+000,-4.13793205745676e-002

2.39495740923785e+004,-3.33043570294530e+000,-4.19561304448516e-002

2.42838976879009e+004,-3.33043853702272e+000,-4.25409573899362e-002

2.46228882668982e+004,-3.33044145043698e+000,-4.31339118508502e-002

2.49666109780322e+004,-3.33044444539995e+000,-4.37351057420277e-002

2.53151318794055e+004,-3.33044752418296e+000,-4.43446524859539e-002

2.56685179512580e+004,-3.33045068912164e+000,-4.49626670106542e-002

2.60268371088386e+004,-3.33045394261513e+000,-4.55892657844996e-002

2.63901582154578e+004,-3.33045728712901e+000,-4.62245668261700e-002

2.67585510957221e+004,-3.33046072519699e+000,-4.68686897248655e-002

2.71320865489533e+004,-3.33046425942185e+000,-4.75217556640119e-002

2.75108363627948e+004,-3.33046789247878e+000,-4.81838874313576e-002

2.78948733270080e+004,-3.33047162711653e+000,-4.88552094424744e-002

2.82842712474618e+004,-3.33047546615933e+000,-4.95358477606980e-002

2.86791049603164e+004,-3.33047941250803e+000,-5.02259301216344e-002

2.90794503464061e+004,-3.33048346914510e+000,-5.09255859342055e-002

2.94853843458219e+004,-3.33048763913295e+000,-5.16349463243582e-002

2.98969849726987e+004,-3.33049192561912e+000,-5.23541441352444e-002

3.03143313302078e+004,-3.33049633183723e+000,-5.30833139554788e-002

3.07375036257601e+004,-3.33050086110896e+000,-5.38225921407456e-002

3.11665831864199e+004,-3.33050551684732e+000,-5.45721168276822e-002

3.16016524745350e+004,-3.33051030255844e+000,-5.53320279581995e-002

3.20427951035848e+004,-3.33051522184450e+000,-5.61024672961432e-002

3.24900958542493e+004,-3.33052027840541e+000,-5.68835784533229e-002

3.29436406907028e+004,-3.33052547604272e+000,-5.76755069005684e-002

3.34035167771346e+004,-3.33053081866136e+000,-5.84783999943127e-002

3.38698124945009e+004,-3.33053631027207e+000,-5.92924069995499e-002

3.43426174575100e+004,-3.33054195499519e+000,-6.01176791009076e-002

3.48220225318448e+004,-3.33054775706321e+000,-6.09543694287265e-002

3.53081198516260e+004,-3.33055372082304e+000,-6.18026330807332e-002

3.58010028371187e+004,-3.33055985073939e+000,-6.26626271410310e-002

3.63007662126863e+004,-3.33056615139853e+000,-6.35345106960749e-002

3.68075060249948e+004,-3.33057262751032e+000,-6.44184448616790e-002

3.73213196614721e+004,-3.33057928391226e+000,-6.53145927980145e-002

3.78423058690237e+004,-3.33058612557253e+000,-6.62231197324443e-002

3.83705647730104e+004,-3.33059315759263e+000,-6.71441929826712e-002

3.89061978964912e+004,-3.33060038521285e+000,-6.80779819650209e-002

3.94493081797342e+004,-3.33060781381287e+000,-6.90246582335941e-002

3.99999999999998e+004,-3.33061544891820e+000,-6.99843954805679e-002

4.05583791916010e+004,-3.33062329620170e+000,-7.09573695714295e-002

4.11245530662425e+004,-3.33063136148917e+000,-7.19437585522080e-002

4.16986304336447e+004,-3.33063965076166e+000,-7.29437426788958e-002

4.22807216224550e+004,-3.33064817016028e+000,-7.39575044322248e-002

4.28709385014515e+004,-3.33065692599026e+000,-7.49852285354164e-002

4.34693945010421e+004,-3.33066592472424e+000,-7.60271019789641e-002

4.40762046350642e+004,-3.33067517300776e+000,-7.70833140315474e-002

4.46914855228886e+004,-3.33068467766251e+000,-7.81540562647198e-002

4.53153554118317e+004,-3.33069444569071e+000,-7.92395225716778e-002

4.59479341998812e+004,-3.33070448428127e+000,-8.03399091739372e-002

4.65893434587380e+004,-3.33071480081107e+000,-8.14554146607013e-002

4.72397064571810e+004,-3.33072540285349e+000,-8.25862399808393e-002

4.78991481847569e+004,-3.33073629818001e+000,-8.37325884800448e-002

4.85677953758016e+004,-3.33074749476711e+000,-8.48946659055094e-002

4.92457765337964e+004,-3.33075900079990e+000,-8.60726804284125e-002

4.99332219560642e+004,-3.33077082467836e+000,-8.72668426542771e-002

5.06302637588109e+004,-3.33078297502083e+000,-8.84773656465282e-002

5.13370359025159e+004,-3.33079546067118e+000,-8.97044649301420e-002

5.20536742176771e+004,-3.33080829070308e+000,-9.09483585134257e-002

5.27803164309155e+004,-3.33082147442544e+000,-9.22092668988562e-002

5.35171021914442e+004,-3.33083502138782e+000,-9.34874130994957e-002

5.42641730979066e+004,-3.33084894138664e+000,-9.47830226465047e-002

5.50216727255895e+004,-3.33086324447087e+000,-9.60963236004770e-002

5.57897466540159e+004,-3.33087794094659e+000,-9.74275465710553e-002

5.65685424949235e+004,-3.33089304138519e+000,-9.87769247123974e-002

5.73582099206328e+004,-3.33090855662699e+000,-1.00144693747344e-001

5.81589006928121e+004,-3.33092449778867e+000,-1.01531091968491e-001

5.89707686916437e+004,-3.33094087626969e+000,-1.02936360242079e-001

5.97939699453972e+004,-3.33095770375753e+000,-1.04360742023845e-001

6.06286626604156e+004,-3.33097499223516e+000,-1.05804483355867e-001

6.14750072515201e+004,-3.33099275398630e+000,-1.07267832879780e-001

6.23331663728396e+004,-3.33101100160320e+000,-1.08751041831879e-001

6.32033049490698e+004,-3.33102974799250e+000,-1.10254364050589e-001

6.40855902071694e+004,-3.33104900638221e+000,-1.11778055975243e-001

6.49801917084985e+004,-3.33106879032790e+000,-1.13322376651184e-001

6.58872813814055e+004,-3.33108911372089e+000,-1.14887587718407e-001

6.68070335542691e+004,-3.33110999079367e+000,-1.16473953418757e-001

6.77396249890018e+004,-3.33113143612778e+000,-1.18081740586858e-001

6.86852349150199e+004,-3.33115346466060e+000,-1.19711218644780e-001

6.96440450636895e+004,-3.33117609169256e+000,-1.21362659595200e-001

7.06162397032520e+004,-3.33119933289386e+000,-1.23036338014776e-001

7.16020056742374e+004,-3.33122320431194e+000,-1.24732531041687e-001

7.26015324253724e+004,-3.33124772237925e+000,-1.26451518360819e-001

7.36150120499896e+004,-3.33127290391953e+000,-1.28193582194992e-001

7.46426393229441e+004,-3.33129876615532e+000,-1.29959007288217e-001

7.56846117380472e+004,-3.33132532671588e+000,-1.31748080883186e-001

7.67411295460207e+004,-3.33135260364363e+000,-1.33561092707868e-001

7.78123957929823e+004,-3.33138061540191e+000,-1.35398334949378e-001

7.88986163594682e+004,-3.33140938088212e+000,-1.37260102231994e-001

7.99999999999995e+004,-3.33143891941094e+000,-1.39146691590069e-001

8.11167583832018e+004,-3.33146925075742e+000,-1.41058402440218e-001

8.22491061324848e+004,-3.33150039514028e+000,-1.42995536550603e-001

8.33972608672892e+004,-3.33153237323465e+000,-1.44958398008037e-001

8.45614432449099e+004,-3.33156520617992e+000,-1.46947293178605e-001

8.57418770029029e+004,-3.33159891558513e+000,-1.48962530676978e-001

8.69387890020841e+004,-3.33163352353722e+000,-1.51004421317919e-001

8.81524092701283e+004,-3.33166905260707e+000,-1.53073278075194e-001

8.93829710457770e+004,-3.33170552585572e+000,-1.55169416037867e-001

9.06307108236633e+004,-3.33174296684134e+000,-1.57293152356564e-001

9.18958683997622e+004,-3.33178139962481e+000,-1.59444806194780e-001

9.31786869174758e+004,-3.33182084877617e+000,-1.61624698670852e-001

9.44794129143618e+004,-3.33186133937985e+000,-1.63833152802702e-001

9.57982963695136e+004,-3.33190289704077e+000,-1.66070493442291e-001

9.71355907516031e+004,-3.33194554788883e+000,-1.68337047215769e-001

9.84915530675926e+004,-3.33198931858427e+000,-1.70633142452709e-001

9.98664439121282e+004,-3.33203423632232e+000,-1.72959109114292e-001

1.01260527517622e+005,-3.33208032883713e+000,-1.75315278720688e-001

1.02674071805032e+005,-3.33212762440587e+000,-1.77701984271908e-001

1.04107348435354e+005,-3.33217615185157e+000,-1.80119560169520e-001

1.05560632861831e+005,-3.33222594054708e+000,-1.82568342126157e-001

1.07034204382888e+005,-3.33227702041687e+000,-1.85048667081146e-001

1.08528346195813e+005,-3.33232942193903e+000,-1.87560873108981e-001

1.10043345451179e+005,-3.33238317614699e+000,-1.90105299321675e-001

1.11579493308032e+005,-3.33243831463003e+000,-1.92682285771931e-001

1.13137084989847e+005,-3.33249486953402e+000,-1.95292173347555e-001

1.14716419841265e+005,-3.33255287356032e+000,-1.97935303669296e-001

1.16317801385624e+005,-3.33261235996498e+000,-2.00612018978628e-001

1.17941537383287e+005,-3.33267336255668e+000,-2.03322662025833e-001

1.19587939890794e+005,-3.33273591569458e+000,-2.06067575949813e-001

1.21257325320831e+005,-3.33280005428324e+000,-2.08847104167233e-001

1.22950014503040e+005,-3.33286581377024e+000,-2.11661590236227e-001

1.24666332745679e+005,-3.33293323013901e+000,-2.14511377740651e-001

1.26406609898139e+005,-3.33300233990314e+000,-2.17396810156472e-001

1.28171180414339e+005,-3.33307318009920e+000,-2.20318230716391e-001

1.29960383416997e+005,-3.33314578827780e+000,-2.23275982276467e-001

1.31774562762811e+005,-3.33322020249376e+000,-2.26270407179265e-001

1.33614067108538e+005,-3.33329646129561e+000,-2.29301847108582e-001

1.35479249978003e+005,-3.33337460371307e+000,-2.32370642949123e-001

1.37370469830040e+005,-3.33345466924383e+000,-2.35477134638077e-001

1.39288090127379e+005,-3.33353669783839e+000,-2.38621661019052e-001

1.41232479406504e+005,-3.33362072988394e+000,-2.41804559691299e-001

1.43204011348474e+005,-3.33370680618636e+000,-2.45026166859066e-001

1.45203064850745e+005,-3.33379496795102e+000,-2.48286817178579e-001

1.47230024099979e+005,-3.33388525676159e+000,-2.51586843605722e-001

1.49285278645888e+005,-3.33397771455761e+000,-2.54926577240225e-001

1.51369223476094e+005,-3.33407238360952e+000,-2.58306347176155e-001

1.53482259092041e+005,-3.33416930649309e+000,-2.61726480343735e-001

1.55624791585964e+005,-3.33426852606105e+000,-2.65187301357561e-001

1.57797232718936e+005,-3.33437008541293e+000,-2.68689132367326e-001

1.59999999999999e+005,-3.33447402786319e+000,-2.72232292906193e-001

1.62233516766403e+005,-3.33458039690718e+000,-2.75817099744280e-001

1.64498212264969e+005,-3.33468923618530e+000,-2.79443866741184e-001

1.66794521734578e+005,-3.33480058944435e+000,-2.83112904708951e-001

1.69122886489819e+005,-3.33491450049733e+000,-2.86824521272293e-001

1.71483754005805e+005,-3.33503101318067e+000,-2.90579020737727e-001

1.73877578004168e+005,-3.33515017130927e+000,-2.94376703967043e-001

1.76304818540256e+005,-3.33527201862991e+000,-2.98217868252714e-001

1.78765942091554e+005,-3.33539659877047e+000,-3.02102807212587e-001

1.81261421647326e+005,-3.33552395518871e+000,-3.06031810679001e-001

1.83791736799524e+005,-3.33565413111819e+000,-3.10005164601386e-001

1.86357373834951e+005,-3.33578716951024e+000,-3.14023150966899e-001

1.88958825828723e+005,-3.33592311297608e+000,-3.18086047714986e-001

1.91596592739027e+005,-3.33606200372418e+000,-3.22194128680874e-001

1.94271181503206e+005,-3.33620388349670e+000,-3.26347663537801e-001

1.96983106135185e+005,-3.33634879350228e+000,-3.30546917765327e-001

1.99732887824256e+005,-3.33649677434733e+000,-3.34792152622130e-001

2.02521055035243e+005,-3.33664786596461e+000,-3.39083625140519e-001

2.05348143610063e+005,-3.33680210753958e+000,-3.43421588134424e-001

2.08214696870707e+005,-3.33695953743379e+000,-3.47806290230267e-001

2.11121265723661e+005,-3.33712019310655e+000,-3.52237975915066e-001

2.14068408765776e+005,-3.33728411103479e+000,-3.56716885600160e-001

2.17056692391625e+005,-3.33745132662947e+000,-3.61243255717317e-001

2.20086690902357e+005,-3.33762187415149e+000,-3.65817318826109e-001

2.23158986616063e+005,-3.33779578662437e+000,-3.70439303755654e-001

2.26274169979693e+005,-3.33797309574598e+000,-3.75109435764111e-001

2.29432839682530e+005,-3.33815383179785e+000,-3.79827936730685e-001

2.32635602771247e+005,-3.33833802355358e+000,-3.84595025370521e-001

2.35883074766574e+005,-3.33852569818536e+000,-3.89410917482793e-001

2.39175879781588e+005,-3.33871688116893e+000,-3.94275826228636e-001

2.42514650641661e+005,-3.33891159618891e+000,-3.99189962434130e-001

2.45900029006080e+005,-3.33910986504107e+000,-4.04153534937518e-001

2.49332665491357e+005,-3.33931170753630e+000,-4.09166750956124e-001

2.52813219796278e+005,-3.33951714140181e+000,-4.14229816501479e-001

2.56342360828676e+005,-3.33972618218394e+000,-4.19342936819539e-001

2.59920766833993e+005,-3.33993884315061e+000,-4.24506316869590e-001

2.63549125525621e+005,-3.34015513519291e+000,-4.29720161847196e-001

2.67228134217075e+005,-3.34037506672914e+000,-4.34984677733864e-001

2.70958499956006e+005,-3.34059864360841e+000,-4.40300071893709e-001

2.74740939660078e+005,-3.34082586901618e+000,-4.45666553704371e-001

2.78576180254757e+005,-3.34105674338059e+000,-4.51084335231940e-001

2.82464958813007e+005,-3.34129126428163e+000,-4.56553631939353e-001

2.86408022696948e+005,-3.34152942636184e+000,-4.62074663439081e-001

2.90406129701488e+005,-3.34177122123972e+000,-4.67647654285079e-001

2.94460048199957e+005,-3.34201663742589e+000,-4.73272834804175e-001

2.98570557291775e+005,-3.34226566024327e+000,-4.78950441964411e-001

3.02738446952187e+005,-3.34251827175021e+000,-4.84680720284388e-001

3.06964518184081e+005,-3.34277445066751e+000,-4.90463922784169e-001

3.11249583171928e+005,-3.34303417231067e+000,-4.96300311966720e-001

3.15594465437872e+005,-3.34329740852634e+000,-5.02190160842460e-001

3.19999999999997e+005,-3.34356412763379e+000,-5.08133753985877e-001

3.24467033532806e+005,-3.34383429437286e+000,-5.14131388625926e-001

3.28996424529938e+005,-3.34410786985655e+000,-5.20183375772093e-001

3.33589043469155e+005,-3.34438481153080e+000,-5.26290041369686e-001

3.38245772979638e+005,-3.34466507314079e+000,-5.32451727481769e-001

3.42967508011610e+005,-3.34494860470322e+000,-5.38668793506476e-001

3.47755156008335e+005,-3.34523535248791e+000,-5.44941617405854e-001

3.52609637080511e+005,-3.34552525900446e+000,-5.51270596971596e-001

3.57531884183106e+005,-3.34581826299871e+000,-5.57656151101142e-001

3.62522843294651e+005,-3.34611429945676e+000,-5.64098721091517e-001

3.67583473599047e+005,-3.34641329961669e+000,-5.70598771953930e-001

3.72714747669902e+005,-3.34671519098978e+000,-5.77156793731685e-001

3.77917651657445e+005,-3.34701989738993e+000,-5.83773302831551e-001

3.83193185478053e+005,-3.34732733897214e+000,-5.90448843356561e-001

3.88542363006410e+005,-3.34763743228030e+000,-5.97183988440761e-001

3.93966212270369e+005,-3.34795009030334e+000,-6.03979341583408e-001

3.99465775648511e+005,-3.34826522254138e+000,-6.10835537973904e-001

4.05042110070485e+005,-3.34858273508046e+000,-6.17753245811409e-001

4.10696287220124e+005,-3.34890253067678e+000,-6.24733167605401e-001

4.16429393741414e+005,-3.34922450884959e+000,-6.31776041465415e-001

4.22242531447321e+005,-3.34954856598343e+000,-6.38882642365158e-001

4.28136817531551e+005,-3.34987459543943e+000,-6.46053783382121e-001

4.34113384783250e+005,-3.35020248767403e+000,-6.53290316914023e-001

4.40173381804713e+005,-3.35053213036748e+000,-6.60593135857182e-001

4.46317973232124e+005,-3.35086340855995e+000,-6.67963174750469e-001

4.52548339959385e+005,-3.35119620479485e+000,-6.75401410884900e-001

4.58865679365059e+005,-3.35153039927078e+000,-6.82908865362954e-001

4.65271205542494e+005,-3.35186586999928e+000,-6.90486604120836e-001

4.71766149533147e+005,-3.35220249297021e+000,-6.98135738894669e-001

4.78351759563174e+005,-3.35254014232271e+000,-7.05857428139926e-001

4.85029301283321e+005,-3.35287869052208e+000,-7.13652877894867e-001

4.91800058012158e+005,-3.35321800854183e+000,-7.21523342586353e-001

4.98665330982714e+005,-3.35355796605006e+000,-7.29470125780009e-001

5.05626439592555e+005,-3.35389843160015e+000,-7.37494580866468e-001

5.12684721657352e+005,-3.35423927282470e+000,-7.45598111686550e-001

5.19841533667984e+005,-3.35458035663243e+000,-7.53782173092126e-001

5.27098251051240e+005,-3.35492154940673e+000,-7.62048271444056e-001

5.34456268434150e+005,-3.35526271720670e+000,-7.70397965039367e-001

5.41916999912011e+005,-3.35560372596784e+000,-7.78832864479365e-001

