Freq.,VOut,OutRef

1.00000000000000e+004,-1.81176179412016e+001,-1.39224507670163e-001

1.01395947979003e+004,-1.81176193034281e+001,-1.41167852909984e-001

1.02811382665607e+004,-1.81176207039263e+001,-1.43138319596911e-001

1.04246576084112e+004,-1.81176221437706e+001,-1.45136286051559e-001

1.05701804056138e+004,-1.81176236240655e+001,-1.47162135862150e-001

1.07177346253629e+004,-1.81176251459466e+001,-1.49216257959623e-001

1.08673486252606e+004,-1.81176267105815e+001,-1.51299046691152e-001

1.10190511587661e+004,-1.81176283191701e+001,-1.53410901895524e-001

1.11728713807222e+004,-1.81176299729463e+001,-1.55552228979110e-001

1.13288388529580e+004,-1.81176316731785e+001,-1.57723438991651e-001

1.14869835499703e+004,-1.81176334211704e+001,-1.59924948706877e-001

1.16473358646846e+004,-1.81176352182627e+001,-1.62157180699336e-001

1.18099266142953e+004,-1.81176370658332e+001,-1.64420563427783e-001

1.19747870461893e+004,-1.81176389652983e+001,-1.66715531313952e-001

1.21419488439505e+004,-1.81176409181145e+001,-1.69042524823493e-001

1.23114441334492e+004,-1.81176429257788e+001,-1.71401990555044e-001

1.24833054890161e+004,-1.81176449898303e+001,-1.73794381318821e-001

1.26575659397028e+004,-1.81176471118507e+001,-1.76220156229809e-001

1.28342589756290e+004,-1.81176492934667e+001,-1.78679780786249e-001

1.30134185544193e+004,-1.81176515363500e+001,-1.81173726964458e-001

1.31950791077289e+004,-1.81176538422192e+001,-1.83702473306463e-001

1.33792755478611e+004,-1.81176562128414e+001,-1.86266505008467e-001

1.35660432744767e+004,-1.81176586500326e+001,-1.88866314015704e-001

1.37554181813974e+004,-1.81176611556599e+001,-1.91502399115355e-001

1.39474366635040e+004,-1.81176637316426e+001,-1.94175266028733e-001

1.41421356237309e+004,-1.81176663799538e+001,-1.96885427507874e-001

1.43395524801583e+004,-1.81176691026215e+001,-1.99633403433934e-001

1.45397251732031e+004,-1.81176719017307e+001,-2.02419720914016e-001

1.47426921729110e+004,-1.81176747794244e+001,-2.05244914381224e-001

1.49484924863494e+004,-1.81176777379060e+001,-2.08109525693561e-001

1.51571656651040e+004,-1.81176807794401e+001,-2.11014104241041e-001

1.53687518128801e+004,-1.81176839063545e+001,-2.13959207044593e-001

1.55832915932100e+004,-1.81176871210422e+001,-2.16945398863387e-001

1.58008262372675e+004,-1.81176904259635e+001,-2.19973252298689e-001

1.60213975517924e+004,-1.81176938236467e+001,-2.23043347905919e-001

1.62450479271247e+004,-1.81176973166912e+001,-2.26156274299931e-001

1.64718203453514e+004,-1.81177009077686e+001,-2.29312628269557e-001

1.67017583885674e+004,-1.81177045996256e+001,-2.32513014883995e-001

1.69349062472505e+004,-1.81177083950851e+001,-2.35758047614369e-001

1.71713087287550e+004,-1.81177122970489e+001,-2.39048348440940e-001

1.74110112659224e+004,-1.81177163085000e+001,-2.42384547975520e-001

1.76540599258131e+004,-1.81177204325043e+001,-2.45767285576683e-001

1.79005014185594e+004,-1.81177246722136e+001,-2.49197209469814e-001

1.81503831063432e+004,-1.81177290308671e+001,-2.52674976871677e-001

1.84037530124975e+004,-1.81177335117945e+001,-2.56201254108286e-001

1.86606598307361e+004,-1.81177381184186e+001,-2.59776716742139e-001

1.89211529345119e+004,-1.81177428542571e+001,-2.63402049700311e-001

1.91852823865052e+004,-1.81177477229258e+001,-2.67077947398517e-001

1.94530989482457e+004,-1.81177527281416e+001,-2.70805113871769e-001

1.97246540898671e+004,-1.81177578737244e+001,-2.74584262907455e-001

1.99999999999999e+004,-1.81177631636007e+001,-2.78416118175872e-001

2.02791895958005e+004,-1.81177686018061e+001,-2.82301413366741e-001

2.05622765331213e+004,-1.81177741924886e+001,-2.86240892323688e-001

2.08493152168224e+004,-1.81177799399114e+001,-2.90235309183832e-001

2.11403608112276e+004,-1.81177858484563e+001,-2.94285428517207e-001

2.14354692507258e+004,-1.81177919226271e+001,-2.98392025466833e-001

2.17346972505211e+004,-1.81177981670524e+001,-3.02555885895038e-001

2.20381023175322e+004,-1.81178045864895e+001,-3.06777806527491e-001

2.23457427614443e+004,-1.81178111858277e+001,-3.11058595099954e-001

2.26576777059159e+004,-1.81178179700922e+001,-3.15399070506034e-001

2.29739670999406e+004,-1.81178249444475e+001,-3.19800062951503e-001

2.32946717293690e+004,-1.81178321142012e+001,-3.24262414105289e-001

2.36198532285905e+004,-1.81178394848085e+001,-3.28786977251928e-001

2.39495740923785e+004,-1.81178470618752e+001,-3.33374617452116e-001

2.42838976879009e+004,-1.81178548511627e+001,-3.38026211700081e-001

2.46228882668982e+004,-1.81178628585920e+001,-3.42742649081760e-001

2.49666109780322e+004,-1.81178710902478e+001,-3.47524830941370e-001

2.53151318794055e+004,-1.81178795523832e+001,-3.52373671042718e-001

2.56685179512580e+004,-1.81178882514244e+001,-3.57290095736841e-001

2.60268371088386e+004,-1.81178971939749e+001,-3.62275044131930e-001

2.63901582154578e+004,-1.81179063868208e+001,-3.67329468262888e-001

2.67585510957221e+004,-1.81179158369356e+001,-3.72454333263844e-001

2.71320865489533e+004,-1.81179255514855e+001,-3.77650617542611e-001

2.75108363627948e+004,-1.81179355378338e+001,-3.82919312961070e-001

2.78948733270080e+004,-1.81179458035474e+001,-3.88261425009631e-001

2.82842712474618e+004,-1.81179563564012e+001,-3.93677972992241e-001

2.86791049603164e+004,-1.81179672043847e+001,-3.99169990207271e-001

2.90794503464061e+004,-1.81179783557069e+001,-4.04738524134631e-001

2.94853843458219e+004,-1.81179898188028e+001,-4.10384636623976e-001

2.98969849726987e+004,-1.81180016023394e+001,-4.16109404082244e-001

3.03143313302078e+004,-1.81180137152213e+001,-4.21913917670300e-001

3.07375036257601e+004,-1.81180261665981e+001,-4.27799283491970e-001

3.11665831864199e+004,-1.81180389658700e+001,-4.33766622795518e-001

3.16016524745350e+004,-1.81180521226954e+001,-4.39817072169280e-001

3.20427951035848e+004,-1.81180656469969e+001,-4.45951783745303e-001

3.24900958542493e+004,-1.81180795489687e+001,-4.52171925401865e-001

3.29436406907028e+004,-1.81180938390844e+001,-4.58478680968216e-001

3.34035167771346e+004,-1.81181085281032e+001,-4.64873250434862e-001

3.38698124945009e+004,-1.81181236270784e+001,-4.71356850163626e-001

3.43426174575100e+004,-1.81181391473653e+001,-4.77930713097442e-001

3.48220225318448e+004,-1.81181551006283e+001,-4.84596088980339e-001

3.53081198516260e+004,-1.81181714988498e+001,-4.91354244570328e-001

3.58010028371187e+004,-1.81181883543383e+001,-4.98206463862621e-001

3.63007662126863e+004,-1.81182056797372e+001,-5.05154048308493e-001

3.68075060249948e+004,-1.81182234880330e+001,-5.12198317043345e-001

3.73213196614721e+004,-1.81182417925647e+001,-5.19340607111401e-001

3.78423058690237e+004,-1.81182606070335e+001,-5.26582273693471e-001

3.83705647730104e+004,-1.81182799455108e+001,-5.33924690343090e-001

3.89061978964912e+004,-1.81182998224495e+001,-5.41369249214850e-001

3.94493081797342e+004,-1.81183202526927e+001,-5.48917361305440e-001

3.99999999999998e+004,-1.81183412514841e+001,-5.56570456689365e-001

4.05583791916010e+004,-1.81183628344788e+001,-5.64329984760007e-001

4.11245530662425e+004,-1.81183850177530e+001,-5.72197414476523e-001

4.16986304336447e+004,-1.81184078178158e+001,-5.80174234603670e-001

4.22807216224550e+004,-1.81184312516194e+001,-5.88261953964984e-001

4.28709385014515e+004,-1.81184553365710e+001,-5.96462101689875e-001

4.34693945010421e+004,-1.81184800905442e+001,-6.04776227468694e-001

4.40762046350642e+004,-1.81185055318905e+001,-6.13205901805861e-001

4.46914855228886e+004,-1.81185316794521e+001,-6.21752716278140e-001

4.53153554118317e+004,-1.81185585525735e+001,-6.30418283794237e-001

4.59479341998812e+004,-1.81185861711145e+001,-6.39204238855680e-001

4.65893434587380e+004,-1.81186145554633e+001,-6.48112237821655e-001

4.72397064571810e+004,-1.81186437265492e+001,-6.57143959176081e-001

4.78991481847569e+004,-1.81186737058562e+001,-6.66301103794343e-001

4.85677953758016e+004,-1.81187045154373e+001,-6.75585395214704e-001

4.92457765337964e+004,-1.81187361779273e+001,-6.84998579913055e-001

4.99332219560642e+004,-1.81187687165584e+001,-6.94542427573857e-001

5.06302637588109e+004,-1.81188021551741e+001,-7.04218731370646e-001

5.13370359025159e+004,-1.81188365182441e+001,-7.14029308244103e-001

5.20536742176771e+004,-1.81188718308795e+001,-7.23975999182755e-001

5.27803164309155e+004,-1.81189081188487e+001,-7.34060669506384e-001

5.35171021914442e+004,-1.81189454085924e+001,-7.44285209151486e-001

5.42641730979066e+004,-1.81189837272403e+001,-7.54651532957462e-001

5.50216727255895e+004,-1.81190231026275e+001,-7.65161580956059e-001

5.57897466540159e+004,-1.81190635633102e+001,-7.75817318662846e-001

5.65685424949235e+004,-1.81191051385842e+001,-7.86620737366397e-001

5.73582099206328e+004,-1.81191478585006e+001,-7.97573854427363e-001

5.81589006928121e+004,-1.81191917538846e+001,-8.08678713569505e-001

5.89707686916437e+004,-1.81192368563525e+001,-8.19937385180732e-001

5.97939699453972e+004,-1.81192831983302e+001,-8.31351966609248e-001

6.06286626604156e+004,-1.81193308130717e+001,-8.42924582466197e-001

6.14750072515201e+004,-1.81193797346776e+001,-8.54657384925511e-001

6.23331663728396e+004,-1.81194299981142e+001,-8.66552554028106e-001

6.32033049490698e+004,-1.81194816392327e+001,-8.78612297987841e-001

6.40855902071694e+004,-1.81195346947892e+001,-8.90838853492877e-001

6.49801917084985e+004,-1.81195892024636e+001,-9.03234486016831e-001

6.58872813814055e+004,-1.81196452008805e+001,-9.15801490124947e-001

6.68070335542691e+004,-1.81197027296295e+001,-9.28542189780919e-001

6.77396249890018e+004,-1.81197618292851e+001,-9.41458938659373e-001

6.86852349150199e+004,-1.81198225414283e+001,-9.54554120455176e-001

6.96440450636895e+004,-1.81198849086673e+001,-9.67830149193144e-001

7.06162397032520e+004,-1.81199489746585e+001,-9.81289469542448e-001

7.16020056742374e+004,-1.81200147841285e+001,-9.94934557126164e-001

7.26015324253724e+004,-1.81200823828954e+001,-1.00876791883511e+000

7.36150120499896e+004,-1.81201518178907e+001,-1.02279209314017e+000

7.46426393229441e+004,-1.81202231371812e+001,-1.03700965040663e+000

7.56846117380472e+004,-1.81202963899914e+001,-1.05142319320593e+000

7.67411295460207e+004,-1.81203716267253e+001,-1.06603535662858e+000

7.78123957929823e+004,-1.81204488989890e+001,-1.08084880859921e+000

7.88986163594682e+004,-1.81205282596133e+001,-1.09586625018751e+000

7.99999999999995e+004,-1.81206097626756e+001,-1.11109041592127e+000

8.11167583832018e+004,-1.81206934635230e+001,-1.12652407409956e+000

8.22491061324848e+004,-1.81207794187945e+001,-1.14217002710255e+000

8.33972608672892e+004,-1.81208676864435e+001,-1.15803111170300e+000

8.45614432449099e+004,-1.81209583257597e+001,-1.17411019937858e+000

8.57418770029029e+004,-1.81210513973929e+001,-1.19041019661648e+000

8.69387890020841e+004,-1.81211469633733e+001,-1.20693404522710e+000

8.81524092701283e+004,-1.81212450871347e+001,-1.22368472264734e+000

8.93829710457770e+004,-1.81213458335363e+001,-1.24066524224911e+000

9.06307108236633e+004,-1.81214492688834e+001,-1.25787865364221e+000

9.18958683997622e+004,-1.81215554609498e+001,-1.27532804298027e+000

9.31786869174758e+004,-1.81216644789976e+001,-1.29301653326073e+000

9.44794129143618e+004,-1.81217763937989e+001,-1.31094728462562e+000

9.57982963695136e+004,-1.81218912776548e+001,-1.32912349466265e+000

9.71355907516031e+004,-1.81220092044156e+001,-1.34754839869967e+000

9.84915530675926e+004,-1.81221302494999e+001,-1.36622527010197e+000

9.98664439121282e+004,-1.81222544899125e+001,-1.38515742056597e+000

1.01260527517622e+005,-1.81223820042627e+001,-1.40434820041064e+000

1.02674071805032e+005,-1.81225128727808e+001,-1.42380099886884e+000

1.04107348435354e+005,-1.81226471773347e+001,-1.44351924437416e+000

1.05560632861831e+005,-1.81227850014450e+001,-1.46350640484852e+000

1.07034204382888e+005,-1.81229264302990e+001,-1.48376598798659e+000

1.08528346195813e+005,-1.81230715507642e+001,-1.50430154153925e+000

1.10043345451179e+005,-1.81232204514005e+001,-1.52511665359341e+000

1.11579493308032e+005,-1.81233732224712e+001,-1.54621495285267e+000

1.13137084989847e+005,-1.81235299559519e+001,-1.56760010891518e+000

1.14716419841265e+005,-1.81236907455393e+001,-1.58927583254930e+000

1.16317801385624e+005,-1.81238556866577e+001,-1.61124587596953e+000

1.17941537383287e+005,-1.81240248764640e+001,-1.63351403311058e+000

1.19587939890794e+005,-1.81241984138509e+001,-1.65608413989938e+000

1.21257325320831e+005,-1.81243763994489e+001,-1.67896007452869e+000

1.22950014503040e+005,-1.81245589356250e+001,-1.70214575772874e+000

1.24666332745679e+005,-1.81247461264814e+001,-1.72564515303830e+000

1.26406609898139e+005,-1.81249380778500e+001,-1.74946226707704e+000

1.28171180414339e+005,-1.81251348972859e+001,-1.77360114981901e+000

1.29960383416997e+005,-1.81253366940579e+001,-1.79806589486417e+000

1.31774562762811e+005,-1.81255435791371e+001,-1.82286063971555e+000

1.33614067108538e+005,-1.81257556651818e+001,-1.84798956605544e+000

1.35479249978003e+005,-1.81259730665209e+001,-1.87345690002411e+000

1.37370469830040e+005,-1.81261958991332e+001,-1.89926691250459e+000

1.39288090127379e+005,-1.81264242806244e+001,-1.92542391940790e+000

1.41232479406504e+005,-1.81266583302007e+001,-1.95193228196433e+000

1.43204011348474e+005,-1.81268981686390e+001,-1.97879640702146e+000

1.45203064850745e+005,-1.81271439182539e+001,-2.00602074734609e+000

1.47230024099979e+005,-1.81273957028602e+001,-2.03360980193539e+000

1.49285278645888e+005,-1.81276536477334e+001,-2.06156811633456e+000

1.51369223476094e+005,-1.81279178795645e+001,-2.08990028296543e+000

1.53482259092041e+005,-1.81281885264118e+001,-2.11861094146498e+000

1.55624791585964e+005,-1.81284657176485e+001,-2.14770477903481e+000

1.57797232718936e+005,-1.81287495839056e+001,-2.17718653080534e+000

1.59999999999999e+005,-1.81290402570108e+001,-2.20706098021256e+000

1.62233516766403e+005,-1.81293378699228e+001,-2.23733295939178e+000

1.64498212264969e+005,-1.81296425566609e+001,-2.26800734958954e+000

1.66794521734578e+005,-1.81299544522297e+001,-2.29908908159305e+000

1.69122886489819e+005,-1.81302736925392e+001,-2.33058313618141e+000

1.71483754005805e+005,-1.81306004143198e+001,-2.36249454460078e+000

1.73877578004168e+005,-1.81309347550323e+001,-2.39482838906180e+000

1.76304818540256e+005,-1.81312768527729e+001,-2.42758980326568e+000

1.78765942091554e+005,-1.81316268461724e+001,-2.46078397295897e+000

1.81261421647326e+005,-1.81319848742912e+001,-2.49441613651879e+000

1.83791736799524e+005,-1.81323510765080e+001,-2.52849158557137e+000

1.86357373834951e+005,-1.81327255924036e+001,-2.56301566564789e+000

1.88958825828723e+005,-1.81331085616394e+001,-2.59799377687598e+000

1.91596592739027e+005,-1.81335001238305e+001,-2.63343137471599e+000

1.94271181503206e+005,-1.81339004184133e+001,-2.66933397073615e+000

1.96983106135185e+005,-1.81343095845080e+001,-2.70570713343783e+000

1.99732887824256e+005,-1.81347277607760e+001,-2.74255648912915e+000

2.02521055035243e+005,-1.81351550852715e+001,-2.77988772284818e+000

2.05348143610063e+005,-1.81355916952890e+001,-2.81770657934465e+000

2.08214696870707e+005,-1.81360377272053e+001,-2.85601886411728e+000

2.11121265723661e+005,-1.81364933163168e+001,-2.89483044451238e+000

2.14068408765776e+005,-1.81369585966721e+001,-2.93414725088858e+000

2.17056692391625e+005,-1.81374337009007e+001,-2.97397527784629e+000

2.20086690902357e+005,-1.81379187600373e+001,-3.01432058552883e+000

2.23158986616063e+005,-1.81384139033422e+001,-3.05518930099763e+000

2.26274169979693e+005,-1.81389192581180e+001,-3.09658761968368e+000

2.29432839682530e+005,-1.81394349495241e+001,-3.13852180691847e+000

2.32635602771247e+005,-1.81399611003868e+001,-3.18099819954962e+000

2.35883074766574e+005,-1.81404978310082e+001,-3.22402320764164e+000

2.39175879781588e+005,-1.81410452589731e+001,-3.26760331626468e+000

2.42514650641661e+005,-1.81416034989535e+001,-3.31174508737928e+000

2.45900029006080e+005,-1.81421726625133e+001,-3.35645516181122e+000

2.49332665491357e+005,-1.81427528579120e+001,-3.40174026132855e+000

2.52813219796278e+005,-1.81433441899083e+001,-3.44760719081610e+000

2.56342360828676e+005,-1.81439467595653e+001,-3.49406284055507e+000

2.59920766833993e+005,-1.81445606640569e+001,-3.54111418860493e+000

2.63549125525621e+005,-1.81451859964763e+001,-3.58876830329608e+000

2.67228134217075e+005,-1.81458228456472e+001,-3.63703234582910e+000

2.70958499956006e+005,-1.81464712959395e+001,-3.68591357298586e+000

2.74740939660078e+005,-1.81471314270885e+001,-3.73541933995260e+000

2.78576180254757e+005,-1.81478033140210e+001,-3.78555710325618e+000

2.82464958813007e+005,-1.81484870266856e+001,-3.83633442381538e+000

2.86408022696948e+005,-1.81491826298919e+001,-3.88775897010540e+000

2.90406129701488e+005,-1.81498901831572e+001,-3.93983852143826e+000

2.94460048199957e+005,-1.81506097405614e+001,-3.99258097135771e+000

2.98570557291775e+005,-1.81513413506131e+001,-4.04599433114792e+000

3.02738446952187e+005,-1.81520850561258e+001,-4.10008673345484e+000

3.06964518184081e+005,-1.81528408941063e+001,-4.15486643602088e+000

3.11249583171928e+005,-1.81536088956555e+001,-4.21034182552710e+000

3.15594465437872e+005,-1.81543890858841e+001,-4.26652142154504e+000

3.19999999999997e+005,-1.81551814838418e+001,-4.32341388059283e+000

3.24467033532806e+005,-1.81559861024633e+001,-4.38102800029284e+000

3.28996424529938e+005,-1.81568029485308e+001,-4.43937272362773e+000

3.33589043469155e+005,-1.81576320226538e+001,-4.49845714329175e+000

3.38245772979638e+005,-1.81584733192682e+001,-4.55829050612945e+000

3.42967508011610e+005,-1.81593268266543e+001,-4.61888221766128e+000

3.47755156008335e+005,-1.81601925269756e+001,-4.68024184668700e+000

3.52609637080511e+005,-1.81610703963385e+001,-4.74237912996375e+000

3.57531884183106e+005,-1.81619604048738e+001,-4.80530397694947e+000

3.62522843294651e+005,-1.81628625168415e+001,-4.86902647460791e+000

3.67583473599047e+005,-1.81637766907575e+001,-4.93355689226705e+000

3.72714747669902e+005,-1.81647028795462e+001,-4.99890568652201e+000

3.77917651657445e+005,-1.81656410307150e+001,-5.06508350617687e+000

3.83193185478053e+005,-1.81665910865560e+001,-5.13210119721625e+000

3.88542363006410e+005,-1.81675529843710e+001,-5.19996980779733e+000

3.93966212270369e+005,-1.81685266567228e+001,-5.26870059325581e+000

3.99465775648511e+005,-1.81695120317126e+001,-5.33830502111435e+000

4.05042110070485e+005,-1.81705090332814e+001,-5.40879477608704e+000

4.10696287220124e+005,-1.81715175815391e+001,-5.48018176506806e+000

4.16429393741414e+005,-1.81725375931180e+001,-5.55247812209861e+000

4.22242531447321e+005,-1.81735689815521e+001,-5.62569621329906e+000

4.28136817531551e+005,-1.81746116576814e+001,-5.69984864176028e+000

4.34113384783250e+005,-1.81756655300809e+001,-5.77494825238347e+000

4.40173381804713e+005,-1.81767305055144e+001,-5.85100813666004e+000

4.46317973232124e+005,-1.81778064894111e+001,-5.92804163738214e+000

4.52548339959385e+005,-1.81788933863655e+001,-6.00606235327645e+000

4.58865679365059e+005,-1.81799911006599e+001,-6.08508414355196e+000

4.65271205542494e+005,-1.81810995368075e+001,-6.16512113235344e+000

4.71766149533147e+005,-1.81822186001164e+001,-6.24618771311528e+000

4.78351759563174e+005,-1.81833481972724e+001,-6.32829855280624e+000

4.85029301283321e+005,-1.81844882369404e+001,-6.41146859605948e+000

4.91800058012158e+005,-1.81856386303825e+001,-6.49571306918286e+000

4.98665330982714e+005,-1.81867992920916e+001,-6.58104748404231e+000

5.05626439592555e+005,-1.81879701404401e+001,-6.66748764181462e+000

5.12684721657352e+005,-1.81891510983408e+001,-6.75504963660486e+000

5.19841533667984e+005,-1.81903420939197e+001,-6.84374985892597e+000

5.27098251051240e+005,-1.81915430611986e+001,-6.93360499903694e+000

5.34456268434150e+005,-1.81927539407873e+001,-7.02463205013622e+000

5.41916999912011e+005,-1.81939746805816e+001,-7.11684831141336e+000

