Freq.,VOut,OutRef

1.00000000000000e+004,-1.46751312828407e+001,-2.25358745408421e-001

1.01395947979003e+004,-1.46751319065679e+001,-2.28504576839058e-001

1.02811382665607e+004,-1.46751325478208e+001,-2.31694319917760e-001

1.04246576084112e+004,-1.46751332070915e+001,-2.34928587521420e-001

1.05701804056138e+004,-1.46751338848860e+001,-2.38208001077692e-001

1.07177346253629e+004,-1.46751345817246e+001,-2.41533190683780e-001

1.08673486252606e+004,-1.46751352981419e+001,-2.44904795228955e-001

1.10190511587661e+004,-1.46751360346878e+001,-2.48323462514584e-001

1.11728713807222e+004,-1.46751367919271e+001,-2.51789849381649e-001

1.13288388529580e+004,-1.46751375704412e+001,-2.55304621831975e-001

1.14869835499703e+004,-1.46751383708272e+001,-2.58868455161155e-001

1.16473358646846e+004,-1.46751391936993e+001,-2.62482034082915e-001

1.18099266142953e+004,-1.46751400396886e+001,-2.66146052865658e-001

1.19747870461893e+004,-1.46751409094440e+001,-2.69861215461275e-001

1.21419488439505e+004,-1.46751418036329e+001,-2.73628235641239e-001

1.23114441334492e+004,-1.46751427229410e+001,-2.77447837134940e-001

1.24833054890161e+004,-1.46751436680733e+001,-2.81320753766122e-001

1.26575659397028e+004,-1.46751446397547e+001,-2.85247729595505e-001

1.28342589756290e+004,-1.46751456387303e+001,-2.89229519061233e-001

1.30134185544193e+004,-1.46751466657662e+001,-2.93266887125586e-001

1.31950791077289e+004,-1.46751477216498e+001,-2.97360609420182e-001

1.33792755478611e+004,-1.46751488071907e+001,-3.01511472394318e-001

1.35660432744767e+004,-1.46751499232209e+001,-3.05720273467099e-001

1.37554181813974e+004,-1.46751510705962e+001,-3.09987821178651e-001

1.39474366635040e+004,-1.46751522501957e+001,-3.14314935346234e-001

1.41421356237309e+004,-1.46751534629237e+001,-3.18702447218982e-001

1.43395524801583e+004,-1.46751547097098e+001,-3.23151199639095e-001

1.45397251732031e+004,-1.46751559915090e+001,-3.27662047204680e-001

1.47426921729110e+004,-1.46751573093038e+001,-3.32235856427362e-001

1.49484924863494e+004,-1.46751586641036e+001,-3.36873505906072e-001

1.51571656651040e+004,-1.46751600569464e+001,-3.41575886488171e-001

1.53687518128801e+004,-1.46751614888992e+001,-3.46343901444892e-001

1.55832915932100e+004,-1.46751629610587e+001,-3.51178466641313e-001

1.58008262372675e+004,-1.46751644745525e+001,-3.56080510711361e-001

1.60213975517924e+004,-1.46751660305394e+001,-3.61050975239424e-001

1.62450479271247e+004,-1.46751676302109e+001,-3.66090814934432e-001

1.64718203453514e+004,-1.46751692747917e+001,-3.71200997816679e-001

1.67017583885674e+004,-1.46751709655408e+001,-3.76382505402980e-001

1.69349062472505e+004,-1.46751727037523e+001,-3.81636332890299e-001

1.71713087287550e+004,-1.46751744907565e+001,-3.86963489351157e-001

1.74110112659224e+004,-1.46751763279209e+001,-3.92364997923084e-001

1.76540599258131e+004,-1.46751782166512e+001,-3.97841896004018e-001

1.79005014185594e+004,-1.46751801583922e+001,-4.03395235454694e-001

1.81503831063432e+004,-1.46751821546294e+001,-4.09026082792573e-001

1.84037530124975e+004,-1.46751842068895e+001,-4.14735519401335e-001

1.86606598307361e+004,-1.46751863167418e+001,-4.20524641735957e-001

1.89211529345119e+004,-1.46751884857995e+001,-4.26394561530420e-001

1.91852823865052e+004,-1.46751907157209e+001,-4.32346406011133e-001

1.94530989482457e+004,-1.46751930082103e+001,-4.38381318112792e-001

1.97246540898671e+004,-1.46751953650199e+001,-4.44500456694255e-001

1.99999999999999e+004,-1.46751977879504e+001,-4.50704996762332e-001

2.02791895958005e+004,-1.46752002788528e+001,-4.56996129694506e-001

2.05622765331213e+004,-1.46752028396300e+001,-4.63375063464060e-001

2.08493152168224e+004,-1.46752054722376e+001,-4.69843022875205e-001

2.11403608112276e+004,-1.46752081786855e+001,-4.76401249792880e-001

2.14354692507258e+004,-1.46752109610402e+001,-4.83051003379506e-001

2.17346972505211e+004,-1.46752138214251e+001,-4.89793560337026e-001

2.20381023175322e+004,-1.46752167620231e+001,-4.96630215147818e-001

2.23457427614443e+004,-1.46752197850779e+001,-5.03562280322524e-001

2.26576777059159e+004,-1.46752228928951e+001,-5.10591086650876e-001

2.29739670999406e+004,-1.46752260878451e+001,-5.17717983450587e-001

2.32946717293690e+004,-1.46752293723638e+001,-5.24944338830460e-001

2.36198532285905e+004,-1.46752327489549e+001,-5.32271539945363e-001

2.39495740923785e+004,-1.46752362201916e+001,-5.39700993264034e-001

2.42838976879009e+004,-1.46752397887188e+001,-5.47234124832176e-001

2.46228882668982e+004,-1.46752434572546e+001,-5.54872380547785e-001

2.49666109780322e+004,-1.46752472285927e+001,-5.62617226432447e-001

2.53151318794055e+004,-1.46752511056041e+001,-5.70470148912874e-001

2.56685179512580e+004,-1.46752550912398e+001,-5.78432655100984e-001

2.60268371088386e+004,-1.46752591885324e+001,-5.86506273079439e-001

2.63901582154578e+004,-1.46752634005985e+001,-5.94692552194811e-001

2.67585510957221e+004,-1.46752677306411e+001,-6.02993063348159e-001

2.71320865489533e+004,-1.46752721819521e+001,-6.11409399294341e-001

2.75108363627948e+004,-1.46752767579143e+001,-6.19943174944012e-001

2.78948733270080e+004,-1.46752814620041e+001,-6.28596027669851e-001

2.82842712474618e+004,-1.46752862977942e+001,-6.37369617615227e-001

2.86791049603164e+004,-1.46752912689560e+001,-6.46265628010311e-001

2.90794503464061e+004,-1.46752963792624e+001,-6.55285765489778e-001

2.94853843458219e+004,-1.46753016325902e+001,-6.64431760415905e-001

2.98969849726987e+004,-1.46753070329238e+001,-6.73705367205354e-001

3.03143313302078e+004,-1.46753125843569e+001,-6.83108364661366e-001

3.07375036257601e+004,-1.46753182910966e+001,-6.92642556309725e-001

3.11665831864199e+004,-1.46753241574656e+001,-7.02309770738639e-001

3.16016524745350e+004,-1.46753301879058e+001,-7.12111861945167e-001

3.20427951035848e+004,-1.46753363869815e+001,-7.22050709683464e-001

3.24900958542493e+004,-1.46753427593824e+001,-7.32128219820995e-001

3.29436406907028e+004,-1.46753493099273e+001,-7.42346324696081e-001

3.34035167771346e+004,-1.46753560435672e+001,-7.52706983482728e-001

3.38698124945009e+004,-1.46753629653893e+001,-7.63212182559379e-001

3.43426174575100e+004,-1.46753700806202e+001,-7.73863935883292e-001

3.48220225318448e+004,-1.46753773946302e+001,-7.84664285367675e-001

3.53081198516260e+004,-1.46753849129362e+001,-7.95615301267033e-001

3.58010028371187e+004,-1.46753926412066e+001,-8.06719082565282e-001

3.63007662126863e+004,-1.46754005852648e+001,-8.17977757370182e-001

3.68075060249948e+004,-1.46754087510935e+001,-8.29393483311994e-001

3.73213196614721e+004,-1.46754171448388e+001,-8.40968447948613e-001

3.78423058690237e+004,-1.46754257728145e+001,-8.52704869174772e-001

3.83705647730104e+004,-1.46754346415068e+001,-8.64604995638120e-001

3.89061978964912e+004,-1.46754437575785e+001,-8.76671107159069e-001

3.94493081797342e+004,-1.46754531278740e+001,-8.88905515158193e-001

3.99999999999998e+004,-1.46754627594238e+001,-9.01310563086356e-001

4.05583791916010e+004,-1.46754726594493e+001,-9.13888626864324e-001

4.11245530662425e+004,-1.46754828353684e+001,-9.26642115323963e-001

4.16986304336447e+004,-1.46754932948000e+001,-9.39573470658305e-001

4.22807216224550e+004,-1.46755040455693e+001,-9.52685168877273e-001

4.28709385014515e+004,-1.46755150957137e+001,-9.65979720266160e-001

4.34693945010421e+004,-1.46755264534876e+001,-9.79459669854556e-001

4.40762046350642e+004,-1.46755381273685e+001,-9.93127597888050e-001

4.46914855228886e+004,-1.46755501260627e+001,-1.00698612030696e+000

4.53153554118317e+004,-1.46755624585110e+001,-1.02103788923345e+000

4.59479341998812e+004,-1.46755751338950e+001,-1.03528559345955e+000

4.65893434587380e+004,-1.46755881616430e+001,-1.04973195894797e+000

4.72397064571810e+004,-1.46756015514365e+001,-1.06437974933444e+000

4.78991481847569e+004,-1.46756153132164e+001,-1.07923176643934e+000

4.85677953758016e+004,-1.46756294571901e+001,-1.09429085078308e+000

4.92457765337964e+004,-1.46756439938378e+001,-1.10955988211257e+000

4.99332219560642e+004,-1.46756589339195e+001,-1.12504177992766e+000

5.06302637588109e+004,-1.46756742884822e+001,-1.14073950402279e+000

5.13370359025159e+004,-1.46756900688667e+001,-1.15665605502706e+000

5.20536742176771e+004,-1.46757062867156e+001,-1.17279447495738e+000

5.27803164309155e+004,-1.46757229539803e+001,-1.18915784777460e+000

5.35171021914442e+004,-1.46757400829288e+001,-1.20574929994953e+000

5.42641730979066e+004,-1.46757576861536e+001,-1.22257200103355e+000

5.50216727255895e+004,-1.46757757765796e+001,-1.23962916423945e+000

5.57897466540159e+004,-1.46757943674724e+001,-1.25692404702585e+000

5.65685424949235e+004,-1.46758134724465e+001,-1.27445995169096e+000

5.73582099206328e+004,-1.46758331054739e+001,-1.29224022597437e+000

5.81589006928121e+004,-1.46758532808927e+001,-1.31026826366536e+000

5.89707686916437e+004,-1.46758740134159e+001,-1.32854750521776e+000

5.97939699453972e+004,-1.46758953181403e+001,-1.34708143837497e+000

6.06286626604156e+004,-1.46759172105562e+001,-1.36587359879898e+000

6.14750072515201e+004,-1.46759397065560e+001,-1.38492757071207e+000

6.23331663728396e+004,-1.46759628224441e+001,-1.40424698754125e+000

6.32033049490698e+004,-1.46759865749467e+001,-1.42383553257434e+000

6.40855902071694e+004,-1.46760109812214e+001,-1.44369693962100e+000

6.49801917084985e+004,-1.46760360588675e+001,-1.46383499368490e+000

6.58872813814055e+004,-1.46760618259357e+001,-1.48425353164244e+000

6.68070335542691e+004,-1.46760883009393e+001,-1.50495644292868e+000

6.77396249890018e+004,-1.46761155028637e+001,-1.52594767023322e+000

6.86852349150199e+004,-1.46761434511783e+001,-1.54723121020350e+000

6.96440450636895e+004,-1.46761721658462e+001,-1.56881111415721e+000

7.06162397032520e+004,-1.46762016673360e+001,-1.59069148880255e+000

7.16020056742374e+004,-1.46762319766328e+001,-1.61287649696753e+000

7.26015324253724e+004,-1.46762631152495e+001,-1.63537035833725e+000

7.36150120499896e+004,-1.46762951052384e+001,-1.65817735020081e+000

7.46426393229441e+004,-1.46763279692028e+001,-1.68130180820666e+000

7.56846117380472e+004,-1.46763617303088e+001,-1.70474812712696e+000

7.67411295460207e+004,-1.46763964122975e+001,-1.72852076162949e+000

7.78123957929823e+004,-1.46764320394967e+001,-1.75262422706261e+000

7.88986163594682e+004,-1.46764686368334e+001,-1.77706310024381e+000

7.99999999999995e+004,-1.46765062298461e+001,-1.80184202026208e+000

8.11167583832018e+004,-1.46765448446974e+001,-1.82696568928769e+000

8.22491061324848e+004,-1.46765845081865e+001,-1.85243887339103e+000

8.33972608672892e+004,-1.46766252477616e+001,-1.87826640337273e+000

8.45614432449099e+004,-1.46766670915333e+001,-1.90445317560090e+000

8.57418770029029e+004,-1.46767100682871e+001,-1.93100415286001e+000

8.69387890020841e+004,-1.46767542074965e+001,-1.95792436520901e+000

8.81524092701283e+004,-1.46767995393358e+001,-1.98521891084955e+000

8.93829710457770e+004,-1.46768460946937e+001,-2.01289295700331e+000

9.06307108236633e+004,-1.46768939051858e+001,-2.04095174080039e+000

9.18958683997622e+004,-1.46769430031682e+001,-2.06940057017763e+000

9.31786869174758e+004,-1.46769934217507e+001,-2.09824482478759e+000

9.44794129143618e+004,-1.46770451948098e+001,-2.12748995691666e+000

9.57982963695136e+004,-1.46770983570019e+001,-2.15714149241642e+000

9.71355907516031e+004,-1.46771529437765e+001,-2.18720503164197e+000

9.84915530675926e+004,-1.46772089913894e+001,-2.21768625040477e+000

9.98664439121282e+004,-1.46772665369155e+001,-2.24859090093455e+000

1.01260527517622e+005,-1.46773256182621e+001,-2.27992481285206e+000

1.02674071805032e+005,-1.46773862741814e+001,-2.31169389415386e+000

1.04107348435354e+005,-1.46774485442833e+001,-2.34390413220895e+000

1.05560632861831e+005,-1.46775124690483e+001,-2.37656159476542e+000

1.07034204382888e+005,-1.46775780898394e+001,-2.40967243097088e+000

1.08528346195813e+005,-1.46776454489148e+001,-2.44324287240296e+000

1.10043345451179e+005,-1.46777145894395e+001,-2.47727923411326e+000

1.11579493308032e+005,-1.46777855554972e+001,-2.51178791568281e+000

1.13137084989847e+005,-1.46778583921017e+001,-2.54677540229052e+000

1.14716419841265e+005,-1.46779331452081e+001,-2.58224826579533e+000

1.16317801385624e+005,-1.46780098617236e+001,-2.61821316582784e+000

1.17941537383287e+005,-1.46780885895180e+001,-2.65467685090081e+000

1.19587939890794e+005,-1.46781693774335e+001,-2.69164615952759e+000

1.21257325320831e+005,-1.46782522752945e+001,-2.72912802135799e+000

1.22950014503040e+005,-1.46783373339168e+001,-2.76712945832714e+000

1.24666332745679e+005,-1.46784246051160e+001,-2.80565758581715e+000

1.26406609898139e+005,-1.46785141417157e+001,-2.84471961383708e+000

1.28171180414339e+005,-1.46786059975549e+001,-2.88432284821441e+000

1.29960383416997e+005,-1.46787002274953e+001,-2.92447469180319e+000

1.31774562762811e+005,-1.46787968874267e+001,-2.96518264570894e+000

1.33614067108538e+005,-1.46788960342732e+001,-3.00645431052838e+000

1.35479249978003e+005,-1.46789977259980e+001,-3.04829738760557e+000

1.37370469830040e+005,-1.46791020216067e+001,-3.09071968030699e+000

1.39288090127379e+005,-1.46792089811511e+001,-3.13372909531228e+000

1.41232479406504e+005,-1.46793186657316e+001,-3.17733364392307e+000

1.43204011348474e+005,-1.46794311374981e+001,-3.22154144339155e+000

1.45203064850745e+005,-1.46795464596505e+001,-3.26636071826677e+000

1.47230024099979e+005,-1.46796646964387e+001,-3.31179980176194e+000

1.49285278645888e+005,-1.46797859131604e+001,-3.35786713714008e+000

1.51369223476094e+005,-1.46799101761587e+001,-3.40457127912279e+000

1.53482259092041e+005,-1.46800375528184e+001,-3.45192089531846e+000

1.55624791585964e+005,-1.46801681115610e+001,-3.49992476767405e+000

1.57797232718936e+005,-1.46803019218385e+001,-3.54859179394980e+000

1.59999999999999e+005,-1.46804390541261e+001,-3.59793098921632e+000

1.62233516766403e+005,-1.46805795799136e+001,-3.64795148737811e+000

1.64498212264969e+005,-1.46807235716956e+001,-3.69866254272074e+000

1.66794521734578e+005,-1.46808711029600e+001,-3.75007353148589e+000

1.69122886489819e+005,-1.46810222481755e+001,-3.80219395347121e+000

1.71483754005805e+005,-1.46811770827777e+001,-3.85503343366114e+000

1.73877578004168e+005,-1.46813356831537e+001,-3.90860172388456e+000

1.76304818540256e+005,-1.46814981266253e+001,-3.96290870450304e+000

1.78765942091554e+005,-1.46816644914305e+001,-4.01796438613133e+000

1.81261421647326e+005,-1.46818348567041e+001,-4.07377891138805e+000

1.83791736799524e+005,-1.46820093024567e+001,-4.13036255668211e+000

1.86357373834951e+005,-1.46821879095516e+001,-4.18772573403134e+000

1.88958825828723e+005,-1.46823707596815e+001,-4.24587899291901e+000

1.91596592739027e+005,-1.46825579353424e+001,-4.30483302218549e+000

1.94271181503206e+005,-1.46827495198075e+001,-4.36459865195925e+000

1.96983106135185e+005,-1.46829455970982e+001,-4.42518685562769e+000

1.99732887824256e+005,-1.46831462519555e+001,-4.48660875184776e+000

2.02521055035243e+005,-1.46833515698086e+001,-4.54887560659969e+000

2.05348143610063e+005,-1.46835616367431e+001,-4.61199883528494e+000

2.08214696870707e+005,-1.46837765394678e+001,-4.67599000486744e+000

2.11121265723661e+005,-1.46839963652809e+001,-4.74086083606356e+000

2.14068408765776e+005,-1.46842212020342e+001,-4.80662320557867e+000

2.17056692391625e+005,-1.46844511380973e+001,-4.87328914839395e+000

2.20086690902357e+005,-1.46846862623208e+001,-4.94087086010371e+000

2.23158986616063e+005,-1.46849266639987e+001,-5.00938069930591e+000

2.26274169979693e+005,-1.46851724328303e+001,-5.07883119004597e+000

2.29432839682530e+005,-1.46854236588821e+001,-5.14923502431668e+000

2.32635602771247e+005,-1.46856804325487e+001,-5.22060506461525e+000

2.35883074766574e+005,-1.46859428445148e+001,-5.29295434655743e+000

2.39175879781588e+005,-1.46862109857162e+001,-5.36629608155472e+000

2.42514650641661e+005,-1.46864849473019e+001,-5.44064365954921e+000

2.45900029006080e+005,-1.46867648205969e+001,-5.51601065181433e+000

2.49332665491357e+005,-1.46870506970650e+001,-5.59241081381784e+000

2.52813219796278e+005,-1.46873426682738e+001,-5.66985808815185e+000

2.56342360828676e+005,-1.46876408258599e+001,-5.74836660752827e+000

2.59920766833993e+005,-1.46879452614968e+001,-5.82795069784335e+000

2.63549125525621e+005,-1.46882560668637e+001,-5.90862488131074e+000

2.67228134217075e+005,-1.46885733336177e+001,-5.99040387966500e+000

2.70958499956006e+005,-1.46888971533669e+001,-6.07330261743625e+000

2.74740939660078e+005,-1.46892276176485e+001,-6.15733622529681e+000

2.78576180254757e+005,-1.46895648179080e+001,-6.24252004348112e+000

2.82464958813007e+005,-1.46899088454836e+001,-6.32886962527860e+000

2.86408022696948e+005,-1.46902597915935e+001,-6.41640074060098e+000

2.90406129701488e+005,-1.46906177473281e+001,-6.50512937962377e+000

2.94460048199957e+005,-1.46909828036473e+001,-6.59507175650321e+000

2.98570557291775e+005,-1.46913550513814e+001,-6.68624431316715e+000

3.02738446952187e+005,-1.46917345812393e+001,-6.77866372318205e+000

3.06964518184081e+005,-1.46921214838217e+001,-6.87234689569432e+000

3.11249583171928e+005,-1.46925158496405e+001,-6.96731097944566e+000

3.15594465437872e+005,-1.46929177691457e+001,-7.06357336686307e+000

3.19999999999997e+005,-1.46933273327586e+001,-7.16115169822275e+000

3.24467033532806e+005,-1.46937446309133e+001,-7.26006386588485e+000

3.28996424529938e+005,-1.46941697541056e+001,-7.36032801860273e+000

3.33589043469155e+005,-1.46946027929510e+001,-7.46196256589938e+000

3.38245772979638e+005,-1.46950438382503e+001,-7.56498618251589e+000

3.42967508011610e+005,-1.46954929810658e+001,-7.66941781292605e+000

3.47755156008335e+005,-1.46959503128059e+001,-7.77527667591713e+000

3.52609637080511e+005,-1.46964159253203e+001,-7.88258226923538e+000

3.57531884183106e+005,-1.46968899110047e+001,-7.99135437429343e+000

3.62522843294651e+005,-1.46973723629167e+001,-8.10161306093740e+000

3.67583473599047e+005,-1.46978633749027e+001,-8.21337869227230e+000

3.72714747669902e+005,-1.46983630417347e+001,-8.32667192954204e+000

3.77917651657445e+005,-1.46988714592601e+001,-8.44151373706292e+000

3.83193185478053e+005,-1.46993887245617e+001,-8.55792538720616e+000

3.88542363006410e+005,-1.46999149361305e+001,-8.67592846542853e+000

3.93966212270369e+005,-1.47004501940500e+001,-8.79554487534629e+000

3.99465775648511e+005,-1.47009946001928e+001,-8.91679684385096e+000

4.05042110070485e+005,-1.47015482584289e+001,-9.03970692626321e+000

4.10696287220124e+005,-1.47021112748471e+001,-9.16429801152133e+000

4.16429393741414e+005,-1.47026837579879e+001,-9.29059332740242e+000

4.22242531447321e+005,-1.47032658190896e+001,-9.41861644577159e+000

4.28136817531551e+005,-1.47038575723458e+001,-9.54839128785694e+000

4.34113384783250e+005,-1.47044591351752e+001,-9.67994212954712e+000

4.40173381804713e+005,-1.47050706285048e+001,-9.81329360670830e+000

4.46317973232124e+005,-1.47056921770626e+001,-9.94847072051727e+000

4.52548339959385e+005,-1.47063239096848e+001,-1.00854988428081e+001

4.58865679365059e+005,-1.47069659596324e+001,-1.02244037214288e+001

4.65271205542494e+005,-1.47076184649202e+001,-1.03652114856067e+001

4.71766149533147e+005,-1.47082815686566e+001,-1.05079486513187e+001

4.78351759563174e+005,-1.47089554193942e+001,-1.06526421266636e+001

4.85029301283321e+005,-1.47096401714902e+001,-1.07993192172359e+001

4.91800058012158e+005,-1.47103359854778e+001,-1.09480076314978e+001

4.98665330982714e+005,-1.47110430284466e+001,-1.10987354861474e+001

5.05626439592555e+005,-1.47117614744320e+001,-1.12515313114827e+001

5.12684721657352e+005,-1.47124915048140e+001,-1.14064240567581e+001

5.19841533667984e+005,-1.47132333087242e+001,-1.15634430955341e+001

5.27098251051240e+005,-1.47139870834602e+001,-1.17226182310181e+001

5.34456268434150e+005,-1.47147530349079e+001,-1.18839797013961e+001

5.41916999912011e+005,-1.47155313779708e+001,-1.20475581851541e+001

