Freq.,VOut,OutRef

1.00000000000000e+004,-1.58329985191581e+001,-1.97683920427470e-001

1.01395947979003e+004,-1.58329994451695e+001,-2.00443390723543e-001

1.02811382665607e+004,-1.58330003971994e+001,-2.03241377781514e-001

1.04246576084112e+004,-1.58330013759781e+001,-2.06078419107488e-001

1.05701804056138e+004,-1.58330023822568e+001,-2.08955059700473e-001

1.07177346253629e+004,-1.58330034168076e+001,-2.11871852161300e-001

1.08673486252606e+004,-1.58330044804245e+001,-2.14829356795588e-001

1.10190511587661e+004,-1.58330055739234e+001,-2.17828141724246e-001

1.11728713807222e+004,-1.58330066981430e+001,-2.20868782990251e-001

1.13288388529580e+004,-1.58330078539462e+001,-2.23951864666622e-001

1.14869835499703e+004,-1.58330090422193e+001,-2.27077978973183e-001

1.16473358646846e+004,-1.58330102638739e+001,-2.30247726385521e-001

1.18099266142953e+004,-1.58330115198472e+001,-2.33461715752124e-001

1.19747870461893e+004,-1.58330128111022e+001,-2.36720564410271e-001

1.21419488439505e+004,-1.58330141386294e+001,-2.40024898303876e-001

1.23114441334492e+004,-1.58330155034469e+001,-2.43375352102749e-001

1.24833054890161e+004,-1.58330169066009e+001,-2.46772569326412e-001

1.26575659397028e+004,-1.58330183491678e+001,-2.50217202462612e-001

1.28342589756290e+004,-1.58330198322532e+001,-2.53709913096928e-001

1.30134185544193e+004,-1.58330213569941e+001,-2.57251372035983e-001

1.31950791077289e+004,-1.58330229245597e+001,-2.60842259435399e-001

1.33792755478611e+004,-1.58330245361512e+001,-2.64483264932819e-001

1.35660432744767e+004,-1.58330261930043e+001,-2.68175087775209e-001

1.37554181813974e+004,-1.58330278963882e+001,-2.71918436958548e-001

1.39474366635040e+004,-1.58330296476088e+001,-2.75714031355125e-001

1.41421356237309e+004,-1.58330314480077e+001,-2.79562599858270e-001

1.43395524801583e+004,-1.58330332989642e+001,-2.83464881517893e-001

1.45397251732031e+004,-1.58330352018969e+001,-2.87421625679481e-001

1.47426921729110e+004,-1.58330371582629e+001,-2.91433592133466e-001

1.49484924863494e+004,-1.58330391695612e+001,-2.95501551252847e-001

1.51571656651040e+004,-1.58330412373320e+001,-2.99626284144793e-001

1.53687518128801e+004,-1.58330433631588e+001,-3.03808582798723e-001

1.55832915932100e+004,-1.58330455486696e+001,-3.08049250235592e-001

1.58008262372675e+004,-1.58330477955374e+001,-3.12349100663985e-001

1.60213975517924e+004,-1.58330501054825e+001,-3.16708959631162e-001

1.62450479271247e+004,-1.58330524802731e+001,-3.21129664184000e-001

1.64718203453514e+004,-1.58330549217267e+001,-3.25612063026664e-001

1.67017583885674e+004,-1.58330574317118e+001,-3.30157016682053e-001

1.69349062472505e+004,-1.58330600121487e+001,-3.34765397657283e-001

1.71713087287550e+004,-1.58330626650120e+001,-3.39438090606315e-001

1.74110112659224e+004,-1.58330653923308e+001,-3.44175992503105e-001

1.76540599258131e+004,-1.58330681961912e+001,-3.48980012807444e-001

1.79005014185594e+004,-1.58330710787374e+001,-3.53851073640753e-001

1.81503831063432e+004,-1.58330740421737e+001,-3.58790109959839e-001

1.84037530124975e+004,-1.58330770887654e+001,-3.63798069736565e-001

1.86606598307361e+004,-1.58330802208417e+001,-3.68875914134955e-001

1.89211529345119e+004,-1.58330834407961e+001,-3.74024617697111e-001

1.91852823865052e+004,-1.58330867510894e+001,-3.79245168524604e-001

1.94530989482457e+004,-1.58330901542506e+001,-3.84538568469277e-001

1.97246540898671e+004,-1.58330936528794e+001,-3.89905833321559e-001

1.99999999999999e+004,-1.58330972496478e+001,-3.95347993002841e-001

2.02791895958005e+004,-1.58331009473026e+001,-4.00866091761325e-001

2.05622765331213e+004,-1.58331047486666e+001,-4.06461188371140e-001

2.08493152168224e+004,-1.58331086566417e+001,-4.12134356328917e-001

2.11403608112276e+004,-1.58331126742102e+001,-4.17886684062529e-001

2.14354692507258e+004,-1.58331168044376e+001,-4.23719275131973e-001

2.17346972505211e+004,-1.58331210504747e+001,-4.29633248442502e-001

2.20381023175322e+004,-1.58331254155600e+001,-4.35629738452050e-001

2.23457427614443e+004,-1.58331299030217e+001,-4.41709895389143e-001

2.26576777059159e+004,-1.58331345162811e+001,-4.47874885467761e-001

2.29739670999406e+004,-1.58331392588540e+001,-4.54125891109303e-001

2.32946717293690e+004,-1.58331441343543e+001,-4.60464111165148e-001

2.36198532285905e+004,-1.58331491464959e+001,-4.66890761142139e-001

2.39495740923785e+004,-1.58331542990962e+001,-4.73407073431880e-001

2.42838976879009e+004,-1.58331595960783e+001,-4.80014297544744e-001

2.46228882668982e+004,-1.58331650414742e+001,-4.86713700342505e-001

2.49666109780322e+004,-1.58331706394275e+001,-4.93506566279190e-001

2.53151318794055e+004,-1.58331763941972e+001,-5.00394197640450e-001

2.56685179512580e+004,-1.58331823101597e+001,-5.07377914791516e-001

2.60268371088386e+004,-1.58331883918132e+001,-5.14459056421327e-001

2.63901582154578e+004,-1.58331946437798e+001,-5.21638979797876e-001

2.67585510957221e+004,-1.58332010708101e+001,-5.28919061020045e-001

2.71320865489533e+004,-1.58332076777858e+001,-5.36300695276913e-001

2.75108363627948e+004,-1.58332144697236e+001,-5.43785297109958e-001

2.78948733270080e+004,-1.58332214517790e+001,-5.51374300675531e-001

2.82842712474618e+004,-1.58332286292498e+001,-5.59069160015918e-001

2.86791049603164e+004,-1.58332360075800e+001,-5.66871349330586e-001

2.90794503464061e+004,-1.58332435923641e+001,-5.74782363249780e-001

2.94853843458219e+004,-1.58332513893505e+001,-5.82803717116970e-001

2.98969849726987e+004,-1.58332594044465e+001,-5.90936947268521e-001

3.03143313302078e+004,-1.58332676437218e+001,-5.99183611321579e-001

3.07375036257601e+004,-1.58332761134135e+001,-6.07545288464717e-001

3.11665831864199e+004,-1.58332848199300e+001,-6.16023579750388e-001

3.16016524745350e+004,-1.58332937698565e+001,-6.24620108393566e-001

3.20427951035848e+004,-1.58333029699585e+001,-6.33336520074189e-001

3.24900958542493e+004,-1.58333124271878e+001,-6.42174483240678e-001

3.29436406907028e+004,-1.58333221486869e+001,-6.51135689420206e-001

3.34035167771346e+004,-1.58333321417944e+001,-6.60221853532934e-001

3.38698124945009e+004,-1.58333424140496e+001,-6.69434714208840e-001

3.43426174575100e+004,-1.58333529731988e+001,-6.78776034108120e-001

3.48220225318448e+004,-1.58333638272000e+001,-6.88247600248411e-001

3.53081198516260e+004,-1.58333749842291e+001,-6.97851224333667e-001

3.58010028371187e+004,-1.58333864526853e+001,-7.07588743087008e-001

3.63007662126863e+004,-1.58333982411971e+001,-7.17462018592403e-001

3.68075060249948e+004,-1.58334103586287e+001,-7.27472938631919e-001

3.73213196614721e+004,-1.58334228140856e+001,-7.37623417036407e-001

3.78423058690237e+004,-1.58334356169215e+001,-7.47915394035717e-001

3.83705647730104e+004,-1.58334487767448e+001,-7.58350836612033e-001

3.89061978964912e+004,-1.58334623034246e+001,-7.68931738863173e-001

3.94493081797342e+004,-1.58334762070986e+001,-7.79660122364272e-001

3.99999999999998e+004,-1.58334904981795e+001,-7.90538036536929e-001

4.05583791916010e+004,-1.58335051873619e+001,-8.01567559023871e-001

4.11245530662425e+004,-1.58335202856305e+001,-8.12750796066802e-001

4.16986304336447e+004,-1.58335358042667e+001,-8.24089882887452e-001

4.22807216224550e+004,-1.58335517548570e+001,-8.35586984076705e-001

4.28709385014515e+004,-1.58335681493006e+001,-8.47244293985463e-001

4.34693945010421e+004,-1.58335849998173e+001,-8.59064037123373e-001

4.40762046350642e+004,-1.58336023189561e+001,-8.71048468557853e-001

4.46914855228886e+004,-1.58336201196035e+001,-8.83199874322748e-001

4.53153554118317e+004,-1.58336384149919e+001,-8.95520571827606e-001

4.59479341998812e+004,-1.58336572187088e+001,-9.08012910277022e-001

4.65893434587380e+004,-1.58336765447057e+001,-9.20679271088344e-001

4.72397064571810e+004,-1.58336964073072e+001,-9.33522068320246e-001

4.78991481847569e+004,-1.58337168212206e+001,-9.46543749104098e-001

4.85677953758016e+004,-1.58337378015454e+001,-9.59746794078462e-001

4.92457765337964e+004,-1.58337593637834e+001,-9.73133717832051e-001

4.99332219560642e+004,-1.58337815238482e+001,-9.86707069351132e-001

5.06302637588109e+004,-1.58338042980764e+001,-1.00046943246810e+000

5.13370359025159e+004,-1.58338277032373e+001,-1.01442342632177e+000

5.20536742176771e+004,-1.58338517565439e+001,-1.02857170581860e+000

5.27803164309155e+004,-1.58338764756638e+001,-1.04291696209916e+000

5.35171021914442e+004,-1.58339018787306e+001,-1.05746192301220e+000

5.42641730979066e+004,-1.58339279843549e+001,-1.07220935359242e+000

5.50216727255895e+004,-1.58339548116362e+001,-1.08716205654417e+000

5.57897466540159e+004,-1.58339823801747e+001,-1.10232287272933e+000

5.65685424949235e+004,-1.58340107100834e+001,-1.11769468166433e+000

5.73582099206328e+004,-1.58340398220002e+001,-1.13328040201626e+000

5.81589006928121e+004,-1.58340697371008e+001,-1.14908299211221e+000

5.89707686916437e+004,-1.58341004771111e+001,-1.16510545044699e+000

5.97939699453972e+004,-1.58341320643207e+001,-1.18135081620125e+000

6.06286626604156e+004,-1.58341645215958e+001,-1.19782216976244e+000

6.14750072515201e+004,-1.58341978723925e+001,-1.21452263325432e+000

6.23331663728396e+004,-1.58342321407711e+001,-1.23145537106722e+000

6.32033049490698e+004,-1.58342673514095e+001,-1.24862359039989e+000

6.40855902071694e+004,-1.58343035296179e+001,-1.26603054180159e+000

6.49801917084985e+004,-1.58343407013527e+001,-1.28367951972440e+000

6.58872813814055e+004,-1.58343788932316e+001,-1.30157386307773e+000

6.68070335542691e+004,-1.58344181325478e+001,-1.31971695579045e+000

6.77396249890018e+004,-1.58344584472863e+001,-1.33811222737795e+000

6.86852349150199e+004,-1.58344998661378e+001,-1.35676315351660e+000

6.96440450636895e+004,-1.58345424185153e+001,-1.37567325662108e+000

7.06162397032520e+004,-1.58345861345692e+001,-1.39484610643022e+000

7.16020056742374e+004,-1.58346310452036e+001,-1.41428532059724e+000

7.26015324253724e+004,-1.58346771820924e+001,-1.43399456528647e+000

7.36150120499896e+004,-1.58347245776955e+001,-1.45397755577555e+000

7.46426393229441e+004,-1.58347732652754e+001,-1.47423805706342e+000

7.56846117380472e+004,-1.58348232789139e+001,-1.49477988448462e+000

7.67411295460207e+004,-1.58348746535290e+001,-1.51560690432958e+000

7.78123957929823e+004,-1.58349274248919e+001,-1.53672303447019e+000

7.88986163594682e+004,-1.58349816296443e+001,-1.55813224499107e+000

7.99999999999995e+004,-1.58350373053156e+001,-1.57983855882922e+000

8.11167583832018e+004,-1.58350944903402e+001,-1.60184605241574e+000

8.22491061324848e+004,-1.58351532240755e+001,-1.62415885632788e+000

8.33972608672892e+004,-1.58352135468190e+001,-1.64678115594224e+000

8.45614432449099e+004,-1.58352754998267e+001,-1.66971719209944e+000

8.57418770029029e+004,-1.58353391253302e+001,-1.69297126176959e+000

8.69387890020841e+004,-1.58354044665552e+001,-1.71654771872892e+000

8.81524092701283e+004,-1.58354715677387e+001,-1.74045097423780e+000

8.93829710457770e+004,-1.58355404741478e+001,-1.76468549772790e+000

9.06307108236633e+004,-1.58356112320966e+001,-1.78925581749552e+000

9.18958683997622e+004,-1.58356838889648e+001,-1.81416652139951e+000

9.31786869174758e+004,-1.58357584932150e+001,-1.83942225756590e+000

9.44794129143618e+004,-1.58358350944109e+001,-1.86502773510121e+000

9.57982963695136e+004,-1.58359137432342e+001,-1.89098772480808e+000

9.71355907516031e+004,-1.58359944915027e+001,-1.91730705991077e+000

9.84915530675926e+004,-1.58360773921873e+001,-1.94399063678569e+000

9.98664439121282e+004,-1.58361624994289e+001,-1.97104341569888e+000

1.01260527517622e+005,-1.58362498685556e+001,-1.99847042154913e+000

1.02674071805032e+005,-1.58363395560991e+001,-2.02627674461977e+000

1.04107348435354e+005,-1.58364316198107e+001,-2.05446754133531e+000

1.05560632861831e+005,-1.58365261186775e+001,-2.08304803502703e+000

1.07034204382888e+005,-1.58366231129380e+001,-2.11202351670287e+000

1.08528346195813e+005,-1.58367226640967e+001,-2.14139934582782e+000

1.10043345451179e+005,-1.58368248349390e+001,-2.17118095110909e+000

1.11579493308032e+005,-1.58369296895455e+001,-2.20137383129002e+000

1.13137084989847e+005,-1.58370372933049e+001,-2.23198355595052e+000

1.14716419841265e+005,-1.58371477129274e+001,-2.26301576631717e+000

1.16317801385624e+005,-1.58372610164566e+001,-2.29447617607970e+000

1.17941537383287e+005,-1.58373772732809e+001,-2.32637057221595e+000

1.19587939890794e+005,-1.58374965541446e+001,-2.35870481582607e+000

1.21257325320831e+005,-1.58376189311572e+001,-2.39148484297561e+000

1.22950014503040e+005,-1.58377444778025e+001,-2.42471666554555e+000

1.24666332745679e+005,-1.58378732689469e+001,-2.45840637209490e+000

1.26406609898139e+005,-1.58380053808458e+001,-2.49256012872977e+000

1.28171180414339e+005,-1.58381408911496e+001,-2.52718417998502e+000

1.29960383416997e+005,-1.58382798789087e+001,-2.56228484971449e+000

1.31774562762811e+005,-1.58384224245763e+001,-2.59786854199282e+000

1.33614067108538e+005,-1.58385686100115e+001,-2.63394174202866e+000

1.35479249978003e+005,-1.58387185184790e+001,-2.67051101708927e+000

1.37370469830040e+005,-1.58388722346491e+001,-2.70758301743700e+000

1.39288090127379e+005,-1.58390298445956e+001,-2.74516447727940e+000

1.41232479406504e+005,-1.58391914357917e+001,-2.78326221573163e+000

1.43204011348474e+005,-1.58393570971049e+001,-2.82188313779374e+000

1.45203064850745e+005,-1.58395269187893e+001,-2.86103423534248e+000

1.47230024099979e+005,-1.58397009924779e+001,-2.90072258813648e+000

1.49285278645888e+005,-1.58398794111702e+001,-2.94095536484180e+000

1.51369223476094e+005,-1.58400622692208e+001,-2.98173982406870e+000

1.53482259092041e+005,-1.58402496623239e+001,-3.02308331543078e+000

1.55624791585964e+005,-1.58404416874968e+001,-3.06499328062052e+000

1.57797232718936e+005,-1.58406384430608e+001,-3.10747725450380e+000

1.59999999999999e+005,-1.58408400286196e+001,-3.15054286623729e+000

1.62233516766403e+005,-1.58410465450366e+001,-3.19419784040392e+000

1.64498212264969e+005,-1.58412580944085e+001,-3.23844999817407e+000

1.66794521734578e+005,-1.58414747800371e+001,-3.28330725848946e+000

1.69122886489819e+005,-1.58416967063987e+001,-3.32877763927027e+000

1.71483754005805e+005,-1.58419239791111e+001,-3.37486925865129e+000

1.73877578004168e+005,-1.58421567048977e+001,-3.42159033624380e+000

1.76304818540256e+005,-1.58423949915490e+001,-3.46894919442685e+000

1.78765942091554e+005,-1.58426389478822e+001,-3.51695425966888e+000

1.81261421647326e+005,-1.58428886836974e+001,-3.56561406388038e+000

1.83791736799524e+005,-1.58431443097314e+001,-3.61493724580192e+000

1.86357373834951e+005,-1.58434059376091e+001,-3.66493255242459e+000

1.88958825828723e+005,-1.58436736797920e+001,-3.71560884044831e+000

1.91596592739027e+005,-1.58439476495240e+001,-3.76697507777995e+000

1.94271181503206e+005,-1.58442279607749e+001,-3.81904034506773e+000

1.96983106135185e+005,-1.58445147281815e+001,-3.87181383728109e+000

1.99732887824256e+005,-1.58448080669854e+001,-3.92530486533281e+000

2.02521055035243e+005,-1.58451080929691e+001,-3.97952285774694e+000

2.05348143610063e+005,-1.58454149223895e+001,-4.03447736237416e+000

2.08214696870707e+005,-1.58457286719093e+001,-4.09017804815632e+000

2.11121265723661e+005,-1.58460494585256e+001,-4.14663470694475e+000

2.14068408765776e+005,-1.58463773994977e+001,-4.20385725536829e+000

2.17056692391625e+005,-1.58467126122717e+001,-4.26185573676082e+000

2.20086690902357e+005,-1.58470552144043e+001,-4.32064032314434e+000

2.23158986616063e+005,-1.58474053234846e+001,-4.38022131727261e+000

2.26274169979693e+005,-1.58477630570548e+001,-4.44060915473604e+000

2.29432839682530e+005,-1.58481285325298e+001,-4.50181440613185e+000

2.32635602771247e+005,-1.58485018671158e+001,-4.56384777929854e+000

2.35883074766574e+005,-1.58488831777282e+001,-4.62672012161985e+000

2.39175879781588e+005,-1.58492725809100e+001,-4.69044242239875e+000

2.42514650641661e+005,-1.58496701927488e+001,-4.75502581530132e+000

2.45900029006080e+005,-1.58500761287959e+001,-4.82048158087810e+000

2.49332665491357e+005,-1.58504905039844e+001,-4.88682114915768e+000

2.52813219796278e+005,-1.58509134325495e+001,-4.95405610232083e+000

2.56342360828676e+005,-1.58513450279501e+001,-5.02219817745101e+000

2.59920766833993e+005,-1.58517854027921e+001,-5.09125926936778e+000

2.63549125525621e+005,-1.58522346687540e+001,-5.16125143354141e+000

2.67228134217075e+005,-1.58526929365159e+001,-5.23218688909107e+000

2.70958499956006e+005,-1.58531603156911e+001,-5.30407802186800e+000

2.74740939660078e+005,-1.58536369147623e+001,-5.37693738762373e+000

2.78576180254757e+005,-1.58541228410212e+001,-5.45077771526636e+000

2.82464958813007e+005,-1.58546182005145e+001,-5.52561191020173e+000

2.86408022696948e+005,-1.58551230979937e+001,-5.60145305776499e+000

2.90406129701488e+005,-1.58556376368724e+001,-5.67831442673849e+000

2.94460048199957e+005,-1.58561619191891e+001,-5.75620947295813e+000

2.98570557291775e+005,-1.58566960455785e+001,-5.83515184300792e+000

3.02738446952187e+005,-1.58572401152498e+001,-5.91515537800223e+000

3.06964518184081e+005,-1.58577942259735e+001,-5.99623411745436e+000

3.11249583171928e+005,-1.58583584740782e+001,-6.07840230323212e+000

3.15594465437872e+005,-1.58589329544561e+001,-6.16167438359739e+000

3.19999999999997e+005,-1.58595177605795e+001,-6.24606501732933e+000

3.24467033532806e+005,-1.58601129845285e+001,-6.33158907793019e+000

3.28996424529938e+005,-1.58607187170298e+001,-6.41826165790942e+000

3.33589043469155e+005,-1.58613350475080e+001,-6.50609807314716e+000

3.38245772979638e+005,-1.58619620641501e+001,-6.59511386733020e+000

3.42967508011610e+005,-1.58625998539826e+001,-6.68532481646340e+000

3.47755156008335e+005,-1.58632485029633e+001,-6.77674693344673e+000

3.52609637080511e+005,-1.58639080960875e+001,-6.86939647272062e+000

3.57531884183106e+005,-1.58645787175085e+001,-6.96328993497216e+000

3.62522843294651e+005,-1.58652604506748e+001,-7.05844407189946e+000

3.67583473599047e+005,-1.58659533784822e+001,-7.15487589103084e+000

3.72714747669902e+005,-1.58666575834424e+001,-7.25260266059251e+000

3.77917651657445e+005,-1.58673731478688e+001,-7.35164191442293e+000

3.83193185478053e+005,-1.58681001540789e+001,-7.45201145692587e+000

3.88542363006410e+005,-1.58688386846137e+001,-7.55372936806018e+000

3.93966212270369e+005,-1.58695888224752e+001,-7.65681400835932e+000

3.99465775648511e+005,-1.58703506513813e+001,-7.76128402397602e+000

4.05042110070485e+005,-1.58711242560383e+001,-7.86715835174674e+000

4.10696287220124e+005,-1.58719097224315e+001,-7.97445622427043e+000

4.16429393741414e+005,-1.58727071381333e+001,-8.08319717499654e+000

4.22242531447321e+005,-1.58735165926298e+001,-8.19340104331546e+000

4.28136817531551e+005,-1.58743381776643e+001,-8.30508797964824e+000

4.34113384783250e+005,-1.58751719875985e+001,-8.41827845052745e+000

4.40173381804713e+005,-1.58760181197917e+001,-8.53299324366576e+000

4.46317973232124e+005,-1.58768766749956e+001,-8.64925347300686e+000

4.52548339959385e+005,-1.58777477577675e+001,-8.76708058375118e+000

4.58865679365059e+005,-1.58786314768979e+001,-8.88649635735607e+000

4.65271205542494e+005,-1.58795279458555e+001,-9.00752291650003e+000

4.71766149533147e+005,-1.58804372832463e+001,-9.13018273001135e+000

4.78351759563174e+005,-1.58813596132886e+001,-9.25449861775356e+000

4.85029301283321e+005,-1.58822950663007e+001,-9.38049375546567e+000

4.91800058012158e+005,-1.58832437792034e+001,-9.50819167955206e+000

4.98665330982714e+005,-1.58842058960343e+001,-9.63761629181949e+000

5.05626439592555e+005,-1.58851815684749e+001,-9.76879186415795e+000

5.12684721657352e+005,-1.58861709563890e+001,-9.90174304316274e+000

5.19841533667984e+005,-1.58871742283706e+001,-1.00364948546951e+001

5.27098251051240e+005,-1.58881915623030e+001,-1.01730727083797e+001

5.34456268434150e+005,-1.58892231459262e+001,-1.03115024020384e+001

5.41916999912011e+005,-1.58902691774118e+001,-1.04518101260578e+001

