Freq.,VOut,OutRef

1.00000000000000e+004,-2.79937075478297e+001,-3.65947955086471e-002

1.01395947979003e+004,-2.79937081439217e+001,-3.71055660690704e-002

1.02811382665607e+004,-2.79937087567597e+001,-3.76234635928366e-002

1.04246576084112e+004,-2.79937093868141e+001,-3.81485874329213e-002

1.05701804056138e+004,-2.79937100345683e+001,-3.86810383261331e-002

1.07177346253629e+004,-2.79937107005188e+001,-3.92209184122521e-002

1.08673486252606e+004,-2.79937113851764e+001,-3.97683312479618e-002

1.10190511587661e+004,-2.79937120890666e+001,-4.03233818265803e-002

1.11728713807222e+004,-2.79937128127286e+001,-4.08861766075797e-002

1.13288388529580e+004,-2.79937135567176e+001,-4.14568235240934e-002

1.14869835499703e+004,-2.79937143216037e+001,-4.20354320117555e-002

1.16473358646846e+004,-2.79937151079739e+001,-4.26221130220593e-002

1.18099266142953e+004,-2.79937159164308e+001,-4.32169790505985e-002

1.19747870461893e+004,-2.79937167475939e+001,-4.38201441568343e-002

1.21419488439505e+004,-2.79937176021003e+001,-4.44317239820206e-002

1.23114441334492e+004,-2.79937184806054e+001,-4.50518357693280e-002

1.24833054890161e+004,-2.79937193837823e+001,-4.56805983936039e-002

1.26575659397028e+004,-2.79937203123228e+001,-4.63181323815083e-002

1.28342589756290e+004,-2.79937212669382e+001,-4.69645599282845e-002

1.30134185544193e+004,-2.79937222483607e+001,-4.76200049221498e-002

1.31950791077289e+004,-2.79937232573415e+001,-4.82845929758192e-002

1.33792755478611e+004,-2.79937242946538e+001,-4.89584514396884e-002

1.35660432744767e+004,-2.79937253610916e+001,-4.96417094345825e-002

1.37554181813974e+004,-2.79937264574722e+001,-5.03344978654281e-002

1.39474366635040e+004,-2.79937275846351e+001,-5.10369494547930e-002

1.41421356237309e+004,-2.79937287434432e+001,-5.17491987657282e-002

1.43395524801583e+004,-2.79937299347836e+001,-5.24713822239693e-002

1.45397251732031e+004,-2.79937311595688e+001,-5.32036381430483e-002

1.47426921729110e+004,-2.79937324187354e+001,-5.39461067588254e-002

1.49484924863494e+004,-2.79937337132478e+001,-5.46989302406027e-002

1.51571656651040e+004,-2.79937350440966e+001,-5.54622527301911e-002

1.53687518128801e+004,-2.79937364122995e+001,-5.62362203666404e-002

1.55832915932100e+004,-2.79937378189036e+001,-5.70209813055473e-002

1.58008262372675e+004,-2.79937392649850e+001,-5.78166857537356e-002

1.60213975517924e+004,-2.79937407516494e+001,-5.86234859982378e-002

1.62450479271247e+004,-2.79937422800339e+001,-5.94415364282942e-002

1.64718203453514e+004,-2.79937438513066e+001,-6.02709935699636e-002

1.67017583885674e+004,-2.79937454666690e+001,-6.11120161099359e-002

1.69349062472505e+004,-2.79937471273563e+001,-6.19647649244500e-002

1.71713087287550e+004,-2.79937488346370e+001,-6.28294031187835e-002

1.74110112659224e+004,-2.79937505898156e+001,-6.37060960453567e-002

1.76540599258131e+004,-2.79937523942334e+001,-6.45950113378829e-002

1.79005014185594e+004,-2.79937542492681e+001,-6.54963189476480e-002

1.81503831063432e+004,-2.79937561563371e+001,-6.64101911623650e-002

1.84037530124975e+004,-2.79937581168964e+001,-6.73368026511299e-002

1.86606598307361e+004,-2.79937601324423e+001,-6.82763304917001e-002

1.89211529345119e+004,-2.79937622045131e+001,-6.92289541988619e-002

1.91852823865052e+004,-2.79937643346909e+001,-7.01948557562163e-002

1.94530989482457e+004,-2.79937665245999e+001,-7.11742196617940e-002

1.97246540898671e+004,-2.79937687759110e+001,-7.21672329457721e-002

1.99999999999999e+004,-2.79937710903412e+001,-7.31740852136498e-002

2.02791895958005e+004,-2.79937734696547e+001,-7.41949686796380e-002

2.05622765331213e+004,-2.79937759156653e+001,-7.52300781980751e-002

2.08493152168224e+004,-2.79937784302371e+001,-7.62796113017861e-002

2.11403608112276e+004,-2.79937810152861e+001,-7.73437682342244e-002

2.14354692507258e+004,-2.79937836727809e+001,-7.84227519918615e-002

2.17346972505211e+004,-2.79937864047458e+001,-7.95167683509372e-002

2.20381023175322e+004,-2.79937892132601e+001,-8.06260259164728e-002

2.23457427614443e+004,-2.79937921004614e+001,-8.17507361478123e-002

2.26576777059159e+004,-2.79937950685468e+001,-8.28911134018375e-002

2.29739670999406e+004,-2.79937981197736e+001,-8.40473749728556e-002

2.32946717293690e+004,-2.79938012564621e+001,-8.52197411288985e-002

2.36198532285905e+004,-2.79938044809969e+001,-8.64084351482375e-002

2.39495740923785e+004,-2.79938077958285e+001,-8.76136833631998e-002

2.42838976879009e+004,-2.79938112034750e+001,-8.88357151985739e-002

2.46228882668982e+004,-2.79938147065244e+001,-9.00747632119708e-002

2.49666109780322e+004,-2.79938183076364e+001,-9.13310631314545e-002

2.53151318794055e+004,-2.79938220095435e+001,-9.26048539045414e-002

2.56685179512580e+004,-2.79938258150542e+001,-9.38963777321218e-002

2.60268371088386e+004,-2.79938297270548e+001,-9.52058801114175e-002

2.63901582154578e+004,-2.79938337485106e+001,-9.65336098845160e-002

2.67585510957221e+004,-2.79938378824690e+001,-9.78798192755099e-002

2.71320865489533e+004,-2.79938421320610e+001,-9.92447639381250e-002

2.75108363627948e+004,-2.79938465005047e+001,-1.00628702992004e-001

2.78948733270080e+004,-2.79938509911056e+001,-1.02031899080380e-001

2.82842712474618e+004,-2.79938556072612e+001,-1.03454618401568e-001

2.86791049603164e+004,-2.79938603524617e+001,-1.04897130761763e-001

2.90794503464061e+004,-2.79938652302937e+001,-1.06359709618738e-001

2.94853843458219e+004,-2.79938702444417e+001,-1.07842632129070e-001

2.98969849726987e+004,-2.79938753986921e+001,-1.09346179190505e-001

3.03143313302078e+004,-2.79938806969341e+001,-1.10870635497708e-001

3.07375036257601e+004,-2.79938861431643e+001,-1.12416289581564e-001

3.11665831864199e+004,-2.79938917414882e+001,-1.13983433860786e-001

3.16016524745350e+004,-2.79938974961244e+001,-1.15572364686987e-001

3.20427951035848e+004,-2.79939034114058e+001,-1.17183382401110e-001

3.24900958542493e+004,-2.79939094917841e+001,-1.18816791375686e-001

3.29436406907028e+004,-2.79939157418329e+001,-1.20472900064136e-001

3.34035167771346e+004,-2.79939221662499e+001,-1.22152021058218e-001

3.38698124945009e+004,-2.79939287698610e+001,-1.23854471131511e-001

3.43426174575100e+004,-2.79939355576239e+001,-1.25580571291028e-001

3.48220225318448e+004,-2.79939425346303e+001,-1.27330646833862e-001

3.53081198516260e+004,-2.79939497061110e+001,-1.29105027393313e-001

3.58010028371187e+004,-2.79939570774383e+001,-1.30904046993931e-001

3.63007662126863e+004,-2.79939646541307e+001,-1.32728044102233e-001

3.68075060249948e+004,-2.79939724418555e+001,-1.34577361682695e-001

3.73213196614721e+004,-2.79939804464338e+001,-1.36452347248769e-001

3.78423058690237e+004,-2.79939886738440e+001,-1.38353352915773e-001

3.83705647730104e+004,-2.79939971302259e+001,-1.40280735457521e-001

3.89061978964912e+004,-2.79940058218847e+001,-1.42234856359119e-001

3.94493081797342e+004,-2.79940147552958e+001,-1.44216081870881e-001

3.99999999999998e+004,-2.79940239371084e+001,-1.46224783065791e-001

4.05583791916010e+004,-2.79940333741505e+001,-1.48261335893937e-001

4.11245530662425e+004,-2.79940430734335e+001,-1.50326121236417e-001

4.16986304336447e+004,-2.79940530421563e+001,-1.52419524964069e-001

4.22807216224550e+004,-2.79940632877109e+001,-1.54541937989712e-001

4.28709385014515e+004,-2.79940738176863e+001,-1.56693756330746e-001

4.34693945010421e+004,-2.79940846398745e+001,-1.58875381159307e-001

4.40762046350642e+004,-2.79940957622745e+001,-1.61087218864799e-001

4.46914855228886e+004,-2.79941071930987e+001,-1.63329681105206e-001

4.53153554118317e+004,-2.79941189407772e+001,-1.65603184869887e-001

4.59479341998812e+004,-2.79941310139638e+001,-1.67908152532637e-001

4.65893434587380e+004,-2.79941434215409e+001,-1.70245011914463e-001

4.72397064571810e+004,-2.79941561726260e+001,-1.72614196335303e-001

4.78991481847569e+004,-2.79941692765772e+001,-1.75016144674431e-001

4.85677953758016e+004,-2.79941827429984e+001,-1.77451301430824e-001

4.92457765337964e+004,-2.79941965817461e+001,-1.79920116777169e-001

4.99332219560642e+004,-2.79942108029353e+001,-1.82423046618694e-001

5.06302637588109e+004,-2.79942254169452e+001,-1.84960552654770e-001

5.13370359025159e+004,-2.79942404344268e+001,-1.87533102429668e-001

5.20536742176771e+004,-2.79942558663081e+001,-1.90141169396288e-001

5.27803164309155e+004,-2.79942717238009e+001,-1.92785232973686e-001

5.35171021914442e+004,-2.79942880184086e+001,-1.95465778598569e-001

5.42641730979066e+004,-2.79943047619313e+001,-1.98183297792237e-001

5.50216727255895e+004,-2.79943219664743e+001,-2.00938288207938e-001

5.57897466540159e+004,-2.79943396444540e+001,-2.03731253695959e-001

5.65685424949235e+004,-2.79943578086063e+001,-2.06562704353265e-001

5.73582099206328e+004,-2.79943764719926e+001,-2.09433156585077e-001

5.81589006928121e+004,-2.79943956480083e+001,-2.12343133157947e-001

5.89707686916437e+004,-2.79944153503893e+001,-2.15293163258009e-001

5.97939699453972e+004,-2.79944355932206e+001,-2.18283782542018e-001

6.06286626604156e+004,-2.79944563909439e+001,-2.21315533194284e-001

6.14750072515201e+004,-2.79944777583646e+001,-2.24388963982659e-001

6.23331663728396e+004,-2.79944997106609e+001,-2.27504630307371e-001

6.32033049490698e+004,-2.79945222633913e+001,-2.30663094256042e-001

6.40855902071694e+004,-2.79945454325026e+001,-2.33864924658854e-001

6.49801917084985e+004,-2.79945692343387e+001,-2.37110697133686e-001

6.58872813814055e+004,-2.79945936856487e+001,-2.40400994140771e-001

6.68070335542691e+004,-2.79946188035953e+001,-2.43736405031574e-001

6.77396249890018e+004,-2.79946446057633e+001,-2.47117526096869e-001

6.86852349150199e+004,-2.79946711101685e+001,-2.50544960615816e-001

6.96440450636895e+004,-2.79946983352660e+001,-2.54019318899664e-001

7.06162397032520e+004,-2.79947262999593e+001,-2.57541218340438e-001

7.16020056742374e+004,-2.79947550236088e+001,-2.61111283454941e-001

7.26015324253724e+004,-2.79947845260411e+001,-2.64730145923822e-001

7.36150120499896e+004,-2.79948148275575e+001,-2.68398444639445e-001

7.46426393229441e+004,-2.79948459489431e+001,-2.72116825741505e-001

7.56846117380472e+004,-2.79948779114756e+001,-2.75885942660337e-001

7.67411295460207e+004,-2.79949107369346e+001,-2.79706456148840e-001

7.78123957929823e+004,-2.79949444476105e+001,-2.83579034322945e-001

7.88986163594682e+004,-2.79949790663132e+001,-2.87504352694340e-001

7.99999999999995e+004,-2.79950146163814e+001,-2.91483094203367e-001

8.11167583832018e+004,-2.79950511216912e+001,-2.95515949248057e-001

8.22491061324848e+004,-2.79950886066656e+001,-2.99603615714131e-001

8.33972608672892e+004,-2.79951270962822e+001,-3.03746799003601e-001

8.45614432449099e+004,-2.79951666160832e+001,-3.07946212055966e-001

8.57418770029029e+004,-2.79952071921830e+001,-3.12202575374369e-001

8.69387890020841e+004,-2.79952488512777e+001,-3.16516617042532e-001

8.81524092701283e+004,-2.79952916206525e+001,-3.20889072747154e-001

8.93829710457770e+004,-2.79953355281904e+001,-3.25320685791534e-001

9.06307108236633e+004,-2.79953806023804e+001,-3.29812207109614e-001

9.18958683997622e+004,-2.79954268723252e+001,-3.34364395276806e-001

9.31786869174758e+004,-2.79954743677489e+001,-3.38978016518770e-001

9.44794129143618e+004,-2.79955231190041e+001,-3.43653844719213e-001

9.57982963695136e+004,-2.79955731570794e+001,-3.48392661420579e-001

9.71355907516031e+004,-2.79956245136060e+001,-3.53195255827577e-001

9.84915530675926e+004,-2.79956772208641e+001,-3.58062424802412e-001

9.98664439121282e+004,-2.79957313117894e+001,-3.62994972862037e-001

1.01260527517622e+005,-2.79957868199784e+001,-3.67993712169950e-001

1.02674071805032e+005,-2.79958437796937e+001,-3.73059462526631e-001

1.04107348435354e+005,-2.79959022258690e+001,-3.78193051354011e-001

1.05560632861831e+005,-2.79959621941135e+001,-3.83395313680459e-001

1.07034204382888e+005,-2.79960237207154e+001,-3.88667092121312e-001

1.08528346195813e+005,-2.79960868426453e+001,-3.94009236857944e-001

1.10043345451179e+005,-2.79961515975584e+001,-3.99422605609468e-001

1.11579493308032e+005,-2.79962180237972e+001,-4.04908063606662e-001

1.13137084989847e+005,-2.79962861603918e+001,-4.10466483560300e-001

1.14716419841265e+005,-2.79963560470607e+001,-4.16098745627629e-001

1.16317801385624e+005,-2.79964277242106e+001,-4.21805737373607e-001

1.17941537383287e+005,-2.79965012329346e+001,-4.27588353733426e-001

1.19587939890794e+005,-2.79965766150108e+001,-4.33447496966568e-001

1.21257325320831e+005,-2.79966539128987e+001,-4.39384076614549e-001

1.22950014503040e+005,-2.79967331697350e+001,-4.45399009451161e-001

1.24666332745679e+005,-2.79968144293287e+001,-4.51493219433073e-001

1.26406609898139e+005,-2.79968977361542e+001,-4.57667637646522e-001

1.28171180414339e+005,-2.79969831353444e+001,-4.63923202251155e-001

1.29960383416997e+005,-2.79970706726816e+001,-4.70260858424229e-001

1.31774562762811e+005,-2.79971603945873e+001,-4.76681558300801e-001

1.33614067108538e+005,-2.79972523481105e+001,-4.83186260914321e-001

1.35479249978003e+005,-2.79973465809152e+001,-4.89775932132544e-001

1.37370469830040e+005,-2.79974431412654e+001,-4.96451544596521e-001

1.39288090127379e+005,-2.79975420780097e+001,-5.03214077653501e-001

1.41232479406504e+005,-2.79976434405624e+001,-5.10064517296531e-001

1.43204011348474e+005,-2.79977472788854e+001,-5.17003856095317e-001

1.45203064850745e+005,-2.79978536434660e+001,-5.24033093133471e-001

1.47230024099979e+005,-2.79979625852941e+001,-5.31153233945264e-001

1.49285278645888e+005,-2.79980741558372e+001,-5.38365290451060e-001

1.51369223476094e+005,-2.79981884070132e+001,-5.45670280894830e-001

1.53482259092041e+005,-2.79983053911613e+001,-5.53069229788970e-001

1.55624791585964e+005,-2.79984251610111e+001,-5.60563167850573e-001

1.57797232718936e+005,-2.79985477696485e+001,-5.68153131953171e-001

1.59999999999999e+005,-2.79986732704804e+001,-5.75840165074695e-001

1.62233516766403e+005,-2.79988017171962e+001,-5.83625316251398e-001

1.64498212264969e+005,-2.79989331637284e+001,-5.91509640535936e-001

1.66794521734578e+005,-2.79990676642080e+001,-5.99494198966840e-001

1.69122886489819e+005,-2.79992052729206e+001,-6.07580058535350e-001

1.71483754005805e+005,-2.79993460442573e+001,-6.15768292169793e-001

1.73877578004168e+005,-2.79994900326647e+001,-6.24059978719486e-001

1.76304818540256e+005,-2.79996372925916e+001,-6.32456202954135e-001

1.78765942091554e+005,-2.79997878784323e+001,-6.40958055571222e-001

1.81261421647326e+005,-2.79999418444686e+001,-6.49566633215028e-001

1.83791736799524e+005,-2.80000992448084e+001,-6.58283038505593e-001

1.86357373834951e+005,-2.80002601333204e+001,-6.67108380086955e-001

1.88958825828723e+005,-2.80004245635683e+001,-6.76043772682979e-001

1.91596592739027e+005,-2.80005925887400e+001,-6.85090337174474e-001

1.94271181503206e+005,-2.80007642615749e+001,-6.94249200691220e-001

1.96983106135185e+005,-2.80009396342890e+001,-7.03521496720243e-001

1.99732887824256e+005,-2.80011187584962e+001,-7.12908365238026e-001

2.02521055035243e+005,-2.80013016851270e+001,-7.22410952859963e-001

2.05348143610063e+005,-2.80014884643453e+001,-7.32030413012737e-001

2.08214696870707e+005,-2.80016791454614e+001,-7.41767906133848e-001

2.11121265723661e+005,-2.80018737768436e+001,-7.51624599889168e-001

2.14068408765776e+005,-2.80020724058260e+001,-7.61601669424060e-001

2.17056692391625e+005,-2.80022750786149e+001,-7.71700297639243e-001

2.20086690902357e+005,-2.80024818401926e+001,-7.81921675495272e-001

2.23158986616063e+005,-2.80026927342185e+001,-7.92267002349717e-001

2.26274169979693e+005,-2.80029078029290e+001,-8.02737486325772e-001

2.29432839682530e+005,-2.80031270870349e+001,-8.13334344714199e-001

2.32635602771247e+005,-2.80033506256168e+001,-8.24058804413311e-001

2.35883074766574e+005,-2.80035784560196e+001,-8.34912102401312e-001

2.39175879781588e+005,-2.80038106137454e+001,-8.45895486250434e-001

2.42514650641661e+005,-2.80040471323451e+001,-8.57010214677633e-001

2.45900029006080e+005,-2.80042880433090e+001,-8.68257558139134e-001

2.49332665491357e+005,-2.80045333759571e+001,-8.79638799465393e-001

2.52813219796278e+005,-2.80047831573285e+001,-8.91155234538106e-001

2.56342360828676e+005,-2.80050374120713e+001,-9.02808173014813e-001

2.59920766833993e+005,-2.80052961623323e+001,-9.14598939095160e-001

2.63549125525621e+005,-2.80055594276470e+001,-9.26528872337276e-001

2.67228134217075e+005,-2.80058272248312e+001,-9.38599328520293e-001

2.70958499956006e+005,-2.80060995678727e+001,-9.50811680552547e-001

2.74740939660078e+005,-2.80063764678261e+001,-9.63167319432142e-001

2.78576180254757e+005,-2.80066579327076e+001,-9.75667655255399e-001

2.82464958813007e+005,-2.80069439673938e+001,-9.88314118273870e-001

2.86408022696948e+005,-2.80072345735229e+001,-1.00110816000244e+000

2.90406129701488e+005,-2.80075297493983e+001,-1.01405125437722e+000

2.94460048199957e+005,-2.80078294898963e+001,-1.02714489896292e+000

2.98570557291775e+005,-2.80081337863784e+001,-1.04039061621074e+000

3.02738446952187e+005,-2.80084426266069e+001,-1.05378995476371e+000

3.06964518184081e+005,-2.80087559946668e+001,-1.06734449081083e+000

3.11249583171928e+005,-2.80090738708918e+001,-1.08105582949012e+000

3.15594465437872e+005,-2.80093962317965e+001,-1.09492560633818e+000

3.19999999999997e+005,-2.80097230500159e+001,-1.10895548878104e+000

3.24467033532806e+005,-2.80100542942498e+001,-1.12314717767575e+000

3.28996424529938e+005,-2.80103899292161e+001,-1.13750240888650e+000

3.33589043469155e+005,-2.80107299156104e+001,-1.15202295490625e+000

3.38245772979638e+005,-2.80110742100743e+001,-1.16671062651402e+000

3.42967508011610e+005,-2.80114227651721e+001,-1.18156727446782e+000

3.47755156008335e+005,-2.80117755293758e+001,-1.19659479123069e+000

3.52609637080511e+005,-2.80121324470597e+001,-1.21179511272809e+000

3.57531884183106e+005,-2.80124934585041e+001,-1.22717022013090e+000

3.62522843294651e+005,-2.80128584999096e+001,-1.24272214166371e+000

3.67583473599047e+005,-2.80132275034204e+001,-1.25845295443208e+000

3.72714747669902e+005,-2.80136003971586e+001,-1.27436478626922e+000

3.77917651657445e+005,-2.80139771052691e+001,-1.29045981759486e+000

3.83193185478053e+005,-2.80143575479753e+001,-1.30674028328266e+000

3.88542363006410e+005,-2.80147416416449e+001,-1.32320847453630e+000

3.93966212270369e+005,-2.80151292988680e+001,-1.33986674076294e+000

3.99465775648511e+005,-2.80155204285452e+001,-1.35671749144737e+000

4.05042110070485e+005,-2.80159149359872e+001,-1.37376319801782e+000

4.10696287220124e+005,-2.80163127230262e+001,-1.39100639569961e+000

4.16429393741414e+005,-2.80167136881365e+001,-1.40844968535428e+000

4.22242531447321e+005,-2.80171177265682e+001,-1.42609573529872e+000

4.28136817531551e+005,-2.80175247304897e+001,-1.44394728309862e+000

4.34113384783250e+005,-2.80179345891420e+001,-1.46200713733491e+000

4.40173381804713e+005,-2.80183471890028e+001,-1.48027817933578e+000

4.46317973232124e+005,-2.80187624139603e+001,-1.49876336487153e+000

4.52548339959385e+005,-2.80191801454973e+001,-1.51746572580948e+000

4.58865679365059e+005,-2.80196002628834e+001,-1.53638837172338e+000

4.65271205542494e+005,-2.80200226433773e+001,-1.55553449145256e+000

4.71766149533147e+005,-2.80204471624359e+001,-1.57490735461097e+000

4.78351759563174e+005,-2.80208736939322e+001,-1.59451031303957e+000

4.85029301283321e+005,-2.80213021103803e+001,-1.61434680219935e+000

4.91800058012158e+005,-2.80217322831657e+001,-1.63442034250401e+000

4.98665330982714e+005,-2.80221640827836e+001,-1.65473454058839e+000

5.05626439592555e+005,-2.80225973790802e+001,-1.67529309050874e+000

5.12684721657352e+005,-2.80230320415003e+001,-1.69609977487930e+000

5.19841533667984e+005,-2.80234679393376e+001,-1.71715846593376e+000

5.27098251051240e+005,-2.80239049419889e+001,-1.73847312651900e+000

5.34456268434150e+005,-2.80243429192099e+001,-1.76004781101649e+000

5.41916999912011e+005,-2.80247817413733e+001,-1.78188666618976e+000

