Freq.,VOut,OutRef

1.00000000000000e+004,-2.38317319869845e+001,-3.76569504719955e-001

1.01395947979003e+004,-2.38317347831387e+001,-3.81826052361042e-001

1.02811382665607e+004,-2.38317376578795e+001,-3.87155971594930e-001

1.04246576084112e+004,-2.38317406134152e+001,-3.92560286349298e-001

1.05701804056138e+004,-2.38317436520156e+001,-3.98040034835213e-001

1.07177346253629e+004,-2.38317467760146e+001,-4.03596269741111e-001

1.08673486252606e+004,-2.38317499878113e+001,-4.09230058438242e-001

1.10190511587661e+004,-2.38317532898726e+001,-4.14942483181169e-001

1.11728713807222e+004,-2.38317566847341e+001,-4.20734641320147e-001

1.13288388529580e+004,-2.38317601750031e+001,-4.26607645504600e-001

1.14869835499703e+004,-2.38317637633597e+001,-4.32562623903299e-001

1.16473358646846e+004,-2.38317674525595e+001,-4.38600720413869e-001

1.18099266142953e+004,-2.38317712454353e+001,-4.44723094886019e-001

1.19747870461893e+004,-2.38317751448996e+001,-4.50930923340481e-001

1.21419488439505e+004,-2.38317791539464e+001,-4.57225398196580e-001

1.23114441334492e+004,-2.38317832756538e+001,-4.63607728498611e-001

1.24833054890161e+004,-2.38317875131862e+001,-4.70079140147909e-001

1.26575659397028e+004,-2.38317918697973e+001,-4.76640876135754e-001

1.28342589756290e+004,-2.38317963488315e+001,-4.83294196783175e-001

1.30134185544193e+004,-2.38318009537274e+001,-4.90040379980478e-001

1.31950791077289e+004,-2.38318056880198e+001,-4.96880721432867e-001

1.33792755478611e+004,-2.38318105553431e+001,-5.03816534905314e-001

1.35660432744767e+004,-2.38318155594331e+001,-5.10849152477305e-001

1.37554181813974e+004,-2.38318207041310e+001,-5.17979924793742e-001

1.39474366635040e+004,-2.38318259933854e+001,-5.25210221325605e-001

1.41421356237309e+004,-2.38318314312556e+001,-5.32541430630956e-001

1.43395524801583e+004,-2.38318370219150e+001,-5.39974960618714e-001

1.45397251732031e+004,-2.38318427696540e+001,-5.47512238818741e-001

1.47426921729110e+004,-2.38318486788834e+001,-5.55154712653178e-001

1.49484924863494e+004,-2.38318547541373e+001,-5.62903849716110e-001

1.51571656651040e+004,-2.38318610000773e+001,-5.70761138048228e-001

1.53687518128801e+004,-2.38318674214958e+001,-5.78728086424300e-001

1.55832915932100e+004,-2.38318740233192e+001,-5.86806224640710e-001

1.58008262372675e+004,-2.38318808106123e+001,-5.94997103806717e-001

1.60213975517924e+004,-2.38318877885819e+001,-6.03302296638270e-001

1.62450479271247e+004,-2.38318949625805e+001,-6.11723397761903e-001

1.64718203453514e+004,-2.38319023381108e+001,-6.20262024015144e-001

1.67017583885674e+004,-2.38319099208297e+001,-6.28919814755607e-001

1.69349062472505e+004,-2.38319177165528e+001,-6.37698432173392e-001

1.71713087287550e+004,-2.38319257312583e+001,-6.46599561607501e-001

1.74110112659224e+004,-2.38319339710921e+001,-6.55624911867867e-001

1.76540599258131e+004,-2.38319424423723e+001,-6.64776215557400e-001

1.79005014185594e+004,-2.38319511515941e+001,-6.74055229405741e-001

1.81503831063432e+004,-2.38319601054343e+001,-6.83463734599952e-001

1.84037530124975e+004,-2.38319693107571e+001,-6.93003537125637e-001

1.86606598307361e+004,-2.38319787746185e+001,-7.02676468109287e-001

1.89211529345119e+004,-2.38319885042726e+001,-7.12484384165146e-001

1.91852823865052e+004,-2.38319985071761e+001,-7.22429167751066e-001

1.94530989482457e+004,-2.38320087909948e+001,-7.32512727523135e-001

1.97246540898671e+004,-2.38320193636089e+001,-7.42736998698645e-001

1.99999999999999e+004,-2.38320302331193e+001,-7.53103943424829e-001

2.02791895958005e+004,-2.38320414078534e+001,-7.63615551149723e-001

2.05622765331213e+004,-2.38320528963719e+001,-7.74273838999924e-001

2.08493152168224e+004,-2.38320647074747e+001,-7.85080852163256e-001

2.11403608112276e+004,-2.38320768502081e+001,-7.96038664277050e-001

2.14354692507258e+004,-2.38320893338713e+001,-8.07149377818897e-001

2.17346972505211e+004,-2.38321021680236e+001,-8.18415124507101e-001

2.20381023175322e+004,-2.38321153624916e+001,-8.29838065702902e-001

2.23457427614443e+004,-2.38321289273768e+001,-8.41420392819569e-001

2.26576777059159e+004,-2.38321428730627e+001,-8.53164327738426e-001

2.29739670999406e+004,-2.38321572102233e+001,-8.65072123226987e-001

2.32946717293690e+004,-2.38321719498308e+001,-8.77146063364565e-001

2.36198532285905e+004,-2.38321871031640e+001,-8.89388463975917e-001

2.39495740923785e+004,-2.38322026818167e+001,-9.01801673066268e-001

2.42838976879009e+004,-2.38322186977065e+001,-9.14388071265861e-001

2.46228882668982e+004,-2.38322351630839e+001,-9.27150072278050e-001

2.49666109780322e+004,-2.38322520905412e+001,-9.40090123334507e-001

2.53151318794055e+004,-2.38322694930226e+001,-9.53210705656131e-001

2.56685179512580e+004,-2.38322873838332e+001,-9.66514334921556e-001

2.60268371088386e+004,-2.38323057766494e+001,-9.80003561738378e-001

2.63901582154578e+004,-2.38323246855293e+001,-9.93680972124640e-001

2.67585510957221e+004,-2.38323441249230e+001,-1.00754918799475e+000

2.71320865489533e+004,-2.38323641096833e+001,-1.02161086765189e+000

2.75108363627948e+004,-2.38323846550776e+001,-1.03586870628578e+000

2.78948733270080e+004,-2.38324057767984e+001,-1.05032543648069e+000

2.82842712474618e+004,-2.38324274909754e+001,-1.06498382872640e+000

2.86791049603164e+004,-2.38324498141879e+001,-1.07984669193760e+000

2.90794503464061e+004,-2.38324727634770e+001,-1.09491687397910e+000

2.94853843458219e+004,-2.38324963563581e+001,-1.11019726220005e+000

2.98969849726987e+004,-2.38325206108341e+001,-1.12569078397299e+000

3.03143313302078e+004,-2.38325455454090e+001,-1.14140040724130e+000

3.07375036257601e+004,-2.38325711791017e+001,-1.15732914107167e+000

3.11665831864199e+004,-2.38325975314598e+001,-1.17348003621822e+000

3.16016524745350e+004,-2.38326246225747e+001,-1.18985618568763e+000

3.20427951035848e+004,-2.38326524730958e+001,-1.20646072531825e+000

3.24900958542493e+004,-2.38326811042467e+001,-1.22329683436198e+000

3.29436406907028e+004,-2.38327105378404e+001,-1.24036773607509e+000

3.34035167771346e+004,-2.38327407962955e+001,-1.25767669831724e+000

3.38698124945009e+004,-2.38327719026529e+001,-1.27522703415900e+000

3.43426174575100e+004,-2.38328038805930e+001,-1.29302210249360e+000

3.48220225318448e+004,-2.38328367544530e+001,-1.31106530866061e+000

3.53081198516260e+004,-2.38328705492447e+001,-1.32936010507616e+000

3.58010028371187e+004,-2.38329052906734e+001,-1.34790999186932e+000

3.63007662126863e+004,-2.38329410051566e+001,-1.36671851753036e+000

3.68075060249948e+004,-2.38329777198433e+001,-1.38578927956348e+000

3.73213196614721e+004,-2.38330154626341e+001,-1.40512592514984e+000

3.78423058690237e+004,-2.38330542622017e+001,-1.42473215181922e+000

3.83705647730104e+004,-2.38330941480117e+001,-1.44461170812929e+000

3.89061978964912e+004,-2.38331351503446e+001,-1.46476839435291e+000

3.94493081797342e+004,-2.38331773003174e+001,-1.48520606317543e+000

3.99999999999998e+004,-2.38332206299066e+001,-1.50592862039984e+000

4.05583791916010e+004,-2.38332651719717e+001,-1.52694002566146e+000

4.11245530662425e+004,-2.38333109602787e+001,-1.54824429314966e+000

4.16986304336447e+004,-2.38333580295246e+001,-1.56984549234116e+000

4.22807216224550e+004,-2.38334064153632e+001,-1.59174774874000e+000

4.28709385014515e+004,-2.38334561544303e+001,-1.61395524462813e+000

4.34693945010421e+004,-2.38335072843702e+001,-1.63647221982499e+000

4.40762046350642e+004,-2.38335598438635e+001,-1.65930297245472e+000

4.46914855228886e+004,-2.38336138726542e+001,-1.68245185972556e+000

4.53153554118317e+004,-2.38336694115787e+001,-1.70592329871588e+000

4.59479341998812e+004,-2.38337265025949e+001,-1.72972176717240e+000

4.65893434587380e+004,-2.38337851888128e+001,-1.75385180431449e+000

4.72397064571810e+004,-2.38338455145245e+001,-1.77831801165258e+000

4.78991481847569e+004,-2.38339075252364e+001,-1.80312505381154e+000

4.85677953758016e+004,-2.38339712677014e+001,-1.82827765936824e+000

4.92457765337964e+004,-2.38340367899522e+001,-1.85378062169505e+000

4.99332219560642e+004,-2.38341041413354e+001,-1.87963879981698e+000

5.06302637588109e+004,-2.38341733725461e+001,-1.90585711927583e+000

5.13370359025159e+004,-2.38342445356642e+001,-1.93244057300561e+000

5.20536742176771e+004,-2.38343176841907e+001,-1.95939422221869e+000

5.27803164309155e+004,-2.38343928730850e+001,-1.98672319730155e+000

5.35171021914442e+004,-2.38344701588044e+001,-2.01443269871984e+000

5.42641730979066e+004,-2.38345495993426e+001,-2.04252799793598e+000

5.50216727255895e+004,-2.38346312542705e+001,-2.07101443833503e+000

5.57897466540159e+004,-2.38347151847775e+001,-2.09989743616289e+000

5.65685424949235e+004,-2.38348014537141e+001,-2.12918248147268e+000

5.73582099206328e+004,-2.38348901256351e+001,-2.15887513908481e+000

5.81589006928121e+004,-2.38349812668444e+001,-2.18898104955378e+000

5.89707686916437e+004,-2.38350749454403e+001,-2.21950593014986e+000

5.97939699453972e+004,-2.38351712313620e+001,-2.25045557584856e+000

6.06286626604156e+004,-2.38352701964378e+001,-2.28183586033123e+000

6.14750072515201e+004,-2.38353719144337e+001,-2.31365273699782e+000

6.23331663728396e+004,-2.38354764611033e+001,-2.34591223998983e+000

6.32033049490698e+004,-2.38355839142393e+001,-2.37862048522295e+000

6.40855902071694e+004,-2.38356943537256e+001,-2.41178367143353e+000

6.49801917084985e+004,-2.38358078615912e+001,-2.44540808123193e+000

6.58872813814055e+004,-2.38359245220646e+001,-2.47950008217167e+000

6.68070335542691e+004,-2.38360444216304e+001,-2.51406612782502e+000

6.77396249890018e+004,-2.38361676490863e+001,-2.54911275887332e+000

6.86852349150199e+004,-2.38362942956018e+001,-2.58464660420647e+000

6.96440450636895e+004,-2.38364244547781e+001,-2.62067438203362e+000

7.06162397032520e+004,-2.38365582227097e+001,-2.65720290100643e+000

7.16020056742374e+004,-2.38366956980466e+001,-2.69423906135157e+000

7.26015324253724e+004,-2.38368369820588e+001,-2.73178985601515e+000

7.36150120499896e+004,-2.38369821787014e+001,-2.76986237181994e+000

7.46426393229441e+004,-2.38371313946814e+001,-2.80846379063144e+000

7.56846117380472e+004,-2.38372847395262e+001,-2.84760139053622e+000

7.67411295460207e+004,-2.38374423256533e+001,-2.88728254703209e+000

7.78123957929823e+004,-2.38376042684412e+001,-2.92751473422890e+000

7.88986163594682e+004,-2.38377706863023e+001,-2.96830552606002e+000

7.99999999999995e+004,-2.38379417007572e+001,-3.00966259750650e+000

8.11167583832018e+004,-2.38381174365100e+001,-3.05159372583203e+000

8.22491061324848e+004,-2.38382980215259e+001,-3.09410679182831e+000

8.33972608672892e+004,-2.38384835871100e+001,-3.13720978107274e+000

8.45614432449099e+004,-2.38386742679874e+001,-3.18091078519686e+000

8.57418770029029e+004,-2.38388702023852e+001,-3.22521800316691e+000

8.69387890020841e+004,-2.38390715321164e+001,-3.27013974257431e+000

8.81524092701283e+004,-2.38392784026646e+001,-3.31568442093844e+000

8.93829710457770e+004,-2.38394909632709e+001,-3.36186056702108e+000

9.06307108236633e+004,-2.38397093670224e+001,-3.40867682215073e+000

9.18958683997622e+004,-2.38399337709424e+001,-3.45614194155928e+000

9.31786869174758e+004,-2.38401643360815e+001,-3.50426479573084e+000

9.44794129143618e+004,-2.38404012276120e+001,-3.55305437175916e+000

9.57982963695136e+004,-2.38406446149215e+001,-3.60251977471988e+000

9.71355907516031e+004,-2.38408946717111e+001,-3.65267022905076e+000

9.84915530675926e+004,-2.38411515760925e+001,-3.70351507994629e+000

9.98664439121282e+004,-2.38414155106892e+001,-3.75506379476159e+000

1.01260527517622e+005,-2.38416866627371e+001,-3.80732596442860e+000

1.02674071805032e+005,-2.38419652241889e+001,-3.86031130488403e+000

1.04107348435354e+005,-2.38422513918187e+001,-3.91402965850768e+000

1.05560632861831e+005,-2.38425453673288e+001,-3.96849099557446e+000

1.07034204382888e+005,-2.38428473574584e+001,-4.02370541571482e+000

1.08528346195813e+005,-2.38431575740935e+001,-4.07968314939059e+000

1.10043345451179e+005,-2.38434762343791e+001,-4.13643455937997e+000

1.11579493308032e+005,-2.38438035608321e+001,-4.19397014227533e+000

1.13137084989847e+005,-2.38441397814571e+001,-4.25230052999308e+000

1.14716419841265e+005,-2.38444851298627e+001,-4.31143649129564e+000

1.16317801385624e+005,-2.38448398453802e+001,-4.37138893332575e+000

1.17941537383287e+005,-2.38452041731836e+001,-4.43216890315272e+000

1.19587939890794e+005,-2.38455783644110e+001,-4.49378758933246e+000

1.21257325320831e+005,-2.38459626762886e+001,-4.55625632347821e+000

1.22950014503040e+005,-2.38463573722547e+001,-4.61958658184792e+000

1.24666332745679e+005,-2.38467627220865e+001,-4.68378998694077e+000

1.26406609898139e+005,-2.38471790020282e+001,-4.74887830911016e+000

1.28171180414339e+005,-2.38476064949206e+001,-4.81486346818954e+000

1.29960383416997e+005,-2.38480454903316e+001,-4.88175753513281e+000

1.31774562762811e+005,-2.38484962846893e+001,-4.94957273366897e+000

1.33614067108538e+005,-2.38489591814159e+001,-5.01832144197158e+000

1.35479249978003e+005,-2.38494344910630e+001,-5.08801619434445e+000

1.37370469830040e+005,-2.38499225314488e+001,-5.15866968292229e+000

1.39288090127379e+005,-2.38504236277963e+001,-5.23029475938871e+000

1.41232479406504e+005,-2.38509381128735e+001,-5.30290443670974e+000

1.43204011348474e+005,-2.38514663271340e+001,-5.37651189088679e+000

1.45203064850745e+005,-2.38520086188604e+001,-5.45113046272541e+000

1.47230024099979e+005,-2.38525653443077e+001,-5.52677365962539e+000

1.49285278645888e+005,-2.38531368678490e+001,-5.60345515738844e+000

1.51369223476094e+005,-2.38537235621223e+001,-5.68118880204713e+000

1.53482259092041e+005,-2.38543258081788e+001,-5.75998861171496e+000

1.55624791585964e+005,-2.38549439956321e+001,-5.83986877845801e+000

1.57797232718936e+005,-2.38555785228098e+001,-5.92084367018995e+000

1.59999999999999e+005,-2.38562297969053e+001,-6.00292783259119e+000

1.62233516766403e+005,-2.38568982341321e+001,-6.08613599105219e+000

1.64498212264969e+005,-2.38575842598789e+001,-6.17048305264395e+000

1.66794521734578e+005,-2.38582883088665e+001,-6.25598410811492e+000

1.69122886489819e+005,-2.38590108253064e+001,-6.34265443391638e+000

1.71483754005805e+005,-2.38597522630605e+001,-6.43050949425859e+000

1.73877578004168e+005,-2.38605130858030e+001,-6.51956494319681e+000

1.76304818540256e+005,-2.38612937671840e+001,-6.60983662675006e+000

1.78765942091554e+005,-2.38620947909946e+001,-6.70134058505407e+000

1.81261421647326e+005,-2.38629166513343e+001,-6.79409305454987e+000

1.83791736799524e+005,-2.38637598527803e+001,-6.88811047020817e+000

1.86357373834951e+005,-2.38646249105593e+001,-6.98340946779387e+000

1.88958825828723e+005,-2.38655123507212e+001,-7.08000688616906e+000

1.91596592739027e+005,-2.38664227103156e+001,-7.17791976963979e+000

1.94271181503206e+005,-2.38673565375714e+001,-7.27716537034406e+000

1.96983106135185e+005,-2.38683143920784e+001,-7.37776115068772e+000

1.99732887824256e+005,-2.38692968449731e+001,-7.47972478582538e+000

2.02521055035243e+005,-2.38703044791272e+001,-7.58307416619208e+000

2.05348143610063e+005,-2.38713378893402e+001,-7.68782740008361e+000

2.08214696870707e+005,-2.38723976825356e+001,-7.79400281629178e+000

2.11121265723661e+005,-2.38734844779621e+001,-7.90161896679262e+000

2.14068408765776e+005,-2.38745989073987e+001,-8.01069462949109e+000

2.17056692391625e+005,-2.38757416153656e+001,-8.12124881102442e+000

2.20086690902357e+005,-2.38769132593402e+001,-8.23330074962446e+000

2.23158986616063e+005,-2.38781145099789e+001,-8.34686991804294e+000

2.26274169979693e+005,-2.38793460513459e+001,-8.46197602653795e+000

2.29432839682530e+005,-2.38806085811485e+001,-8.57863902592736e+000

2.32635602771247e+005,-2.38819028109796e+001,-8.69687911070757e+000

2.35883074766574e+005,-2.38832294665694e+001,-8.81671672223995e+000

2.39175879781588e+005,-2.38845892880444e+001,-8.93817255200661e+000

2.42514650641661e+005,-2.38859830301966e+001,-9.06126754493635e+000

2.45900029006080e+005,-2.38874114627625e+001,-9.18602290280207e+000

2.49332665491357e+005,-2.38888753707126e+001,-9.31246008768985e+000

2.52813219796278e+005,-2.38903755545530e+001,-9.44060082554085e+000

2.56342360828676e+005,-2.38919128306385e+001,-9.57046710976667e+000

2.59920766833993e+005,-2.38934880314993e+001,-9.70208120493751e+000

2.63549125525621e+005,-2.38951020061815e+001,-9.83546565054406e+000

2.67228134217075e+005,-2.38967556206025e+001,-9.97064326483158e+000

2.70958499956006e+005,-2.38984497579222e+001,-1.01076371487073e+001

2.74740939660078e+005,-2.39001853189304e+001,-1.02464706897184e+001

2.78576180254757e+005,-2.39019632224531e+001,-1.03871675660996e+001

2.82464958813007e+005,-2.39037844057757e+001,-1.05297517508903e+001

2.86408022696948e+005,-2.39056498250880e+001,-1.06742475161163e+001

2.90406129701488e+005,-2.39075604559478e+001,-1.08206794370369e+001

2.94460048199957e+005,-2.39095172937680e+001,-1.09690723964518e+001

2.98570557291775e+005,-2.39115213543256e+001,-1.11194515890654e+001

3.02738446952187e+005,-2.39135736742952e+001,-1.12718425259056e+001

3.06964518184081e+005,-2.39156753118071e+001,-1.14262710387915e+001

3.11249583171928e+005,-2.39178273470318e+001,-1.15827632848449e+001

3.15594465437872e+005,-2.39200308827918e+001,-1.17413457510420e+001

3.19999999999997e+005,-2.39222870452010e+001,-1.19020452587983e+001

3.24467033532806e+005,-2.39245969843348e+001,-1.20648889685793e+001

3.28996424529938e+005,-2.39269618749290e+001,-1.22299043845331e+001

3.33589043469155e+005,-2.39293829171111e+001,-1.23971193591330e+001

3.38245772979638e+005,-2.39318613371641e+001,-1.25665620978267e+001

3.42967508011610e+005,-2.39343983883228e+001,-1.27382611636800e+001

3.47755156008335e+005,-2.39369953516049e+001,-1.29122454820071e+001

3.52609637080511e+005,-2.39396535366777e+001,-1.30885443449781e+001

3.57531884183106e+005,-2.39423742827593e+001,-1.32671874161927e+001

3.62522843294651e+005,-2.39451589595580e+001,-1.34482047352100e+001

3.67583473599047e+005,-2.39480089682482e+001,-1.36316267220221e+001

3.72714747669902e+005,-2.39509257424842e+001,-1.38174841814608e+001

3.77917651657445e+005,-2.39539107494527e+001,-1.40058083075239e+001

3.83193185478053e+005,-2.39569654909644e+001,-1.41966306876099e+001

3.88542363006410e+005,-2.39600915045844e+001,-1.43899833066457e+001

3.93966212270369e+005,-2.39632903648023e+001,-1.45858985510961e+001

3.99465775648511e+005,-2.39665636842419e+001,-1.47844092128395e+001

4.05042110070485e+005,-2.39699131149112e+001,-1.49855484928960e+001

4.10696287220124e+005,-2.39733403494904e+001,-1.51893500049933e+001

4.16429393741414e+005,-2.39768471226619e+001,-1.53958477789563e+001

4.22242531447321e+005,-2.39804352124764e+001,-1.56050762639036e+001

4.28136817531551e+005,-2.39841064417609e+001,-1.58170703312380e+001

4.34113384783250e+005,-2.39878626795622e+001,-1.60318652774134e+001

4.40173381804713e+005,-2.39917058426298e+001,-1.62494968264654e+001

4.46317973232124e+005,-2.39956378969345e+001,-1.64700011322866e+001

4.52548339959385e+005,-2.39996608592235e+001,-1.66934147806357e+001

4.58865679365059e+005,-2.40037767986098e+001,-1.69197747908608e+001

4.65271205542494e+005,-2.40079878381953e+001,-1.71491186173254e+001

4.71766149533147e+005,-2.40122961567269e+001,-1.73814841505185e+001

4.78351759563174e+005,-2.40167039902825e+001,-1.76169097178389e+001

4.85029301283321e+005,-2.40212136339871e+001,-1.78554340840331e+001

4.91800058012158e+005,-2.40258274437565e+001,-1.80970964512792e+001

4.98665330982714e+005,-2.40305478380667e+001,-1.83419364588971e+001

5.05626439592555e+005,-2.40353772997476e+001,-1.85899941826755e+001

5.12684721657352e+005,-2.40403183777987e+001,-1.88413101338015e+001

5.19841533667984e+005,-2.40453736892249e+001,-1.90959252573801e+001

5.27098251051240e+005,-2.40505459208898e+001,-1.93538809305312e+001

5.34456268434150e+005,-2.40558378313846e+001,-1.96152189600540e+001

5.41916999912011e+005,-2.40612522529105e+001,-1.98799815796465e+001

