Freq.,VOut,OutRef

1.00000000000000e+004,-9.90750375672272e+000,-1.09640213154169e-001

1.01395947979003e+004,-9.90750404176131e+000,-1.11170689464695e-001

1.02811382665607e+004,-9.90750433480594e+000,-1.12722528560190e-001

1.04246576084112e+004,-9.90750463608155e+000,-1.14296028573531e-001

1.05701804056138e+004,-9.90750494581891e+000,-1.15891491797868e-001

1.07177346253629e+004,-9.90750526425557e+000,-1.17509224741678e-001

1.08673486252606e+004,-9.90750559163545e+000,-1.19149538189466e-001

1.10190511587661e+004,-9.90750592820956e+000,-1.20812747259448e-001

1.11728713807222e+004,-9.90750627423584e+000,-1.22499171464673e-001

1.13288388529580e+004,-9.90750662997957e+000,-1.24209134773744e-001

1.14869835499703e+004,-9.90750699571292e+000,-1.25942965677092e-001

1.16473358646846e+004,-9.90750737171639e+000,-1.27700997241513e-001

1.18099266142953e+004,-9.90750775827807e+000,-1.29483567179812e-001

1.19747870461893e+004,-9.90750815569389e+000,-1.31291017916094e-001

1.21419488439505e+004,-9.90750856426846e+000,-1.33123696646566e-001

1.23114441334492e+004,-9.90750898431433e+000,-1.34981955413032e-001

1.24833054890161e+004,-9.90750941615349e+000,-1.36866151160817e-001

1.26575659397028e+004,-9.90750986011632e+000,-1.38776645816676e-001

1.28342589756290e+004,-9.90751031654293e+000,-1.40713806350729e-001

1.30134185544193e+004,-9.90751078578237e+000,-1.42678004852338e-001

1.31950791077289e+004,-9.90751126819423e+000,-1.44669618594369e-001

1.33792755478611e+004,-9.90751176414749e+000,-1.46689030113355e-001

1.35660432744767e+004,-9.90751227402153e+000,-1.48736627277764e-001

1.37554181813974e+004,-9.90751279820669e+000,-1.50812803361339e-001

1.39474366635040e+004,-9.90751333710361e+000,-1.52917957123661e-001

1.41421356237309e+004,-9.90751389112502e+000,-1.55052492876755e-001

1.43395524801583e+004,-9.90751446069419e+000,-1.57216820575128e-001

1.45397251732031e+004,-9.90751504624674e+000,-1.59411355883179e-001

1.47426921729110e+004,-9.90751564823040e+000,-1.61636520259395e-001

1.49484924863494e+004,-9.90751626710539e+000,-1.63892741036258e-001

1.51571656651040e+004,-9.90751690334467e+000,-1.66180451501888e-001

1.53687518128801e+004,-9.90751755743441e+000,-1.68500090982756e-001

1.55832915932100e+004,-9.90751822987446e+000,-1.70852104926762e-001

1.58008262372675e+004,-9.90751892117835e+000,-1.73236944990049e-001

1.60213975517924e+004,-9.90751963187418e+000,-1.75655069120499e-001

1.62450479271247e+004,-9.90752036250488e+000,-1.78106941646009e-001

1.64718203453514e+004,-9.90752111362784e+000,-1.80593033367591e-001

1.67017583885674e+004,-9.90752188581686e+000,-1.83113821639663e-001

1.69349062472505e+004,-9.90752267966116e+000,-1.85669790469814e-001

1.71713087287550e+004,-9.90752349576617e+000,-1.88261430609700e-001

1.74110112659224e+004,-9.90752433475497e+000,-1.90889239640536e-001

1.76540599258131e+004,-9.90752519726709e+000,-1.93553722080420e-001

1.79005014185594e+004,-9.90752608396050e+000,-1.96255389469333e-001

1.81503831063432e+004,-9.90752699551099e+000,-1.98994760474575e-001

1.84037530124975e+004,-9.90752793261347e+000,-2.01772360983616e-001

1.86606598307361e+004,-9.90752889598178e+000,-2.04588724209260e-001

1.89211529345119e+004,-9.90752988635028e+000,-2.07444390784379e-001

1.91852823865052e+004,-9.90753090447297e+000,-2.10339908873122e-001

1.94530989482457e+004,-9.90753195112505e+000,-2.13275834269739e-001

1.97246540898671e+004,-9.90753302710328e+000,-2.16252730504317e-001

1.99999999999999e+004,-9.90753413322652e+000,-2.19271168951730e-001

2.02791895958005e+004,-9.90753527033620e+000,-2.22331728939881e-001

2.05622765331213e+004,-9.90753643929749e+000,-2.25434997856617e-001

2.08493152168224e+004,-9.90753764099880e+000,-2.28581571268565e-001

2.11403608112276e+004,-9.90753887635371e+000,-2.31772053025724e-001

2.14354692507258e+004,-9.90754014630083e+000,-2.35007055381415e-001

2.17346972505211e+004,-9.90754145180503e+000,-2.38287199105355e-001

2.20381023175322e+004,-9.90754279385750e+000,-2.41613113604491e-001

2.23457427614443e+004,-9.90754417347684e+000,-2.44985437040788e-001

2.26576777059159e+004,-9.90754559171008e+000,-2.48404816450073e-001

2.29739670999406e+004,-9.90754704963291e+000,-2.51871907867631e-001

2.32946717293690e+004,-9.90754854835092e+000,-2.55387376450082e-001

2.36198532285905e+004,-9.90755008899994e+000,-2.58951896604018e-001

2.39495740923785e+004,-9.90755167274716e+000,-2.62566152111333e-001

2.42838976879009e+004,-9.90755330079222e+000,-2.66230836257164e-001

2.46228882668982e+004,-9.90755497436739e+000,-2.69946651965168e-001

2.49666109780322e+004,-9.90755669473929e+000,-2.73714311925454e-001

2.53151318794055e+004,-9.90755846320882e+000,-2.77534538734567e-001

2.56685179512580e+004,-9.90756028111305e+000,-2.81408065026132e-001

2.60268371088386e+004,-9.90756214982562e+000,-2.85335633613079e-001

2.63901582154578e+004,-9.90756407075802e+000,-2.89317997625047e-001

2.67585510957221e+004,-9.90756604536016e+000,-2.93355920653353e-001

2.71320865489533e+004,-9.90756807512210e+000,-2.97450176890006e-001

2.75108363627948e+004,-9.90757016157430e+000,-3.01601551279651e-001

2.78948733270080e+004,-9.90757230628949e+000,-3.05810839660584e-001

2.82842712474618e+004,-9.90757451088302e+000,-3.10078848920568e-001

2.86791049603164e+004,-9.90757677701483e+000,-3.14406397142333e-001

2.90794503464061e+004,-9.90757910638964e+000,-3.18794313763670e-001

2.94853843458219e+004,-9.90758150075921e+000,-3.23243439726530e-001

2.98969849726987e+004,-9.90758396192279e+000,-3.27754627639040e-001

3.03143313302078e+004,-9.90758649172849e+000,-3.32328741935095e-001

3.07375036257601e+004,-9.90758909207508e+000,-3.36966659032546e-001

3.11665831864199e+004,-9.90759176491265e+000,-3.41669267501917e-001

3.16016524745350e+004,-9.90759451224429e+000,-3.46437468229354e-001

3.20427951035848e+004,-9.90759733612743e+000,-3.51272174586632e-001

3.24900958542493e+004,-9.90760023867546e+000,-3.56174312599555e-001

3.29436406907028e+004,-9.90760322205878e+000,-3.61144821123005e-001

3.34035167771346e+004,-9.90760628850649e+000,-3.66184652015250e-001

3.38698124945009e+004,-9.90760944030797e+000,-3.71294770314452e-001

3.43426174575100e+004,-9.90761267981428e+000,-3.76476154419155e-001

3.48220225318448e+004,-9.90761600943992e+000,-3.81729796269384e-001

3.53081198516260e+004,-9.90761943166445e+000,-3.87056701530655e-001

3.58010028371187e+004,-9.90762294903402e+000,-3.92457889781557e-001

3.63007662126863e+004,-9.90762656416302e+000,-3.97934394703409e-001

3.68075060249948e+004,-9.90763027973598e+000,-4.03487264269732e-001

3.73213196614721e+004,-9.90763409850942e+000,-4.09117560940806e-001

3.78423058690237e+004,-9.90763802331349e+000,-4.14826361860695e-001

3.83705647730104e+004,-9.90764205705389e+000,-4.20614759055689e-001

3.89061978964912e+004,-9.90764620271369e+000,-4.26483859636354e-001

3.94493081797342e+004,-9.90765046335548e+000,-4.32434786000013e-001

3.99999999999998e+004,-9.90765484212319e+000,-4.38468676038554e-001

4.05583791916010e+004,-9.90765934224412e+000,-4.44586683347446e-001

4.11245530662425e+004,-9.90766396703096e+000,-4.50789977437708e-001

4.16986304336447e+004,-9.90766871988414e+000,-4.57079743949330e-001

4.22807216224550e+004,-9.90767360429363e+000,-4.63457184869625e-001

4.28709385014515e+004,-9.90767862384147e+000,-4.69923518752191e-001

4.34693945010421e+004,-9.90768378220374e+000,-4.76479980940438e-001

4.40762046350642e+004,-9.90768908315293e+000,-4.83127823792544e-001

4.46914855228886e+004,-9.90769453056057e+000,-4.89868316908077e-001

4.53153554118317e+004,-9.90770012839887e+000,-4.96702747362606e-001

4.59479341998812e+004,-9.90770588074395e+000,-5.03632419937872e-001

4.65893434587380e+004,-9.90771179177780e+000,-5.10658657360237e-001

4.72397064571810e+004,-9.90771786579092e+000,-5.17782800539919e-001

4.78991481847569e+004,-9.90772410718483e+000,-5.25006208814135e-001

4.85677953758016e+004,-9.90773052047475e+000,-5.32330260191158e-001

4.92457765337964e+004,-9.90773711029212e+000,-5.39756351600340e-001

4.99332219560642e+004,-9.90774388138752e+000,-5.47285899141596e-001

5.06302637588109e+004,-9.90775083863299e+000,-5.54920338341792e-001

5.13370359025159e+004,-9.90775798702506e+000,-5.62661124411642e-001

5.20536742176771e+004,-9.90776533168761e+000,-5.70509732505329e-001

5.27803164309155e+004,-9.90777287787460e+000,-5.78467657984680e-001

5.35171021914442e+004,-9.90778063097295e+000,-5.86536416686338e-001

5.42641730979066e+004,-9.90778859650538e+000,-5.94717545192451e-001

5.50216727255895e+004,-9.90779678013369e+000,-6.03012601100717e-001

5.57897466540159e+004,-9.90780518766148e+000,-6.11423163303791e-001

5.65685424949235e+004,-9.90781382503731e+000,-6.19950832267067e-001

5.73582099206328e+004,-9.90782269835764e+000,-6.28597230312282e-001

5.81589006928121e+004,-9.90783181387014e+000,-6.37364001902772e-001

5.89707686916437e+004,-9.90784117797669e+000,-6.46252813933043e-001

5.97939699453972e+004,-9.90785079723668e+000,-6.55265356020718e-001

6.06286626604156e+004,-9.90786067836987e+000,-6.64403340804136e-001

6.14750072515201e+004,-9.90787082826011e+000,-6.73668504239330e-001

6.23331663728396e+004,-9.90788125395806e+000,-6.83062605904530e-001

6.32033049490698e+004,-9.90789196268491e+000,-6.92587429304468e-001

6.40855902071694e+004,-9.90790296183530e+000,-7.02244782181423e-001

6.49801917084985e+004,-9.90791425898078e+000,-7.12036496826987e-001

6.58872813814055e+004,-9.90792586187317e+000,-7.21964430398150e-001

6.68070335542691e+004,-9.90793777844755e+000,-7.32030465238465e-001

6.77396249890018e+004,-9.90795001682586e+000,-7.42236509200244e-001

6.86852349150199e+004,-9.90796258532022e+000,-7.52584495970702e-001

6.96440450636895e+004,-9.90797549243578e+000,-7.63076385404532e-001

7.06162397032520e+004,-9.90798874687444e+000,-7.73714163856101e-001

7.16020056742374e+004,-9.90800235753807e+000,-7.84499844516112e-001

7.26015324253724e+004,-9.90801633353139e+000,-7.95435467755401e-001

7.36150120499896e+004,-9.90803068416550e+000,-8.06523101467174e-001

7.46426393229441e+004,-9.90804541896069e+000,-8.17764841417564e-001

7.56846117380472e+004,-9.90806054764999e+000,-8.29162811594744e-001

7.67411295460207e+004,-9.90807608018167e+000,-8.40719164568394e-001

7.78123957929823e+004,-9.90809202672281e+000,-8.52436081845308e-001

7.88986163594682e+004,-9.90810839766154e+000,-8.64315774236080e-001

7.99999999999995e+004,-9.90812520361045e+000,-8.76360482219463e-001

8.11167583832018e+004,-9.90814245540901e+000,-8.88572476314050e-001

8.22491061324848e+004,-9.90816016412617e+000,-9.00954057453663e-001

8.33972608672892e+004,-9.90817834106308e+000,-9.13507557364035e-001

8.45614432449099e+004,-9.90819699775523e+000,-9.26235338946680e-001

8.57418770029029e+004,-9.90821614597477e+000,-9.39139796664351e-001

8.69387890020841e+004,-9.90823579773282e+000,-9.52223356930275e-001

8.81524092701283e+004,-9.90825596528112e+000,-9.65488478503374e-001

8.93829710457770e+004,-9.90827666111368e+000,-9.78937652886675e-001

9.06307108236633e+004,-9.90829789796872e+000,-9.92573404727994e-001

9.18958683997622e+004,-9.90831968882978e+000,-1.00639829222562e+000

9.31786869174758e+004,-9.90834204692671e+000,-1.02041490754092e+000

9.44794129143618e+004,-9.90836498573670e+000,-1.03462587721057e+000

9.57982963695136e+004,-9.90838851898481e+000,-1.04903386256548e+000

9.71355907516031e+004,-9.90841266064434e+000,-1.06364156015357e+000

9.84915530675926e+004,-9.90843742493663e+000,-1.07845170216744e+000

9.98664439121282e+004,-9.90846282633083e+000,-1.09346705687517e+000

1.01260527517622e+005,-9.90848887954346e+000,-1.10869042905507e+000

1.02674071805032e+005,-9.90851559953679e+000,-1.12412466043822e+000

1.04107348435354e+005,-9.90854300151795e+000,-1.13977263015084e+000

1.05560632861831e+005,-9.90857110093677e+000,-1.15563725516454e+000

1.07034204382888e+005,-9.90859991348331e+000,-1.17172149075118e+000

1.08528346195813e+005,-9.90862945508531e+000,-1.18802833094009e+000

1.10043345451179e+005,-9.90865974190466e+000,-1.20456080898283e+000

1.11579493308032e+005,-9.90869079033377e+000,-1.22132199782042e+000

1.13137084989847e+005,-9.90872261699074e+000,-1.23831501055908e+000

1.14716419841265e+005,-9.90875523871474e+000,-1.25554300094655e+000

1.16317801385624e+005,-9.90878867255991e+000,-1.27300916385874e+000

1.17941537383287e+005,-9.90882293578941e+000,-1.29071673578631e+000

1.19587939890794e+005,-9.90885804586810e+000,-1.30866899533265e+000

1.21257325320831e+005,-9.90889402045484e+000,-1.32686926371199e+000

1.22950014503040e+005,-9.90893087739374e+000,-1.34532090525878e+000

1.24666332745679e+005,-9.90896863470498e+000,-1.36402732793837e+000

1.26406609898139e+005,-9.90900731057456e+000,-1.38299198386581e+000

1.28171180414339e+005,-9.90904692334281e+000,-1.40221836983308e+000

1.29960383416997e+005,-9.90908749149253e+000,-1.42171002784012e+000

1.31774562762811e+005,-9.90912903363588e+000,-1.44147054563296e+000

1.33614067108538e+005,-9.90917156850015e+000,-1.46150355725124e+000

1.35479249978003e+005,-9.90921511491265e+000,-1.48181274358057e+000

1.37370469830040e+005,-9.90925969178424e+000,-1.50240183291417e+000

1.39288090127379e+005,-9.90930531809189e+000,-1.52327460152213e+000

1.41232479406504e+005,-9.90935201286003e+000,-1.54443487422792e+000

1.43204011348474e+005,-9.90939979514046e+000,-1.56588652499544e+000

1.45203064850745e+005,-9.90944868399114e+000,-1.58763347752268e+000

1.47230024099979e+005,-9.90949869845329e+000,-1.60967970584771e+000

1.49285278645888e+005,-9.90954985752778e+000,-1.63202923496048e+000

1.51369223476094e+005,-9.90960218014909e+000,-1.65468614142943e+000

1.53482259092041e+005,-9.90965568515869e+000,-1.67765455403341e+000

1.55624791585964e+005,-9.90971039127604e+000,-1.70093865441064e+000

1.57797232718936e+005,-9.90976631706881e+000,-1.72454267771360e+000

1.59999999999999e+005,-9.90982348092082e+000,-1.74847091327924e+000

1.62233516766403e+005,-9.90988190099839e+000,-1.77272770531168e+000

1.64498212264969e+005,-9.90994159521531e+000,-1.79731745357684e+000

1.66794521734578e+005,-9.91000258119559e+000,-1.82224461411153e+000

1.69122886489819e+005,-9.91006487623457e+000,-1.84751369994727e+000

1.71483754005805e+005,-9.91012849725812e+000,-1.87312928184919e+000

1.73877578004168e+005,-9.91019346078008e+000,-1.89909598906952e+000

1.76304818540256e+005,-9.91025978285756e+000,-1.92541851011898e+000

1.78765942091554e+005,-9.91032747904425e+000,-1.95210159355508e+000

1.81261421647326e+005,-9.91039656434195e+000,-1.97915004878764e+000

1.83791736799524e+005,-9.91046705314962e+000,-2.00656874690536e+000

1.86357373834951e+005,-9.91053895921108e+000,-2.03436262151768e+000

1.88958825828723e+005,-9.91061229555989e+000,-2.06253666962213e+000

1.91596592739027e+005,-9.91068707446247e+000,-2.09109595249044e+000

1.94271181503206e+005,-9.91076330735913e+000,-2.12004559657711e+000

1.96983106135185e+005,-9.91084100480308e+000,-2.14939079445103e+000

1.99732887824256e+005,-9.91092017639692e+000,-2.17913680575291e+000

2.02521055035243e+005,-9.91100083072748e+000,-2.20928895817590e+000

2.05348143610063e+005,-9.91108297529831e+000,-2.23985264847417e+000

2.08214696870707e+005,-9.91116661646015e+000,-2.27083334349722e+000

2.11121265723661e+005,-9.91125175933928e+000,-2.30223658125414e+000

2.14068408765776e+005,-9.91133840776407e+000,-2.33406797200570e+000

2.17056692391625e+005,-9.91142656418922e+000,-2.36633319938823e+000

2.20086690902357e+005,-9.91151622961839e+000,-2.39903802156794e+000

2.23158986616063e+005,-9.91160740352472e+000,-2.43218827242881e+000

2.26274169979693e+005,-9.91170008376962e+000,-2.46578986279404e+000

2.29432839682530e+005,-9.91179426651987e+000,-2.49984878168227e+000

2.32635602771247e+005,-9.91188994616319e+000,-2.53437109759862e+000

2.35883074766574e+005,-9.91198711522179e+000,-2.56936295986608e+000

2.39175879781588e+005,-9.91208576426494e+000,-2.60483059999149e+000

2.42514650641661e+005,-9.91218588182028e+000,-2.64078033307199e+000

2.45900029006080e+005,-9.91228745428327e+000,-2.67721855924269e+000

2.49332665491357e+005,-9.91239046582615e+000,-2.71415176516564e+000

2.52813219796278e+005,-9.91249489830594e+000,-2.75158652555808e+000

2.56342360828676e+005,-9.91260073117128e+000,-2.78952950476823e+000

2.59920766833993e+005,-9.91270794136894e+000,-2.82798745839235e+000

2.63549125525621e+005,-9.91281650324984e+000,-2.86696723493769e+000

2.67228134217075e+005,-9.91292638847475e+000,-2.90647577753114e+000

2.70958499956006e+005,-9.91303756591995e+000,-2.94652012567419e+000

2.74740939660078e+005,-9.91315000158301e+000,-2.98710741704581e+000

2.78576180254757e+005,-9.91326365848903e+000,-3.02824488935162e+000

2.82464958813007e+005,-9.91337849659688e+000,-3.06993988222401e+000

2.86408022696948e+005,-9.91349447270727e+000,-3.11219983916763e+000

2.90406129701488e+005,-9.91361154037060e+000,-3.15503230955688e+000

2.94460048199957e+005,-9.91372964979703e+000,-3.19844495068115e+000

2.98570557291775e+005,-9.91384874776743e+000,-3.24244552983996e+000

3.02738446952187e+005,-9.91396877754619e+000,-3.28704192648846e+000

3.06964518184081e+005,-9.91408967879618e+000,-3.33224213443086e+000

3.11249583171928e+005,-9.91421138749574e+000,-3.37805426406387e+000

3.15594465437872e+005,-9.91433383585792e+000,-3.42448654467045e+000

3.19999999999997e+005,-9.91445695225299e+000,-3.47154732675959e+000

3.24467033532806e+005,-9.91458066113303e+000,-3.51924508445694e+000

3.28996424529938e+005,-9.91470488296051e+000,-3.56758841794026e+000

3.33589043469155e+005,-9.91482953413979e+000,-3.61658605592332e+000

3.38245772979638e+005,-9.91495452695223e+000,-3.66624685818468e+000

3.42967508011610e+005,-9.91507976949520e+000,-3.71657981814218e+000

3.47755156008335e+005,-9.91520516562530e+000,-3.76759406546832e+000

3.52609637080511e+005,-9.91533061490524e+000,-3.81929886875206e+000

3.57531884183106e+005,-9.91545601255563e+000,-3.87170363819754e+000

3.62522843294651e+005,-9.91558124941108e+000,-3.92481792836418e+000

3.67583473599047e+005,-9.91570621188086e+000,-3.97865144094508e+000

3.72714747669902e+005,-9.91583078191438e+000,-4.03321402757975e+000

3.77917651657445e+005,-9.91595483697183e+000,-4.08851569270214e+000

3.83193185478053e+005,-9.91607824999912e+000,-4.14456659642227e+000

3.88542363006410e+005,-9.91620088940854e+000,-4.20137705743575e+000

3.93966212270369e+005,-9.91632261906391e+000,-4.25895755596472e+000

3.99465775648511e+005,-9.91644329827101e+000,-4.31731873672290e+000

4.05042110070485e+005,-9.91656278177277e+000,-4.37647141190727e+000

4.10696287220124e+005,-9.91668091974968e+000,-4.43642656421020e+000

4.16429393741414e+005,-9.91679755782468e+000,-4.49719534985313e+000

4.22242531447321e+005,-9.91691253707320e+000,-4.55878910163821e+000

4.28136817531551e+005,-9.91702569403723e+000,-4.62121933201534e+000

4.34113384783250e+005,-9.91713686074429e+000,-4.68449773616470e+000

4.40173381804713e+005,-9.91724586473018e+000,-4.74863619509018e+000

4.46317973232124e+005,-9.91735252906603e+000,-4.81364677872324e+000

4.52548339959385e+005,-9.91745667238868e+000,-4.87954174903648e+000

4.58865679365059e+005,-9.91755810893470e+000,-4.94633356316197e+000

4.65271205542494e+005,-9.91765664857722e+000,-5.01403487651637e+000

4.71766149533147e+005,-9.91775209686581e+000,-5.08265854592850e+000

4.78351759563174e+005,-9.91784425506826e+000,-5.15221763277020e+000

4.85029301283321e+005,-9.91793292021455e+000,-5.22272540608825e+000

4.91800058012158e+005,-9.91801788514228e+000,-5.29419534573561e+000

4.98665330982714e+005,-9.91809893854293e+000,-5.36664114550387e+000

5.05626439592555e+005,-9.91817586500906e+000,-5.44007671625241e+000

5.12684721657352e+005,-9.91824844508116e+000,-5.51451618903828e+000

5.19841533667984e+005,-9.91831645529451e+000,-5.58997391824268e+000

5.27098251051240e+005,-9.91837966822476e+000,-5.66646448469693e+000

5.34456268434150e+005,-9.91843785253235e+000,-5.74400269880617e+000

5.41916999912011e+005,-9.91849077300470e+000,-5.82260360367376e+000

