Freq.,VOut,OutRef

1.00000000000000e+004,-1.99982435871001e+001,-1.65658916105809e-001

1.01395947979003e+004,-1.99982448989513e+001,-1.67971291605899e-001

1.02811382665607e+004,-1.99982462476613e+001,-1.70315940859568e-001

1.04246576084112e+004,-1.99982476342650e+001,-1.72693314144022e-001

1.05701804056138e+004,-1.99982490598263e+001,-1.75103868014004e-001

1.07177346253629e+004,-1.99982505254392e+001,-1.77548065385314e-001

1.08673486252606e+004,-1.99982520322282e+001,-1.80026375623667e-001

1.10190511587661e+004,-1.99982535813491e+001,-1.82539274637607e-001

1.11728713807222e+004,-1.99982551739905e+001,-1.85087244964495e-001

1.13288388529580e+004,-1.99982568113743e+001,-1.87670775864707e-001

1.14869835499703e+004,-1.99982584947561e+001,-1.90290363417813e-001

1.16473358646846e+004,-1.99982602254274e+001,-1.92946510610386e-001

1.18099266142953e+004,-1.99982620047154e+001,-1.95639727440437e-001

1.19747870461893e+004,-1.99982638339848e+001,-1.98370531005526e-001

1.21419488439505e+004,-1.99982657146385e+001,-2.01139445607943e-001

1.23114441334492e+004,-1.99982676481184e+001,-2.03947002854635e-001

1.24833054890161e+004,-1.99982696359072e+001,-2.06793741751643e-001

1.26575659397028e+004,-1.99982716795289e+001,-2.09680208815559e-001

1.28342589756290e+004,-1.99982737805501e+001,-2.12606958171620e-001

1.30134185544193e+004,-1.99982759405818e+001,-2.15574551659798e-001

1.31950791077289e+004,-1.99982781612793e+001,-2.18583558945256e-001

1.33792755478611e+004,-1.99982804443449e+001,-2.21634557621868e-001

1.35660432744767e+004,-1.99982827915284e+001,-2.24728133326081e-001

1.37554181813974e+004,-1.99982852046286e+001,-2.27864879845343e-001

1.39474366635040e+004,-1.99982876854942e+001,-2.31045399234410e-001

1.41421356237309e+004,-1.99982902360264e+001,-2.34270301923813e-001

1.43395524801583e+004,-1.99982928581792e+001,-2.37540206841462e-001

1.45397251732031e+004,-1.99982955539610e+001,-2.40855741529655e-001

1.47426921729110e+004,-1.99982983254372e+001,-2.44217542258641e-001

1.49484924863494e+004,-1.99983011747299e+001,-2.47626254155292e-001

1.51571656651040e+004,-1.99983041040215e+001,-2.51082531318963e-001

1.53687518128801e+004,-1.99983071155549e+001,-2.54587036948989e-001

1.55832915932100e+004,-1.99983102116360e+001,-2.58140443467514e-001

1.58008262372675e+004,-1.99983133946349e+001,-2.61743432651166e-001

1.60213975517924e+004,-1.99983166669882e+001,-2.65396695755506e-001

1.62450479271247e+004,-1.99983200312004e+001,-2.69100933649535e-001

1.64718203453514e+004,-1.99983234898460e+001,-2.72856856945710e-001

1.67017583885674e+004,-1.99983270455718e+001,-2.76665186134711e-001

1.69349062472505e+004,-1.99983307010978e+001,-2.80526651724244e-001

1.71713087287550e+004,-1.99983344592207e+001,-2.84441994372718e-001

1.74110112659224e+004,-1.99983383228148e+001,-2.88411965033045e-001

1.76540599258131e+004,-1.99983422948349e+001,-2.92437325091962e-001

1.79005014185594e+004,-1.99983463783184e+001,-2.96518846512685e-001

1.81503831063432e+004,-1.99983505763869e+001,-3.00657311985722e-001

1.84037530124975e+004,-1.99983548922498e+001,-3.04853515069233e-001

1.86606598307361e+004,-1.99983593292054e+001,-3.09108260345412e-001

1.89211529345119e+004,-1.99983638906445e+001,-3.13422363564859e-001

1.91852823865052e+004,-1.99983685800521e+001,-3.17796651806194e-001

1.94530989482457e+004,-1.99983734010104e+001,-3.22231963628940e-001

1.97246540898671e+004,-1.99983783572017e+001,-3.26729149229032e-001

1.99999999999999e+004,-1.99983834524105e+001,-3.31289070603470e-001

2.02791895958005e+004,-1.99983886905270e+001,-3.35912601707621e-001

2.05622765331213e+004,-1.99983940755498e+001,-3.40600628619588e-001

2.08493152168224e+004,-1.99983996115883e+001,-3.45354049710337e-001

2.11403608112276e+004,-1.99984053028669e+001,-3.50173775805919e-001

2.14354692507258e+004,-1.99984111537274e+001,-3.55060730361767e-001

2.17346972505211e+004,-1.99984171686319e+001,-3.60015849635816e-001

2.20381023175322e+004,-1.99984233521672e+001,-3.65040082860847e-001

2.23457427614443e+004,-1.99984297090474e+001,-3.70134392422023e-001

2.26576777059159e+004,-1.99984362441174e+001,-3.75299754038938e-001

2.29739670999406e+004,-1.99984429623570e+001,-3.80537156945599e-001

2.32946717293690e+004,-1.99984498688841e+001,-3.85847604074223e-001

2.36198532285905e+004,-1.99984569689587e+001,-3.91232112242967e-001

2.39495740923785e+004,-1.99984642679871e+001,-3.96691712343332e-001

2.42838976879009e+004,-1.99984717715250e+001,-4.02227449535087e-001

2.46228882668982e+004,-1.99984794852827e+001,-4.07840383434673e-001

2.49666109780322e+004,-1.99984874151285e+001,-4.13531588318054e-001

2.53151318794055e+004,-1.99984955670936e+001,-4.19302153313381e-001

2.56685179512580e+004,-1.99985039473759e+001,-4.25153182607758e-001

2.60268371088386e+004,-1.99985125623451e+001,-4.31085795646983e-001

2.63901582154578e+004,-1.99985214185472e+001,-4.37101127346271e-001

2.67585510957221e+004,-1.99985305227093e+001,-4.43200328294805e-001

2.71320865489533e+004,-1.99985398817445e+001,-4.49384564971255e-001

2.75108363627948e+004,-1.99985495027569e+001,-4.55655019958315e-001

2.78948733270080e+004,-1.99985593930468e+001,-4.62012892157254e-001

2.82842712474618e+004,-1.99985695601162e+001,-4.68459397010217e-001

2.86791049603164e+004,-1.99985800116742e+001,-4.74995766721287e-001

2.90794503464061e+004,-1.99985907556422e+001,-4.81623250484549e-001

2.94853843458219e+004,-1.99986018001604e+001,-4.88343114708599e-001

2.98969849726987e+004,-1.99986131535930e+001,-4.95156643251011e-001

3.03143313302078e+004,-1.99986248245345e+001,-5.02065137651654e-001

3.07375036257601e+004,-1.99986368218161e+001,-5.09069917367295e-001

3.11665831864199e+004,-1.99986491545118e+001,-5.16172320013417e-001

3.16016524745350e+004,-1.99986618319449e+001,-5.23373701606918e-001

3.20427951035848e+004,-1.99986748636950e+001,-5.30675436810738e-001

3.24900958542493e+004,-1.99986882596045e+001,-5.38078919182415e-001

3.29436406907028e+004,-1.99987020297859e+001,-5.45585561426871e-001

3.34035167771346e+004,-1.99987161846289e+001,-5.53196795648338e-001

3.38698124945009e+004,-1.99987307348077e+001,-5.60914073611762e-001

3.43426174575100e+004,-1.99987456912888e+001,-5.68738866999537e-001

3.48220225318448e+004,-1.99987610653385e+001,-5.76672667679014e-001

3.53081198516260e+004,-1.99987768685313e+001,-5.84716987964754e-001

3.58010028371187e+004,-1.99987931127575e+001,-5.92873360893785e-001

3.63007662126863e+004,-1.99988098102319e+001,-6.01143340493582e-001

3.68075060249948e+004,-1.99988269735025e+001,-6.09528502061878e-001

3.73213196614721e+004,-1.99988446154588e+001,-6.18030442444601e-001

3.78423058690237e+004,-1.99988627493412e+001,-6.26650780318446e-001

3.83705647730104e+004,-1.99988813887502e+001,-6.35391156477607e-001

3.89061978964912e+004,-1.99989005476556e+001,-6.44253234121278e-001

3.94493081797342e+004,-1.99989202404063e+001,-6.53238699147290e-001

3.99999999999998e+004,-1.99989404817402e+001,-6.62349260447020e-001

4.05583791916010e+004,-1.99989612867944e+001,-6.71586650204293e-001

4.11245530662425e+004,-1.99989826711153e+001,-6.80952624197798e-001

4.16986304336447e+004,-1.99990046506696e+001,-6.90448962105606e-001

4.22807216224550e+004,-1.99990272418547e+001,-7.00077467814867e-001

4.28709385014515e+004,-1.99990504615103e+001,-7.09839969734215e-001

4.34693945010421e+004,-1.99990743269295e+001,-7.19738321106793e-001

4.40762046350642e+004,-1.99990988558704e+001,-7.29774400331536e-001

4.46914855228886e+004,-1.99991240665681e+001,-7.39950111284340e-001

4.53153554118317e+004,-1.99991499777470e+001,-7.50267383642100e-001

4.59479341998812e+004,-1.99991766086328e+001,-7.60728173213754e-001

4.65893434587380e+004,-1.99992039789657e+001,-7.71334462270578e-001

4.72397064571810e+004,-1.99992321090133e+001,-7.82088259882567e-001

4.78991481847569e+004,-1.99992610195837e+001,-7.92991602256766e-001

4.85677953758016e+004,-1.99992907320391e+001,-8.04046553079622e-001

4.92457765337964e+004,-1.99993212683100e+001,-8.15255203862157e-001

4.99332219560642e+004,-1.99993526509088e+001,-8.26619674289729e-001

5.06302637588109e+004,-1.99993849029449e+001,-8.38142112572912e-001

5.13370359025159e+004,-1.99994180481391e+001,-8.49824695804036e-001

5.20536742176771e+004,-1.99994521108386e+001,-8.61669630315948e-001

5.27803164309155e+004,-1.99994871160329e+001,-8.73679152042635e-001

5.35171021914442e+004,-1.99995230893686e+001,-8.85855526888110e-001

5.42641730979066e+004,-1.99995600571664e+001,-8.98201051091160e-001

5.50216727255895e+004,-1.99995980464370e+001,-9.10718051599496e-001

5.57897466540159e+004,-1.99996370848973e+001,-9.23408886446117e-001

5.65685424949235e+004,-1.99996772009885e+001,-9.36275945124284e-001

5.73582099206328e+004,-1.99997184238920e+001,-9.49321648972952e-001

5.81589006928121e+004,-1.99997607835481e+001,-9.62548451559631e-001

5.89707686916437e+004,-1.99998043106737e+001,-9.75958839068259e-001

5.97939699453972e+004,-1.99998490367800e+001,-9.89555330691440e-001

6.06286626604156e+004,-1.99998949941919e+001,-1.00334047902392e+000

6.14750072515201e+004,-1.99999422160662e+001,-1.01731687046030e+000

6.23331663728396e+004,-1.99999907364113e+001,-1.03148712559509e+000

6.32033049490698e+004,-2.00000405901065e+001,-1.04585389962629e+000

6.40855902071694e+004,-2.00000918129222e+001,-1.06041988276092e+000

6.49801917084985e+004,-2.00001444415393e+001,-1.07518780062573e+000

6.58872813814055e+004,-2.00001985135706e+001,-1.09016041467777e+000

6.68070335542691e+004,-2.00002540675812e+001,-1.10534052261949e+000

6.77396249890018e+004,-2.00003111431093e+001,-1.12073095881720e+000

6.86852349150199e+004,-2.00003697806882e+001,-1.13633459472029e+000

6.96440450636895e+004,-2.00004300218674e+001,-1.15215433928607e+000

7.06162397032520e+004,-2.00004919092351e+001,-1.16819313940201e+000

7.16020056742374e+004,-2.00005554864397e+001,-1.18445398031863e+000

7.26015324253724e+004,-2.00006207982133e+001,-1.20093988607532e+000

7.36150120499896e+004,-2.00006878903933e+001,-1.21765391993801e+000

7.46426393229441e+004,-2.00007568099467e+001,-1.23459918483074e+000

7.56846117380472e+004,-2.00008276049919e+001,-1.25177882377667e+000

7.67411295460207e+004,-2.00009003248234e+001,-1.26919602033568e+000

7.78123957929823e+004,-2.00009750199345e+001,-1.28685399904894e+000

7.88986163594682e+004,-2.00010517420419e+001,-1.30475602588186e+000

7.99999999999995e+004,-2.00011305441091e+001,-1.32290540867110e+000

8.11167583832018e+004,-2.00012114803709e+001,-1.34130549757353e+000

8.22491061324848e+004,-2.00012946063575e+001,-1.35995968551563e+000

8.33972608672892e+004,-2.00013799789191e+001,-1.37887140864780e+000

8.45614432449099e+004,-2.00014676562500e+001,-1.39804414679613e+000

8.57418770029029e+004,-2.00015576979134e+001,-1.41748142392116e+000

8.69387890020841e+004,-2.00016501648662e+001,-1.43718680857301e+000

8.81524092701283e+004,-2.00017451194830e+001,-1.45716391435286e+000

8.93829710457770e+004,-2.00018426255811e+001,-1.47741640037186e+000

9.06307108236633e+004,-2.00019427484449e+001,-1.49794797171570e+000

9.18958683997622e+004,-2.00020455548501e+001,-1.51876237990740e+000

9.31786869174758e+004,-2.00021511130879e+001,-1.53986342337346e+000

9.44794129143618e+004,-2.00022594929898e+001,-1.56125494790952e+000

9.57982963695136e+004,-2.00023707659502e+001,-1.58294084715131e+000

9.71355907516031e+004,-2.00024850049517e+001,-1.60492506304078e+000

9.84915530675926e+004,-2.00026022845869e+001,-1.62721158629995e+000

9.98664439121282e+004,-2.00027226810822e+001,-1.64980445690241e+000

1.01260527517622e+005,-2.00028462723201e+001,-1.67270776454739e+000

1.02674071805032e+005,-2.00029731378616e+001,-1.69592564913353e+000

1.04107348435354e+005,-2.00031033589678e+001,-1.71946230123688e+000

1.05560632861831e+005,-2.00032370186204e+001,-1.74332196258937e+000

1.07034204382888e+005,-2.00033742015430e+001,-1.76750892655588e+000

1.08528346195813e+005,-2.00035149942203e+001,-1.79202753861741e+000

1.10043345451179e+005,-2.00036594849174e+001,-1.81688219685221e+000

1.11579493308032e+005,-2.00038077636977e+001,-1.84207735242131e+000

1.13137084989847e+005,-2.00039599224402e+001,-1.86761751005362e+000

1.14716419841265e+005,-2.00041160548563e+001,-1.89350722853504e+000

1.16317801385624e+005,-2.00042762565042e+001,-1.91975112119806e+000

1.17941537383287e+005,-2.00044406248041e+001,-1.94635385641440e+000

1.19587939890794e+005,-2.00046092590500e+001,-1.97332015809011e+000

1.21257325320831e+005,-2.00047822604222e+001,-2.00065480616472e+000

1.22950014503040e+005,-2.00049597319972e+001,-2.02836263711048e+000

1.24666332745679e+005,-2.00051417787563e+001,-2.05644854443754e+000

1.26406609898139e+005,-2.00053285075930e+001,-2.08491747920286e+000

1.28171180414339e+005,-2.00055200273186e+001,-2.11377445052038e+000

1.29960383416997e+005,-2.00057164486658e+001,-2.14302452607943e+000

1.31774562762811e+005,-2.00059178842904e+001,-2.17267283266604e+000

1.33614067108538e+005,-2.00061244487718e+001,-2.20272455668903e+000

1.35479249978003e+005,-2.00063362586102e+001,-2.23318494471287e+000

1.37370469830040e+005,-2.00065534322229e+001,-2.26405930399842e+000

1.39288090127379e+005,-2.00067760899370e+001,-2.29535300304820e+000

1.41232479406504e+005,-2.00070043539809e+001,-2.32707147216238e+000

1.43204011348474e+005,-2.00072383484728e+001,-2.35922020400011e+000

1.45203064850745e+005,-2.00074781994065e+001,-2.39180475415262e+000

1.47230024099979e+005,-2.00077240346342e+001,-2.42483074172691e+000

1.49285278645888e+005,-2.00079759838475e+001,-2.45830384993838e+000

1.51369223476094e+005,-2.00082341785545e+001,-2.49222982671781e+000

1.53482259092041e+005,-2.00084987520542e+001,-2.52661448532953e+000

1.55624791585964e+005,-2.00087698394076e+001,-2.56146370500609e+000

1.57797232718936e+005,-2.00090475774060e+001,-2.59678343159696e+000

1.59999999999999e+005,-2.00093321045355e+001,-2.63257967823319e+000

1.62233516766403e+005,-2.00096235609384e+001,-2.66885852601363e+000

1.64498212264969e+005,-2.00099220883704e+001,-2.70562612470616e+000

1.66794521734578e+005,-2.00102278301554e+001,-2.74288869347308e+000

1.69122886489819e+005,-2.00105409311356e+001,-2.78065252161717e+000

1.71483754005805e+005,-2.00108615376180e+001,-2.81892396935445e+000

1.73877578004168e+005,-2.00111897973174e+001,-2.85770946860907e+000

1.76304818540256e+005,-2.00115258592955e+001,-2.89701552383952e+000

1.78765942091554e+005,-2.00118698738956e+001,-2.93684871289215e+000

1.81261421647326e+005,-2.00122219926742e+001,-2.97721568788752e+000

1.83791736799524e+005,-2.00125823683275e+001,-3.01812317613920e+000

1.86357373834951e+005,-2.00129511546150e+001,-3.05957798110992e+000

1.88958825828723e+005,-2.00133285062786e+001,-3.10158698340370e+000

1.91596592739027e+005,-2.00137145789574e+001,-3.14415714179961e+000

1.94271181503206e+005,-2.00141095290994e+001,-3.18729549432807e+000

1.96983106135185e+005,-2.00145135138686e+001,-3.23100915939118e+000

1.99732887824256e+005,-2.00149266910486e+001,-3.27530533693094e+000

2.02521055035243e+005,-2.00153492189427e+001,-3.32019130964829e+000

2.05348143610063e+005,-2.00157812562697e+001,-3.36567444427319e+000

2.08214696870707e+005,-2.00162229620569e+001,-3.41176219289151e+000

2.11121265723661e+005,-2.00166744955297e+001,-3.45846209432908e+000

2.14068408765776e+005,-2.00171360159976e+001,-3.50578177559610e+000

2.17056692391625e+005,-2.00176076827379e+001,-3.55372895339573e+000

2.20086690902357e+005,-2.00180896548763e+001,-3.60231143569832e+000

2.23158986616063e+005,-2.00185820912649e+001,-3.65153712338550e+000

2.26274169979693e+005,-2.00190851503591e+001,-3.70141401196419e+000

2.29432839682530e+005,-2.00195989900909e+001,-3.75195019335789e+000

2.32635602771247e+005,-2.00201237677428e+001,-3.80315385777266e+000

2.35883074766574e+005,-2.00206596398188e+001,-3.85503329564422e+000

2.39175879781588e+005,-2.00212067619157e+001,-3.90759689966828e+000

2.42514650641661e+005,-2.00217652885947e+001,-3.96085316691455e+000

2.45900029006080e+005,-2.00223353732513e+001,-4.01481070103021e+000

2.49332665491357e+005,-2.00229171679885e+001,-4.06947821453200e+000

2.52813219796278e+005,-2.00235108234894e+001,-4.12486453119098e+000

2.56342360828676e+005,-2.00241164888923e+001,-4.18097858851364e+000

2.59920766833993e+005,-2.00247343116689e+001,-4.23782944031628e+000

2.63549125525621e+005,-2.00253644375047e+001,-4.29542625940081e+000

2.67228134217075e+005,-2.00260070101839e+001,-4.35377834032896e+000

2.70958499956006e+005,-2.00266621714787e+001,-4.41289510229812e+000

2.74740939660078e+005,-2.00273300610438e+001,-4.47278609211997e+000

2.78576180254757e+005,-2.00280108163166e+001,-4.53346098730290e+000

2.82464958813007e+005,-2.00287045724252e+001,-4.59492959923913e+000

2.86408022696948e+005,-2.00294114621031e+001,-4.65720187649466e+000

2.90406129701488e+005,-2.00301316156127e+001,-4.72028790820702e+000

2.94460048199957e+005,-2.00308651606782e+001,-4.78419792758519e+000

2.98570557291775e+005,-2.00316122224287e+001,-4.84894231551450e+000

3.02738446952187e+005,-2.00323729233525e+001,-4.91453160426549e+000

3.06964518184081e+005,-2.00331473832626e+001,-4.98097648130373e+000

3.11249583171928e+005,-2.00339357192764e+001,-5.04828779320057e+000

3.15594465437872e+005,-2.00347380458081e+001,-5.11647654964242e+000

3.19999999999997e+005,-2.00355544745760e+001,-5.18555392753546e+000

3.24467033532806e+005,-2.00363851146257e+001,-5.25553127520463e+000

3.28996424529938e+005,-2.00372300723694e+001,-5.32642011668150e+000

3.33589043469155e+005,-2.00380894516428e+001,-5.39823215607942e+000

3.38245772979638e+005,-2.00389633537795e+001,-5.47097928205072e+000

3.42967508011610e+005,-2.00398518777054e+001,-5.54467357232252e+000

3.47755156008335e+005,-2.00407551200520e+001,-5.61932729830422e+000

3.52609637080511e+005,-2.00416731752905e+001,-5.69495292976514e+000

3.57531884183106e+005,-2.00426061358872e+001,-5.77156313957258e+000

3.62522843294651e+005,-2.00435540924808e+001,-5.84917080848779e+000

3.67583473599047e+005,-2.00445171340819e+001,-5.92778903001073e+000

3.72714747669902e+005,-2.00454953482960e+001,-6.00743111526961e+000

3.77917651657445e+005,-2.00464888215702e+001,-6.08811059794564e+000

3.83193185478053e+005,-2.00474976394630e+001,-6.16984123922803e+000

3.88542363006410e+005,-2.00485218869397e+001,-6.25263703278982e+000

3.93966212270369e+005,-2.00495616486918e+001,-6.33651220977862e+000

3.99465775648511e+005,-2.00506170094811e+001,-6.42148124381334e+000

4.05042110070485e+005,-2.00516880545099e+001,-6.50755885597748e+000

4.10696287220124e+005,-2.00527748698153e+001,-6.59476001980469e+000

4.16429393741414e+005,-2.00538775426891e+001,-6.68309996624349e+000

4.22242531447321e+005,-2.00549961621226e+001,-6.77259418859771e+000

4.28136817531551e+005,-2.00561308192766e+001,-6.86325844742906e+000

4.34113384783250e+005,-2.00572816079754e+001,-6.95510877541955e+000

4.40173381804713e+005,-2.00584486252254e+001,-7.04816148218007e+000

4.46317973232124e+005,-2.00596319717578e+001,-7.14243315900100e+000

4.52548339959385e+005,-2.00608317525934e+001,-7.23794068353594e+000

4.58865679365059e+005,-2.00620480776318e+001,-7.33470122440934e+000

4.65271205542494e+005,-2.00632810622607e+001,-7.43273224574387e+000

4.71766149533147e+005,-2.00645308279881e+001,-7.53205151159839e+000

4.78351759563174e+005,-2.00657975030935e+001,-7.63267709030996e+000

4.85029301283321e+005,-2.00670812232997e+001,-7.73462735873554e+000

4.91800058012158e+005,-2.00683821324622e+001,-7.83792100638521e+000

4.98665330982714e+005,-2.00697003832771e+001,-7.94257703944400e+000

5.05626439592555e+005,-2.00710361380041e+001,-8.04861478467598e+000

5.12684721657352e+005,-2.00723895692062e+001,-8.15605389320711e+000

5.19841533667984e+005,-2.00737608605029e+001,-8.26491434418286e+000

5.27098251051240e+005,-2.00751502073361e+001,-8.37521644829869e+000

5.34456268434150e+005,-2.00765578177487e+001,-8.48698085119953e+000

5.41916999912011e+005,-2.00779839131729e+001,-8.60022853674617e+000

