Freq.,VOut,OutRef

1.00000000000000e+004,-1.64895856692190e+001,-2.26808884301252e-001

1.01395947979003e+004,-1.64895867028953e+001,-2.29974923215854e-001

1.02811382665607e+004,-1.64895877656170e+001,-2.33185154348485e-001

1.04246576084112e+004,-1.64895888581996e+001,-2.36440194428821e-001

1.05701804056138e+004,-1.64895899814817e+001,-2.39740668788763e-001

1.07177346253629e+004,-1.64895911363255e+001,-2.43087211479589e-001

1.08673486252606e+004,-1.64895923236171e+001,-2.46480465398185e-001

1.10190511587661e+004,-1.64895935442677e+001,-2.49921082406839e-001

1.11728713807222e+004,-1.64895947992142e+001,-2.53409723457557e-001

1.13288388529580e+004,-1.64895960894194e+001,-2.56947058722503e-001

1.14869835499703e+004,-1.64895974158733e+001,-2.60533767717865e-001

1.16473358646846e+004,-1.64895987795935e+001,-2.64170539436396e-001

1.18099266142953e+004,-1.64896001816264e+001,-2.67858072479537e-001

1.19747870461893e+004,-1.64896016230475e+001,-2.71597075188594e-001

1.21419488439505e+004,-1.64896031049627e+001,-2.75388265782715e-001

1.23114441334492e+004,-1.64896046285086e+001,-2.79232372496030e-001

1.24833054890161e+004,-1.64896061948539e+001,-2.83130133716078e-001

1.26575659397028e+004,-1.64896078051998e+001,-2.87082298125906e-001

1.28342589756290e+004,-1.64896094607815e+001,-2.91089624845889e-001

1.30134185544193e+004,-1.64896111628685e+001,-2.95152883580080e-001

1.31950791077289e+004,-1.64896129127660e+001,-2.99272854764370e-001

1.33792755478611e+004,-1.64896147118159e+001,-3.03450329711737e-001

1.35660432744767e+004,-1.64896165613975e+001,-3.07686110768786e-001

1.37554181813974e+004,-1.64896184629286e+001,-3.11981011465577e-001

1.39474366635040e+004,-1.64896204178671e+001,-3.16335856672227e-001

1.41421356237309e+004,-1.64896224277115e+001,-3.20751482754792e-001

1.43395524801583e+004,-1.64896244940023e+001,-3.25228737737841e-001

1.45397251732031e+004,-1.64896266183230e+001,-3.29768481466202e-001

1.47426921729110e+004,-1.64896288023017e+001,-3.34371585765067e-001

1.49484924863494e+004,-1.64896310476118e+001,-3.39038934611623e-001

1.51571656651040e+004,-1.64896333559737e+001,-3.43771424300981e-001

1.53687518128801e+004,-1.64896357291560e+001,-3.48569963617650e-001

1.55832915932100e+004,-1.64896381689765e+001,-3.53435474009000e-001

1.58008262372675e+004,-1.64896406773042e+001,-3.58368889762187e-001

1.60213975517924e+004,-1.64896432560601e+001,-3.63371158180060e-001

1.62450479271247e+004,-1.64896459072192e+001,-3.68443239763313e-001

1.64718203453514e+004,-1.64896486328115e+001,-3.73586108393326e-001

1.67017583885674e+004,-1.64896514349239e+001,-3.78800751519452e-001

1.69349062472505e+004,-1.64896543157015e+001,-3.84088170343633e-001

1.71713087287550e+004,-1.64896572773495e+001,-3.89449380013258e-001

1.74110112659224e+004,-1.64896603221347e+001,-3.94885409815896e-001

1.76540599258131e+004,-1.64896634523873e+001,-4.00397303371286e-001

1.79005014185594e+004,-1.64896666705024e+001,-4.05986118835735e-001

1.81503831063432e+004,-1.64896699789423e+001,-4.11652929096955e-001

1.84037530124975e+004,-1.64896733802378e+001,-4.17398821984389e-001

1.86606598307361e+004,-1.64896768769904e+001,-4.23224900471205e-001

1.89211529345119e+004,-1.64896804718744e+001,-4.29132282887600e-001

1.91852823865052e+004,-1.64896841676388e+001,-4.35122103130685e-001

1.94530989482457e+004,-1.64896879671088e+001,-4.41195510883032e-001

1.97246540898671e+004,-1.64896918731891e+001,-4.47353671827591e-001

1.99999999999999e+004,-1.64896958888650e+001,-4.53597767871696e-001

2.02791895958005e+004,-1.64897000172052e+001,-4.59928997370713e-001

2.05622765331213e+004,-1.64897042613639e+001,-4.66348575355133e-001

2.08493152168224e+004,-1.64897086245833e+001,-4.72857733761753e-001

2.11403608112276e+004,-1.64897131101959e+001,-4.79457721667031e-001

2.14354692507258e+004,-1.64897177216273e+001,-4.86149805522556e-001

2.17346972505211e+004,-1.64897224623979e+001,-4.92935269399548e-001

2.20381023175322e+004,-1.64897273361269e+001,-4.99815415225943e-001

2.23457427614443e+004,-1.64897323465336e+001,-5.06791563037903e-001

2.26576777059159e+004,-1.64897374974414e+001,-5.13865051227137e-001

2.29739670999406e+004,-1.64897427927798e+001,-5.21037236794919e-001

2.32946717293690e+004,-1.64897482365874e+001,-5.28309495609628e-001

2.36198532285905e+004,-1.64897538330154e+001,-5.35683222665882e-001

2.39495740923785e+004,-1.64897595863305e+001,-5.43159832347036e-001

2.42838976879009e+004,-1.64897655009177e+001,-5.50740758695340e-001

2.46228882668982e+004,-1.64897715812839e+001,-5.58427455680031e-001

2.49666109780322e+004,-1.64897778320614e+001,-5.66221397473389e-001

2.53151318794055e+004,-1.64897842580107e+001,-5.74124078727772e-001

2.56685179512580e+004,-1.64897908640248e+001,-5.82137014858289e-001

2.60268371088386e+004,-1.64897976551322e+001,-5.90261742327510e-001

2.63901582154578e+004,-1.64898046365010e+001,-5.98499818934778e-001

2.67585510957221e+004,-1.64898118134427e+001,-6.06852824109841e-001

2.71320865489533e+004,-1.64898191914156e+001,-6.15322359210972e-001

2.75108363627948e+004,-1.64898267760294e+001,-6.23910047824520e-001

2.78948733270080e+004,-1.64898345730495e+001,-6.32617536068990e-001

2.82842712474618e+004,-1.64898425884001e+001,-6.41446492908043e-001

2.86791049603164e+004,-1.64898508281701e+001,-6.50398610458450e-001

2.90794503464061e+004,-1.64898592986161e+001,-6.59475604312871e-001

2.94853843458219e+004,-1.64898680061682e+001,-6.68679213856342e-001

2.98969849726987e+004,-1.64898769574337e+001,-6.78011202596016e-001

3.03143313302078e+004,-1.64898861592025e+001,-6.87473358488544e-001

3.07375036257601e+004,-1.64898956184518e+001,-6.97067494275927e-001

3.11665831864199e+004,-1.64899053423517e+001,-7.06795447822705e-001

3.16016524745350e+004,-1.64899153382694e+001,-7.16659082460709e-001

3.20427951035848e+004,-1.64899256137754e+001,-7.26660287336816e-001

3.24900958542493e+004,-1.64899361766485e+001,-7.36800977763565e-001

3.29436406907028e+004,-1.64899470348819e+001,-7.47083095576682e-001

3.34035167771346e+004,-1.64899581966884e+001,-7.57508609496893e-001

3.38698124945009e+004,-1.64899696705066e+001,-7.68079515495390e-001

3.43426174575100e+004,-1.64899814650069e+001,-7.78797837165397e-001

3.48220225318448e+004,-1.64899935890979e+001,-7.89665626096972e-001

3.53081198516260e+004,-1.64900060519323e+001,-8.00684962257842e-001

3.58010028371187e+004,-1.64900188629142e+001,-8.11857954378028e-001

3.63007662126863e+004,-1.64900320317047e+001,-8.23186740341671e-001

3.68075060249948e+004,-1.64900455682300e+001,-8.34673487580751e-001

3.73213196614721e+004,-1.64900594826875e+001,-8.46320393475878e-001

3.78423058690237e+004,-1.64900737855534e+001,-8.58129685761889e-001

3.83705647730104e+004,-1.64900884875901e+001,-8.70103622938776e-001

3.89061978964912e+004,-1.64901035998535e+001,-8.82244494686179e-001

3.94493081797342e+004,-1.64901191337012e+001,-8.94554622285369e-001

3.99999999999998e+004,-1.64901351008003e+001,-9.07036359044826e-001

4.05583791916010e+004,-1.64901515131351e+001,-9.19692090733546e-001

4.11245530662425e+004,-1.64901683830160e+001,-9.32524236016032e-001

4.16986304336447e+004,-1.64901857230880e+001,-9.45535246895384e-001

4.22807216224550e+004,-1.64902035463392e+001,-9.58727609162431e-001

4.28709385014515e+004,-1.64902218661097e+001,-9.72103842848041e-001

4.34693945010421e+004,-1.64902406961012e+001,-9.85666502683064e-001

4.40762046350642e+004,-1.64902600503861e+001,-9.99418178562548e-001

4.46914855228886e+004,-1.64902799434171e+001,-1.01336149601711e+000

4.53153554118317e+004,-1.64903003900371e+001,-1.02749911668941e+000

4.59479341998812e+004,-1.64903214054892e+001,-1.04183373881514e+000

4.65893434587380e+004,-1.64903430054273e+001,-1.05636809771158e+000

4.72397064571810e+004,-1.64903652059263e+001,-1.07110496627264e+000

4.78991481847569e+004,-1.64903880234931e+001,-1.08604715546763e+000

4.85677953758016e+004,-1.64904114750774e+001,-1.10119751484697e+000

4.92457765337964e+004,-1.64904355780834e+001,-1.11655893305576e+000

4.99332219560642e+004,-1.64904603503807e+001,-1.13213433835066e+000

5.06302637588109e+004,-1.64904858103169e+001,-1.14792669912402e+000

5.13370359025159e+004,-1.64905119767290e+001,-1.16393902443514e+000

5.20536742176771e+004,-1.64905388689557e+001,-1.18017436454799e+000

5.27803164309155e+004,-1.64905665068507e+001,-1.19663581147097e+000

5.35171021914442e+004,-1.64905949107948e+001,-1.21332649951039e+000

5.42641730979066e+004,-1.64906241017093e+001,-1.23024960582355e+000

5.50216727255895e+004,-1.64906541010696e+001,-1.24740835098199e+000

5.57897466540159e+004,-1.64906849309184e+001,-1.26480599954096e+000

5.65685424949235e+004,-1.64907166138804e+001,-1.28244586061352e+000

5.73582099206328e+004,-1.64907491731758e+001,-1.30033128845249e+000

5.81589006928121e+004,-1.64907826326354e+001,-1.31846568304048e+000

5.89707686916437e+004,-1.64908170167150e+001,-1.33685249068337e+000

5.97939699453972e+004,-1.64908523505110e+001,-1.35549520461300e+000

6.06286626604156e+004,-1.64908886597755e+001,-1.37439736559576e+000

6.14750072515201e+004,-1.64909259709320e+001,-1.39356256254756e+000

6.23331663728396e+004,-1.64909643110917e+001,-1.41299443315739e+000

6.32033049490698e+004,-1.64910037080696e+001,-1.43269666451428e+000

6.40855902071694e+004,-1.64910441904010e+001,-1.45267299374567e+000

6.49801917084985e+004,-1.64910857873589e+001,-1.47292720865820e+000

6.58872813814055e+004,-1.64911285289704e+001,-1.49346314839009e+000

6.68070335542691e+004,-1.64911724460352e+001,-1.51428470406549e+000

6.77396249890018e+004,-1.64912175701427e+001,-1.53539581945972e+000

6.86852349150199e+004,-1.64912639336903e+001,-1.55680049167184e+000

6.96440450636895e+004,-1.64913115699021e+001,-1.57850277179923e+000

7.06162397032520e+004,-1.64913605128468e+001,-1.60050676562721e+000

7.16020056742374e+004,-1.64914107974578e+001,-1.62281663431841e+000

7.26015324253724e+004,-1.64914624595516e+001,-1.64543659511354e+000

7.36150120499896e+004,-1.64915155358477e+001,-1.66837092203960e+000

7.46426393229441e+004,-1.64915700639884e+001,-1.69162394662278e+000

7.56846117380472e+004,-1.64916260825588e+001,-1.71520005861077e+000

7.67411295460207e+004,-1.64916836311076e+001,-1.73910370670164e+000

7.78123957929823e+004,-1.64917427501668e+001,-1.76333939928094e+000

7.88986163594682e+004,-1.64918034812739e+001,-1.78791170516412e+000

7.99999999999995e+004,-1.64918658669918e+001,-1.81282525435015e+000

8.11167583832018e+004,-1.64919299509308e+001,-1.83808473877819e+000

8.22491061324848e+004,-1.64919957777701e+001,-1.86369491309596e+000

8.33972608672892e+004,-1.64920633932796e+001,-1.88966059543222e+000

8.45614432449099e+004,-1.64921328443418e+001,-1.91598666817943e+000

8.57418770029029e+004,-1.64922041789740e+001,-1.94267807878287e+000

8.69387890020841e+004,-1.64922774463508e+001,-1.96973984053769e+000

8.81524092701283e+004,-1.64923526968265e+001,-1.99717703339362e+000

8.93829710457770e+004,-1.64924299819577e+001,-2.02499480476843e+000

9.06307108236633e+004,-1.64925093545263e+001,-2.05319837036721e+000

9.18958683997622e+004,-1.64925908685622e+001,-2.08179301501227e+000

9.31786869174758e+004,-1.64926745793660e+001,-2.11078409347903e+000

9.44794129143618e+004,-1.64927605435331e+001,-2.14017703133983e+000

9.57982963695136e+004,-1.64928488189751e+001,-2.16997732581874e+000

9.71355907516031e+004,-1.64929394649445e+001,-2.20019054664968e+000

9.84915530675926e+004,-1.64930325420569e+001,-2.23082233694875e+000

9.98664439121282e+004,-1.64931281123139e+001,-2.26187841408966e+000

1.01260527517622e+005,-1.64932262391268e+001,-2.29336457059097e+000

1.02674071805032e+005,-1.64933269873388e+001,-2.32528667500980e+000

1.04107348435354e+005,-1.64934304232480e+001,-2.35765067284701e+000

1.05560632861831e+005,-1.64935366146301e+001,-2.39046258745778e+000

1.07034204382888e+005,-1.64936456307603e+001,-2.42372852097463e+000

1.08528346195813e+005,-1.64937575424360e+001,-2.45745465523580e+000

1.10043345451179e+005,-1.64938724219984e+001,-2.49164725272691e+000

1.11579493308032e+005,-1.64939903433539e+001,-2.52631265752911e+000

1.13137084989847e+005,-1.64941113819953e+001,-2.56145729627814e+000

1.14716419841265e+005,-1.64942356150229e+001,-2.59708767913324e+000

1.16317801385624e+005,-1.64943631211644e+001,-2.63321040075602e+000

1.17941537383287e+005,-1.64944939807950e+001,-2.66983214129841e+000

1.19587939890794e+005,-1.64946282759564e+001,-2.70695966740431e+000

1.21257325320831e+005,-1.64947660903758e+001,-2.74459983321796e+000

1.22950014503040e+005,-1.64949075094836e+001,-2.78275958140744e+000

1.24666332745679e+005,-1.64950526204308e+001,-2.82144594419658e+000

1.26406609898139e+005,-1.64952015121056e+001,-2.86066604441043e+000

1.28171180414339e+005,-1.64953542751492e+001,-2.90042709653162e+000

1.29960383416997e+005,-1.64955110019705e+001,-2.94073640777126e+000

1.31774562762811e+005,-1.64956717867600e+001,-2.98160137915033e+000

1.33614067108538e+005,-1.64958367255028e+001,-3.02302950659712e+000

1.35479249978003e+005,-1.64960059159904e+001,-3.06502838205606e+000

1.37370469830040e+005,-1.64961794578313e+001,-3.10760569461309e+000

1.39288090127379e+005,-1.64963574524610e+001,-3.15076923163428e+000

1.41232479406504e+005,-1.64965400031495e+001,-3.19452687992269e+000

1.43204011348474e+005,-1.64967272150092e+001,-3.23888662688801e+000

1.45203064850745e+005,-1.64969191949997e+001,-3.28385656173595e+000

1.47230024099979e+005,-1.64971160519323e+001,-3.32944487667388e+000

1.49285278645888e+005,-1.64973178964728e+001,-3.37565986813558e+000

1.51369223476094e+005,-1.64975248411424e+001,-3.42250993802375e+000

1.53482259092041e+005,-1.64977370003170e+001,-3.47000359497477e+000

1.55624791585964e+005,-1.64979544902255e+001,-3.51814945564310e+000

1.57797232718936e+005,-1.64981774289453e+001,-3.56695624600643e+000

1.59999999999999e+005,-1.64984059363967e+001,-3.61643280269655e+000

1.62233516766403e+005,-1.64986401343354e+001,-3.66658807435147e+000

1.64498212264969e+005,-1.64988801463432e+001,-3.71743112299352e+000

1.66794521734578e+005,-1.64991260978161e+001,-3.76897112543416e+000

1.69122886489819e+005,-1.64993781159510e+001,-3.82121737470588e+000

1.71483754005805e+005,-1.64996363297306e+001,-3.87417928152145e+000

1.73877578004168e+005,-1.64999008699058e+001,-3.92786637576471e+000

1.76304818540256e+005,-1.65001718689759e+001,-3.98228830801256e+000

1.78765942091554e+005,-1.65004494611671e+001,-4.03745485108877e+000

1.81261421647326e+005,-1.65007337824091e+001,-4.09337590165214e+000

1.83791736799524e+005,-1.65010249703092e+001,-4.15006148182160e+000

1.86357373834951e+005,-1.65013231641240e+001,-4.20752174083739e+000

1.88958825828723e+005,-1.65016285047302e+001,-4.26576695676127e+000

1.91596592739027e+005,-1.65019411345920e+001,-4.32480753821893e+000

1.94271181503206e+005,-1.65022611977278e+001,-4.38465402618284e+000

1.96983106135185e+005,-1.65025888396737e+001,-4.44531709580144e+000

1.99732887824256e+005,-1.65029242074463e+001,-4.50680755827140e+000

2.02521055035243e+005,-1.65032674495030e+001,-4.56913636276204e+000

2.05348143610063e+005,-1.65036187157008e+001,-4.63231459838596e+000

2.08214696870707e+005,-1.65039781572536e+001,-4.69635349622333e+000

2.11121265723661e+005,-1.65043459266879e+001,-4.76126443140001e+000

2.14068408765776e+005,-1.65047221777975e+001,-4.82705892522064e+000

2.17056692391625e+005,-1.65051070655966e+001,-4.89374864736086e+000

2.20086690902357e+005,-1.65055007462725e+001,-4.96134541811824e+000

2.23158986616063e+005,-1.65059033771373e+001,-5.02986121072589e+000

2.26274169979693e+005,-1.65063151165784e+001,-5.09930815373063e+000

2.29432839682530e+005,-1.65067361240104e+001,-5.16969853343544e+000

2.32635602771247e+005,-1.65071665598251e+001,-5.24104479641176e+000

2.35883074766574e+005,-1.65076065853430e+001,-5.31335955208191e+000

2.39175879781588e+005,-1.65080563627649e+001,-5.38665557537148e+000

2.42514650641661e+005,-1.65085160551247e+001,-5.46094580943802e+000

2.45900029006080e+005,-1.65089858262431e+001,-5.53624336847429e+000

2.49332665491357e+005,-1.65094658406832e+001,-5.61256154058909e+000

2.52813219796278e+005,-1.65099562637080e+001,-5.68991379076841e+000

2.56342360828676e+005,-1.65104572612410e+001,-5.76831376391529e+000

2.59920766833993e+005,-1.65109689998285e+001,-5.84777528797496e+000

2.63549125525621e+005,-1.65114916466065e+001,-5.92831237714042e+000

2.67228134217075e+005,-1.65120253692710e+001,-6.00993923514637e+000

2.70958499956006e+005,-1.65125703360525e+001,-6.09267025864651e+000

2.74740939660078e+005,-1.65131267156961e+001,-6.17652004067920e+000

2.78576180254757e+005,-1.65136946774464e+001,-6.26150337422112e+000

2.82464958813007e+005,-1.65142743910389e+001,-6.34763525582830e+000

2.86408022696948e+005,-1.65148660266980e+001,-6.43493088936753e+000

2.90406129701488e+005,-1.65154697551422e+001,-6.52340568983456e+000

2.94460048199957e+005,-1.65160857475974e+001,-6.61307528726350e+000

2.98570557291775e+005,-1.65167141758186e+001,-6.70395553072403e+000

3.02738446952187e+005,-1.65173552121208e+001,-6.79606249240576e+000

3.06964518184081e+005,-1.65180090294195e+001,-6.88941247179247e+000

3.11249583171928e+005,-1.65186758012822e+001,-6.98402199991994e+000

3.15594465437872e+005,-1.65193557019910e+001,-7.07990784372122e+000

3.19999999999997e+005,-1.65200489066160e+001,-7.17708701045392e+000

3.24467033532806e+005,-1.65207555911030e+001,-7.27557675221009e+000

3.28996424529938e+005,-1.65214759323722e+001,-7.37539457050560e+000

3.33589043469155e+005,-1.65222101084326e+001,-7.47655822094605e+000

3.38245772979638e+005,-1.65229582985094e+001,-7.57908571796754e+000

3.42967508011610e+005,-1.65237206831868e+001,-7.68299533964924e+000

3.47755156008335e+005,-1.65244974445668e+001,-7.78830563259348e+000

3.52609637080511e+005,-1.65252887664435e+001,-7.89503541687076e+000

3.57531884183106e+005,-1.65260948344943e+001,-8.00320379102550e+000

3.62522843294651e+005,-1.65269158364886e+001,-8.11283013713817e+000

3.67583473599047e+005,-1.65277519625135e+001,-8.22393412594042e+000

3.72714747669902e+005,-1.65286034052184e+001,-8.33653572197699e+000

3.77917651657445e+005,-1.65294703600774e+001,-8.45065518881129e+000

3.83193185478053e+005,-1.65303530256710e+001,-8.56631309426825e+000

3.88542363006410e+005,-1.65312516039865e+001,-8.68353031571026e+000

3.93966212270369e+005,-1.65321663007385e+001,-8.80232804534027e+000

3.99465775648511e+005,-1.65330973257085e+001,-8.92272779552614e+000

4.05042110070485e+005,-1.65340448931044e+001,-9.04475140414186e+000

4.10696287220124e+005,-1.65350092219403e+001,-9.16842103991809e+000

4.16429393741414e+005,-1.65359905364350e+001,-9.29375920779862e+000

4.22242531447321e+005,-1.65369890664326e+001,-9.42078875429368e+000

4.28136817531551e+005,-1.65380050478407e+001,-9.54953287282750e+000

4.34113384783250e+005,-1.65390387230897e+001,-9.68001510907223e+000

4.40173381804713e+005,-1.65400903416113e+001,-9.81225936626252e+000

4.46317973232124e+005,-1.65411601603363e+001,-9.94628991048654e+000

4.52548339959385e+005,-1.65422484442113e+001,-1.00821313759458e+001

4.58865679365059e+005,-1.65433554667343e+001,-1.02198087701800e+001

4.65271205542494e+005,-1.65444815105081e+001,-1.03593474792498e+001

4.71766149533147e+005,-1.65456268678122e+001,-1.05007732728754e+001

4.78351759563174e+005,-1.65467918411911e+001,-1.06441123095224e+001

4.85029301283321e+005,-1.65479767440599e+001,-1.07893911414324e+001

4.91800058012158e+005,-1.65491819013260e+001,-1.09366367195947e+001

4.98665330982714e+005,-1.65504076500256e+001,-1.10858763986533e+001

5.05626439592555e+005,-1.65516543399758e+001,-1.12371379417455e+001

5.12684721657352e+005,-1.65529223344406e+001,-1.13904495252711e+001

5.19841533667984e+005,-1.65542120108093e+001,-1.15458397435862e+001

5.27098251051240e+005,-1.65555237612890e+001,-1.17033376136208e+001

5.34456268434150e+005,-1.65568579936074e+001,-1.18629725794175e+001

5.41916999912011e+005,-1.65582151317279e+001,-1.20247745165883e+001

