Freq.,VOut,OutRef

1.00000000000000e+004,-2.11074112504229e+000,-3.91375723034122e-002

1.01395947979003e+004,-2.11074113972058e+000,-3.96839095903980e-002

1.02811382665607e+004,-2.11074115481104e+000,-4.02378733404842e-002

1.04246576084112e+004,-2.11074117032513e+000,-4.07995700104358e-002

1.05701804056138e+004,-2.11074118627484e+000,-4.13691075415316e-002

1.07177346253629e+004,-2.11074120267274e+000,-4.19465953807546e-002

1.08673486252606e+004,-2.11074121953059e+000,-4.25321445091294e-002

1.10190511587661e+004,-2.11074123686201e+000,-4.31258674477142e-002

1.11728713807222e+004,-2.11074125467991e+000,-4.37278782942881e-002

1.13288388529580e+004,-2.11074127299815e+000,-4.43382927359663e-002

1.14869835499703e+004,-2.11074129183077e+000,-4.49572280753417e-002

1.16473358646846e+004,-2.11074131119177e+000,-4.55848032555566e-002

1.18099266142953e+004,-2.11074133109650e+000,-4.62211388731850e-002

1.19747870461893e+004,-2.11074135155975e+000,-4.68663572144438e-002

1.21419488439505e+004,-2.11074137259747e+000,-4.75205822675772e-002

1.23114441334492e+004,-2.11074139422566e+000,-4.81839397534380e-002

1.24833054890161e+004,-2.11074141646096e+000,-4.88565571468493e-002

1.26575659397028e+004,-2.11074143932007e+000,-4.95385637040018e-002

1.28342589756290e+004,-2.11074146282080e+000,-5.02300904811042e-002

1.30134185544193e+004,-2.11074148698099e+000,-5.09312703659482e-002

1.31950791077289e+004,-2.11074151181930e+000,-5.16422380995129e-002

1.33792755478611e+004,-2.11074153735424e+000,-5.23631303074006e-002

1.35660432744767e+004,-2.11074156360595e+000,-5.30940855146334e-002

1.37554181813974e+004,-2.11074159059383e+000,-5.38352441875467e-002

1.39474366635040e+004,-2.11074161833916e+000,-5.45867487450070e-002

1.41421356237309e+004,-2.11074164686269e+000,-5.53487436001948e-002

1.43395524801583e+004,-2.11074167618601e+000,-5.61213751798692e-002

1.45397251732031e+004,-2.11074170633227e+000,-5.69047919484179e-002

1.47426921729110e+004,-2.11074173732395e+000,-5.76991444503809e-002

1.49484924863494e+004,-2.11074176918449e+000,-5.85045853290171e-002

1.51571656651040e+004,-2.11074180193880e+000,-5.93212693528692e-002

1.53687518128801e+004,-2.11074183561172e+000,-6.01493534548096e-002

1.55832915932100e+004,-2.11074187022847e+000,-6.09889967598234e-002

1.58008262372675e+004,-2.11074190581599e+000,-6.18403606069796e-002

1.60213975517924e+004,-2.11074194240121e+000,-6.27036085917160e-002

1.62450479271247e+004,-2.11074198001190e+000,-6.35789065915472e-002

1.64718203453514e+004,-2.11074201867704e+000,-6.44664227960139e-002

1.67017583885674e+004,-2.11074205842577e+000,-6.53663277462728e-002

1.69349062472505e+004,-2.11074209928842e+000,-6.62787943599093e-002

1.71713087287550e+004,-2.11074214129632e+000,-6.72039979675804e-002

1.74110112659224e+004,-2.11074218448117e+000,-6.81421163482384e-002

1.76540599258131e+004,-2.11074222887612e+000,-6.90933297589530e-002

1.79005014185594e+004,-2.11074227451464e+000,-7.00578209756818e-002

1.81503831063432e+004,-2.11074232143174e+000,-7.10357753206107e-002

1.84037530124975e+004,-2.11074236966310e+000,-7.20273807038689e-002

1.86606598307361e+004,-2.11074241924525e+000,-7.30328276582250e-002

1.89211529345119e+004,-2.11074247021565e+000,-7.40523093756117e-002

1.91852823865052e+004,-2.11074252261346e+000,-7.50860217390602e-002

1.94530989482457e+004,-2.11074257647839e+000,-7.61341633684145e-002

1.97246540898671e+004,-2.11074263185111e+000,-7.71969356554428e-002

1.99999999999999e+004,-2.11074268877377e+000,-7.82745427994577e-002

2.02791895958005e+004,-2.11074274728964e+000,-7.93671918492874e-002

2.05622765331213e+004,-2.11074280744298e+000,-8.04750927432385e-002

2.08493152168224e+004,-2.11074286927958e+000,-8.15984583473031e-002

2.11403608112276e+004,-2.11074293284597e+000,-8.27375044999521e-002

2.14354692507258e+004,-2.11074299819050e+000,-8.38924500478935e-002

2.17346972505211e+004,-2.11074306536282e+000,-8.50635168908507e-002

2.20381023175322e+004,-2.11074313441342e+000,-8.62509300276329e-002

2.23457427614443e+004,-2.11074320539484e+000,-8.74549175916518e-002

2.26576777059159e+004,-2.11074327836065e+000,-8.86757109016173e-002

2.29739670999406e+004,-2.11074335336610e+000,-8.99135445014678e-002

2.32946717293690e+004,-2.11074343046753e+000,-9.11686562098490e-002

2.36198532285905e+004,-2.11074350972352e+000,-9.24412871588360e-002

2.39495740923785e+004,-2.11074359119370e+000,-9.37316818464554e-002

2.42838976879009e+004,-2.11074367493978e+000,-9.50400881797162e-002

2.46228882668982e+004,-2.11074376102437e+000,-9.63667575276200e-002

2.49666109780322e+004,-2.11074384951298e+000,-9.77119447582898e-002

2.53151318794055e+004,-2.11074394047175e+000,-9.90759083015619e-002

2.56685179512580e+004,-2.11074403396961e+000,-1.00458910186364e-001

2.60268371088386e+004,-2.11074413007639e+000,-1.01861216101554e-001

2.63901582154578e+004,-2.11074422886472e+000,-1.03283095436332e-001

2.67585510957221e+004,-2.11074433040861e+000,-1.04724821340614e-001

2.71320865489533e+004,-2.11074443478424e+000,-1.06186670772640e-001

2.75108363627948e+004,-2.11074454207020e+000,-1.07668924551270e-001

2.78948733270080e+004,-2.11074465234672e+000,-1.09171867414163e-001

2.82842712474618e+004,-2.11074476569665e+000,-1.10695788067412e-001

2.86791049603164e+004,-2.11074488220444e+000,-1.12240979246459e-001

2.90794503464061e+004,-2.11074500195764e+000,-1.13807737764238e-001

2.94853843458219e+004,-2.11074512504563e+000,-1.15396364575789e-001

2.98969849726987e+004,-2.11074525156038e+000,-1.17007164830389e-001

3.03143313302078e+004,-2.11074538159619e+000,-1.18640447934463e-001

3.07375036257601e+004,-2.11074551525025e+000,-1.20296527604996e-001

3.11665831864199e+004,-2.11074565262201e+000,-1.21975721936111e-001

3.16016524745350e+004,-2.11074579381374e+000,-1.23678353454579e-001

3.20427951035848e+004,-2.11074593893041e+000,-1.25404749184782e-001

3.24900958542493e+004,-2.11074608807988e+000,-1.27155240709225e-001

3.29436406907028e+004,-2.11074624137289e+000,-1.28930164232814e-001

3.34035167771346e+004,-2.11074639892327e+000,-1.30729860646267e-001

3.38698124945009e+004,-2.11074656084733e+000,-1.32554675595421e-001

3.43426174575100e+004,-2.11074672726537e+000,-1.34404959538494e-001

3.48220225318448e+004,-2.11074689829995e+000,-1.36281067823975e-001

3.53081198516260e+004,-2.11074707407762e+000,-1.38183360748782e-001

3.58010028371187e+004,-2.11074725472812e+000,-1.40112203631961e-001

3.63007662126863e+004,-2.11074744038425e+000,-1.42067966886311e-001

3.68075060249948e+004,-2.11074763118281e+000,-1.44051026083325e-001

3.73213196614721e+004,-2.11074782726406e+000,-1.46061762029026e-001

3.78423058690237e+004,-2.11074802877161e+000,-1.48100560837636e-001

3.83705647730104e+004,-2.11074823585346e+000,-1.50167813999759e-001

3.89061978964912e+004,-2.11074844866085e+000,-1.52263918464676e-001

3.94493081797342e+004,-2.11074866734962e+000,-1.54389276707770e-001

3.99999999999998e+004,-2.11074889207924e+000,-1.56544296814498e-001

4.05583791916010e+004,-2.11074912301361e+000,-1.58729392553293e-001

4.11245530662425e+004,-2.11074936032051e+000,-1.60944983458774e-001

4.16986304336447e+004,-2.11074960417248e+000,-1.63191494906942e-001

4.22807216224550e+004,-2.11074985474649e+000,-1.65469358198547e-001

4.28709385014515e+004,-2.11075011222366e+000,-1.67779010644409e-001

4.34693945010421e+004,-2.11075037679034e+000,-1.70120895641458e-001

4.40762046350642e+004,-2.11075064863739e+000,-1.72495462763194e-001

4.46914855228886e+004,-2.11075092796060e+000,-1.74903167843715e-001

4.53153554118317e+004,-2.11075121496057e+000,-1.77344473064206e-001

4.59479341998812e+004,-2.11075150984346e+000,-1.79819847039389e-001

4.65893434587380e+004,-2.11075181282020e+000,-1.82329764909646e-001

4.72397064571810e+004,-2.11075212410751e+000,-1.84874708428055e-001

4.78991481847569e+004,-2.11075244392716e+000,-1.87455166055900e-001

4.85677953758016e+004,-2.11075277250667e+000,-1.90071633052182e-001

4.92457765337964e+004,-2.11075311007944e+000,-1.92724611568185e-001

4.99332219560642e+004,-2.11075345688450e+000,-1.95414610744590e-001

5.06302637588109e+004,-2.11075381316667e+000,-1.98142146808426e-001

5.13370359025159e+004,-2.11075417917737e+000,-2.00907743166399e-001

5.20536742176771e+004,-2.11075455517380e+000,-2.03711930510160e-001

5.27803164309155e+004,-2.11075494141946e+000,-2.06555246915088e-001

5.35171021914442e+004,-2.11075533818454e+000,-2.09438237940264e-001

5.42641730979066e+004,-2.11075574574583e+000,-2.12361456732944e-001

5.50216727255895e+004,-2.11075616438667e+000,-2.15325464135619e-001

5.57897466540159e+004,-2.11075659439723e+000,-2.18330828790212e-001

5.65685424949235e+004,-2.11075703607478e+000,-2.21378127245588e-001

5.73582099206328e+004,-2.11075748972374e+000,-2.24467944067406e-001

5.81589006928121e+004,-2.11075795565558e+000,-2.27600871949100e-001

5.89707686916437e+004,-2.11075843418920e+000,-2.30777511824375e-001

5.97939699453972e+004,-2.11075892565134e+000,-2.33998472977050e-001

6.06286626604156e+004,-2.11075943037578e+000,-2.37264373163988e-001

6.14750072515201e+004,-2.11075994870462e+000,-2.40575838723338e-001

6.23331663728396e+004,-2.11076048098754e+000,-2.43933504698926e-001

6.32033049490698e+004,-2.11076102758230e+000,-2.47338014957974e-001

6.40855902071694e+004,-2.11076158885489e+000,-2.50790022312198e-001

6.49801917084985e+004,-2.11076216517943e+000,-2.54290188642131e-001

6.58872813814055e+004,-2.11076275693865e+000,-2.57839185020814e-001

6.68070335542691e+004,-2.11076336452364e+000,-2.61437691841941e-001

6.77396249890018e+004,-2.11076398833419e+000,-2.65086398946390e-001

6.86852349150199e+004,-2.11076462877890e+000,-2.68786005753361e-001

6.96440450636895e+004,-2.11076528627521e+000,-2.72537221391868e-001

7.06162397032520e+004,-2.11076596124926e+000,-2.76340764835127e-001

7.16020056742374e+004,-2.11076665413697e+000,-2.80197365031469e-001

7.26015324253724e+004,-2.11076736538267e+000,-2.84107761049322e-001

7.36150120499896e+004,-2.11076809544043e+000,-2.88072702208622e-001

7.46426393229441e+004,-2.11076884477355e+000,-2.92092948225707e-001

7.56846117380472e+004,-2.11076961385487e+000,-2.96169269354696e-001

7.67411295460207e+004,-2.11077040316657e+000,-3.00302446533174e-001

7.78123957929823e+004,-2.11077121320066e+000,-3.04493271526758e-001

7.88986163594682e+004,-2.11077204445860e+000,-3.08742547080128e-001

7.99999999999995e+004,-2.11077289745184e+000,-3.13051087064549e-001

8.11167583832018e+004,-2.11077377270108e+000,-3.17419716634473e-001

8.22491061324848e+004,-2.11077467073728e+000,-3.21849272377689e-001

8.33972608672892e+004,-2.11077559210101e+000,-3.26340602474721e-001

8.45614432449099e+004,-2.11077653734265e+000,-3.30894566856515e-001

8.57418770029029e+004,-2.11077750702231e+000,-3.35512037366000e-001

8.69387890020841e+004,-2.11077850171003e+000,-3.40193897920358e-001

8.81524092701283e+004,-2.11077952198538e+000,-3.44941044676557e-001

8.93829710457770e+004,-2.11078056843788e+000,-3.49754386198178e-001

9.06307108236633e+004,-2.11078164166645e+000,-3.54634843625857e-001

9.18958683997622e+004,-2.11078274227978e+000,-3.59583350848025e-001

9.31786869174758e+004,-2.11078387089560e+000,-3.64600854677725e-001

9.44794129143618e+004,-2.11078502814137e+000,-3.69688315025030e-001

9.57982963695136e+004,-2.11078621465344e+000,-3.74846705078769e-001

9.71355907516031e+004,-2.11078743107717e+000,-3.80077011487942e-001

9.84915530675926e+004,-2.11078867806671e+000,-3.85380234543274e-001

9.98664439121282e+004,-2.11078995628472e+000,-3.90757388365607e-001

1.01260527517622e+005,-2.11079126640224e+000,-3.96209501092663e-001

1.02674071805032e+005,-2.11079260909820e+000,-4.01737615071635e-001

1.04107348435354e+005,-2.11079398505942e+000,-4.07342787051016e-001

1.05560632861831e+005,-2.11079539497966e+000,-4.13026088380715e-001

1.07034204382888e+005,-2.11079683956006e+000,-4.18788605205747e-001

1.08528346195813e+005,-2.11079831950794e+000,-4.24631438672076e-001

1.10043345451179e+005,-2.11079983553681e+000,-4.30555705129633e-001

1.11579493308032e+005,-2.11080138836586e+000,-4.36562536337222e-001

1.13137084989847e+005,-2.11080297871898e+000,-4.42653079677301e-001

1.14716419841265e+005,-2.11080460732471e+000,-4.48828498362978e-001

1.16317801385624e+005,-2.11080627491510e+000,-4.55089971658573e-001

1.17941537383287e+005,-2.11080798222552e+000,-4.61438695093887e-001

1.19587939890794e+005,-2.11080972999339e+000,-4.67875880689339e-001

1.21257325320831e+005,-2.11081151895786e+000,-4.74402757177422e-001

1.22950014503040e+005,-2.11081334985839e+000,-4.81020570233171e-001

1.24666332745679e+005,-2.11081522343431e+000,-4.87730582702229e-001

1.26406609898139e+005,-2.11081714042364e+000,-4.94534074835996e-001

1.28171180414339e+005,-2.11081910156215e+000,-5.01432344527192e-001

1.29960383416997e+005,-2.11082110758170e+000,-5.08426707553784e-001

1.31774562762811e+005,-2.11082315920986e+000,-5.15518497817747e-001

1.33614067108538e+005,-2.11082525716799e+000,-5.22709067595417e-001

1.35479249978003e+005,-2.11082740217019e+000,-5.29999787785962e-001

1.37370469830040e+005,-2.11082959492166e+000,-5.37392048167433e-001

1.39288090127379e+005,-2.11083183611723e+000,-5.44887257651942e-001

1.41232479406504e+005,-2.11083412643977e+000,-5.52486844548523e-001

1.43204011348474e+005,-2.11083646655861e+000,-5.60192256825255e-001

1.45203064850745e+005,-2.11083885712740e+000,-5.68004962380971e-001

1.47230024099979e+005,-2.11084129878225e+000,-5.75926449316217e-001

1.49285278645888e+005,-2.11084379214020e+000,-5.83958226207591e-001

1.51369223476094e+005,-2.11084633779628e+000,-5.92101822391100e-001

1.53482259092041e+005,-2.11084893632207e+000,-6.00358788243538e-001

1.55624791585964e+005,-2.11085158826272e+000,-6.08730695472120e-001

1.57797232718936e+005,-2.11085429413481e+000,-6.17219137407078e-001

1.59999999999999e+005,-2.11085705442364e+000,-6.25825729297507e-001

1.62233516766403e+005,-2.11085986958077e+000,-6.34552108611990e-001

1.64498212264969e+005,-2.11086274002065e+000,-6.43399935346034e-001

1.66794521734578e+005,-2.11086566611799e+000,-6.52370892330815e-001

1.69122886489819e+005,-2.11086864820471e+000,-6.61466685547309e-001

1.71483754005805e+005,-2.11087168656656e+000,-6.70689044445980e-001

1.73877578004168e+005,-2.11087478143955e+000,-6.80039722272087e-001

1.76304818540256e+005,-2.11087793300697e+000,-6.89520496391989e-001

1.78765942091554e+005,-2.11088114139486e+000,-6.99133168630794e-001

1.81261421647326e+005,-2.11088440666892e+000,-7.08879565608766e-001

1.83791736799524e+005,-2.11088772883019e+000,-7.18761539086609e-001

1.86357373834951e+005,-2.11089110781108e+000,-7.28780966314088e-001

1.88958825828723e+005,-2.11089454347067e+000,-7.38939750388222e-001

1.91596592739027e+005,-2.11089803559079e+000,-7.49239820610237e-001

1.94271181503206e+005,-2.11090158387107e+000,-7.59683132854028e-001

1.96983106135185e+005,-2.11090518792435e+000,-7.70271669937887e-001

1.99732887824256e+005,-2.11090884727142e+000,-7.81007442003143e-001

2.02521055035243e+005,-2.11091256133646e+000,-7.91892486896350e-001

2.05348143610063e+005,-2.11091632944120e+000,-8.02928870562429e-001

2.08214696870707e+005,-2.11092015080010e+000,-8.14118687438088e-001

2.11121265723661e+005,-2.11092402451411e+000,-8.25464060857971e-001

2.14068408765776e+005,-2.11092794956567e+000,-8.36967143461075e-001

2.17056692391625e+005,-2.11093192481212e+000,-8.48630117610012e-001

2.20086690902357e+005,-2.11093594898033e+000,-8.60455195810902e-001

2.23158986616063e+005,-2.11094002065981e+000,-8.72444621147041e-001

2.26274169979693e+005,-2.11094413829704e+000,-8.84600667712263e-001

2.29432839682530e+005,-2.11094830018842e+000,-8.96925641058668e-001

2.32635602771247e+005,-2.11095250447408e+000,-9.09421878646137e-001

2.35883074766574e+005,-2.11095674913098e+000,-9.22091750302192e-001

2.39175879781588e+005,-2.11096103196582e+000,-9.34937658689911e-001

2.42514650641661e+005,-2.11096535060836e+000,-9.47962039781774e-001

2.45900029006080e+005,-2.11096970250417e+000,-9.61167363341995e-001

2.49332665491357e+005,-2.11097408490727e+000,-9.74556133419046e-001

2.52813219796278e+005,-2.11097849487314e+000,-9.88130888842531e-001

2.56342360828676e+005,-2.11098292925086e+000,-1.00189420373263e+000

2.59920766833993e+005,-2.11098738467609e+000,-1.01584868801497e+000

2.63549125525621e+005,-2.11099185756306e+000,-1.02999698794534e+000

2.67228134217075e+005,-2.11099634409729e+000,-1.04434178664308e+000

2.70958499956006e+005,-2.11100084022777e+000,-1.05888580463340e+000

2.74740939660078e+005,-2.11100534165927e+000,-1.07363180039877e+000

2.78576180254757e+005,-2.11100984384465e+000,-1.08858257093892e+000

2.82464958813007e+005,-2.11101434197707e+000,-1.10374095234088e+000

2.86408022696948e+005,-2.11101883098215e+000,-1.11910982035838e+000

2.90406129701488e+005,-2.11102330551048e+000,-1.13469209099958e+000

2.94460048199957e+005,-2.11102775992976e+000,-1.15049072112604e+000

2.98570557291775e+005,-2.11103218831717e+000,-1.16650870905973e+000

3.02738446952187e+005,-2.11103658445188e+000,-1.18274909520083e+000

3.06964518184081e+005,-2.11104094180721e+000,-1.19921496265661e+000

3.11249583171928e+005,-2.11104525354367e+000,-1.21590943787622e+000

3.15594465437872e+005,-2.11104951250111e+000,-1.23283569130111e+000

3.19999999999997e+005,-2.11105371119187e+000,-1.24999693802016e+000

3.24467033532806e+005,-2.11105784179354e+000,-1.26739643843836e+000

3.28996424529938e+005,-2.11106189614198e+000,-1.28503749895497e+000

3.33589043469155e+005,-2.11106586572452e+000,-1.30292347265149e+000

3.38245772979638e+005,-2.11106974167336e+000,-1.32105775998912e+000

3.42967508011610e+005,-2.11107351475911e+000,-1.33944380951963e+000

3.47755156008335e+005,-2.11107717538431e+000,-1.35808511860298e+000

3.52609637080511e+005,-2.11108071357778e+000,-1.37698523413657e+000

3.57531884183106e+005,-2.11108411898840e+000,-1.39614775329598e+000

3.62522843294651e+005,-2.11108738087951e+000,-1.41557632428551e+000

3.67583473599047e+005,-2.11109048812355e+000,-1.43527464709809e+000

3.72714747669902e+005,-2.11109342919692e+000,-1.45524647428636e+000

3.77917651657445e+005,-2.11109619217478e+000,-1.47549561174557e+000

3.83193185478053e+005,-2.11109876472660e+000,-1.49602591950366e+000

3.88542363006410e+005,-2.11110113411141e+000,-1.51684131252517e+000

3.93966212270369e+005,-2.11110328717372e+000,-1.53794576152240e+000

3.99465775648511e+005,-2.11110521033928e+000,-1.55934329377996e+000

4.05042110070485e+005,-2.11110688961157e+000,-1.58103799398705e+000

4.10696287220124e+005,-2.11110831056783e+000,-1.60303400508184e+000

4.16429393741414e+005,-2.11110945835606e+000,-1.62533552910433e+000

4.22242531447321e+005,-2.11111031769146e+000,-1.64794682806285e+000

4.28136817531551e+005,-2.11111087285384e+000,-1.67087222480564e+000

4.34113384783250e+005,-2.11111110768434e+000,-1.69411610390887e+000

4.40173381804713e+005,-2.11111100558321e+000,-1.71768291256897e+000

4.46317973232124e+005,-2.11111054950708e+000,-1.74157716150980e+000

4.52548339959385e+005,-2.11110972196651e+000,-1.76580342589753e+000

4.58865679365059e+005,-2.11110850502369e+000,-1.79036634626738e+000

4.65271205542494e+005,-2.11110688029035e+000,-1.81527062945875e+000

4.71766149533147e+005,-2.11110482892535e+000,-1.84052104956345e+000

4.78351759563174e+005,-2.11110233163264e+000,-1.86612244888149e+000

4.85029301283321e+005,-2.11109936865889e+000,-1.89207973889002e+000

4.91800058012158e+005,-2.11109591979153e+000,-1.91839790122021e+000

4.98665330982714e+005,-2.11109196435602e+000,-1.94508198864763e+000

5.05626439592555e+005,-2.11108748121370e+000,-1.97213712609063e+000

5.12684721657352e+005,-2.11108244875910e+000,-1.99956851162181e+000

5.19841533667984e+005,-2.11107684491712e+000,-2.02738141748905e+000

5.27098251051240e+005,-2.11107064713990e+000,-2.05558119114906e+000

5.34456268434150e+005,-2.11106383240379e+000,-2.08417325631063e+000

5.41916999912011e+005,-2.11105637720554e+000,-2.11316311399095e+000

