Freq.,VOut,OutRef

1.00000000000000e+004,-2.40558525010478e+001,-5.70243968119272e-002

1.01395947979003e+004,-2.40558526729632e+001,-5.78204109730709e-002

1.02811382665607e+004,-2.40558528497092e+001,-5.86275363660826e-002

1.04246576084112e+004,-2.40558530314211e+001,-5.94459280691932e-002

1.05701804056138e+004,-2.40558532182389e+001,-6.02757433201654e-002

1.07177346253629e+004,-2.40558534103054e+001,-6.11171415560691e-002

1.08673486252606e+004,-2.40558536077681e+001,-6.19702844344260e-002

1.10190511587661e+004,-2.40558538107786e+001,-6.28353358675815e-002

1.11728713807222e+004,-2.40558540194928e+001,-6.37124620563098e-002

1.13288388529580e+004,-2.40558542340706e+001,-6.46018315193405e-002

1.14869835499703e+004,-2.40558544546768e+001,-6.55036151256662e-002

1.16473358646846e+004,-2.40558546814806e+001,-6.64179861279403e-002

1.18099266142953e+004,-2.40558549146557e+001,-6.73451201977008e-002

1.19747870461893e+004,-2.40558551543814e+001,-6.82851954520075e-002

1.21419488439505e+004,-2.40558554008412e+001,-6.92383924985604e-002

1.23114441334492e+004,-2.40558556542244e+001,-7.02048944586940e-002

1.24833054890161e+004,-2.40558559147252e+001,-7.11848870104170e-002

1.26575659397028e+004,-2.40558561825433e+001,-7.21785584228813e-002

1.28342589756290e+004,-2.40558564578841e+001,-7.31860995895274e-002

1.30134185544193e+004,-2.40558567409587e+001,-7.42077040648508e-002

1.31950791077289e+004,-2.40558570319843e+001,-7.52435681052366e-002

1.33792755478611e+004,-2.40558573311836e+001,-7.62938907037854e-002

1.35660432744767e+004,-2.40558576387863e+001,-7.73588736263948e-002

1.37554181813974e+004,-2.40558579550281e+001,-7.84387214555706e-002

1.39474366635040e+004,-2.40558582801514e+001,-7.95336416242201e-002

1.41421356237309e+004,-2.40558586144055e+001,-8.06438444593498e-002

1.43395524801583e+004,-2.40558589580461e+001,-8.17695432224920e-002

1.45397251732031e+004,-2.40558593113368e+001,-8.29109541458437e-002

1.47426921729110e+004,-2.40558596745480e+001,-8.40682964787777e-002

1.49484924863494e+004,-2.40558600479585e+001,-8.52417925244571e-002

1.51571656651040e+004,-2.40558604318540e+001,-8.64316676886000e-002

1.53687518128801e+004,-2.40558608265285e+001,-8.76381505190620e-002

1.55832915932100e+004,-2.40558612322842e+001,-8.88614727510024e-002

1.58008262372675e+004,-2.40558616494320e+001,-9.01018693473910e-002

1.60213975517924e+004,-2.40558620782912e+001,-9.13595785486798e-002

1.62450479271247e+004,-2.40558625191901e+001,-9.26348419160704e-002

1.64718203453514e+004,-2.40558629724663e+001,-9.39279043771679e-002

1.67017583885674e+004,-2.40558634384667e+001,-9.52390142749570e-002

1.69349062472505e+004,-2.40558639175480e+001,-9.65684234132658e-002

1.71713087287550e+004,-2.40558644100766e+001,-9.79163871062221e-002

1.74110112659224e+004,-2.40558649164296e+001,-9.92831642241777e-002

1.76540599258131e+004,-2.40558654369941e+001,-1.00669017248709e-001

1.79005014185594e+004,-2.40558659721686e+001,-1.02074212315657e-001

1.81503831063432e+004,-2.40558665223622e+001,-1.03499019272312e-001

1.84037530124975e+004,-2.40558670879956e+001,-1.04943711724557e-001

1.86606598307361e+004,-2.40558676695011e+001,-1.06408567093466e-001

1.89211529345119e+004,-2.40558682673239e+001,-1.07893866658878e-001

1.91852823865052e+004,-2.40558688819203e+001,-1.09399895626933e-001

1.94530989482457e+004,-2.40558695137600e+001,-1.10926943175566e-001

1.97246540898671e+004,-2.40558701633262e+001,-1.12475302506504e-001

1.99999999999999e+004,-2.40558708311148e+001,-1.14045270911982e-001

2.02791895958005e+004,-2.40558715176360e+001,-1.15637149820329e-001

2.05622765331213e+004,-2.40558722234140e+001,-1.17251244862409e-001

2.08493152168224e+004,-2.40558729489878e+001,-1.18887865923722e-001

2.11403608112276e+004,-2.40558736949112e+001,-1.20547327204575e-001

2.14354692507258e+004,-2.40558744617536e+001,-1.22229947282825e-001

2.17346972505211e+004,-2.40558752501001e+001,-1.23936049171282e-001

2.20381023175322e+004,-2.40558760605520e+001,-1.25665960381733e-001

2.23457427614443e+004,-2.40558768937278e+001,-1.27420012983766e-001

2.26576777059159e+004,-2.40558777502627e+001,-1.29198543671881e-001

2.29739670999406e+004,-2.40558786308097e+001,-1.31001893826671e-001

2.32946717293690e+004,-2.40558795360401e+001,-1.32830409580612e-001

2.36198532285905e+004,-2.40558804666437e+001,-1.34684441885390e-001

2.39495740923785e+004,-2.40558814233294e+001,-1.36564346575581e-001

2.42838976879009e+004,-2.40558824068259e+001,-1.38470484438649e-001

2.46228882668982e+004,-2.40558834178822e+001,-1.40403221281499e-001

2.49666109780322e+004,-2.40558844572681e+001,-1.42362928001423e-001

2.53151318794055e+004,-2.40558855257744e+001,-1.44349980656974e-001

2.56685179512580e+004,-2.40558866242143e+001,-1.46364760535973e-001

2.60268371088386e+004,-2.40558877534230e+001,-1.48407654233803e-001

2.63901582154578e+004,-2.40558889142594e+001,-1.50479053718641e-001

2.67585510957221e+004,-2.40558901076060e+001,-1.52579356411509e-001

2.71320865489533e+004,-2.40558913343693e+001,-1.54708965262929e-001

2.75108363627948e+004,-2.40558925954817e+001,-1.56868288821262e-001

2.78948733270080e+004,-2.40558938919006e+001,-1.59057741318861e-001

2.82842712474618e+004,-2.40558952246102e+001,-1.61277742745045e-001

2.86791049603164e+004,-2.40558965946219e+001,-1.63528718927461e-001

2.90794503464061e+004,-2.40558980029752e+001,-1.65811101610673e-001

2.94853843458219e+004,-2.40558994507381e+001,-1.68125328540238e-001

2.98969849726987e+004,-2.40559009390077e+001,-1.70471843545027e-001

3.03143313302078e+004,-2.40559024689122e+001,-1.72851096617522e-001

3.07375036257601e+004,-2.40559040416101e+001,-1.75263544003878e-001

3.11665831864199e+004,-2.40559056582921e+001,-1.77709648286242e-001

3.16016524745350e+004,-2.40559073201820e+001,-1.80189878469771e-001

3.20427951035848e+004,-2.40559090285366e+001,-1.82704710073889e-001

3.24900958542493e+004,-2.40559107846480e+001,-1.85254625218189e-001

3.29436406907028e+004,-2.40559125898431e+001,-1.87840112716750e-001

3.34035167771346e+004,-2.40559144454855e+001,-1.90461668167605e-001

3.38698124945009e+004,-2.40559163529767e+001,-1.93119794043718e-001

3.43426174575100e+004,-2.40559183137557e+001,-1.95814999794379e-001

3.48220225318448e+004,-2.40559203293018e+001,-1.98547801931606e-001

3.53081198516260e+004,-2.40559224011342e+001,-2.01318724135405e-001

3.58010028371187e+004,-2.40559245308140e+001,-2.04128297346088e-001

3.63007662126863e+004,-2.40559267199449e+001,-2.06977059865833e-001

3.68075060249948e+004,-2.40559289701742e+001,-2.09865557461482e-001

3.73213196614721e+004,-2.40559312831946e+001,-2.12794343459723e-001

3.78423058690237e+004,-2.40559336607444e+001,-2.15763978860653e-001

3.83705647730104e+004,-2.40559361046100e+001,-2.18775032432240e-001

3.89061978964912e+004,-2.40559386166257e+001,-2.21828080823548e-001

3.94493081797342e+004,-2.40559411986760e+001,-2.24923708669444e-001

3.99999999999998e+004,-2.40559438526968e+001,-2.28062508699986e-001

4.05583791916010e+004,-2.40559465806762e+001,-2.31245081849212e-001

4.11245530662425e+004,-2.40559493846564e+001,-2.34472037369824e-001

4.16986304336447e+004,-2.40559522667351e+001,-2.37743992942946e-001

4.22807216224550e+004,-2.40559552290664e+001,-2.41061574795654e-001

4.28709385014515e+004,-2.40559582738628e+001,-2.44425417817085e-001

4.34693945010421e+004,-2.40559614033967e+001,-2.47836165672172e-001

4.40762046350642e+004,-2.40559646200015e+001,-2.51294470925276e-001

4.46914855228886e+004,-2.40559679260738e+001,-2.54800995157905e-001

4.53153554118317e+004,-2.40559713240745e+001,-2.58356409093060e-001

4.59479341998812e+004,-2.40559748165305e+001,-2.61961392717478e-001

4.65893434587380e+004,-2.40559784060369e+001,-2.65616635407381e-001

4.72397064571810e+004,-2.40559820952579e+001,-2.69322836055118e-001

4.78991481847569e+004,-2.40559858869294e+001,-2.73080703198738e-001

4.85677953758016e+004,-2.40559897838602e+001,-2.76890955150595e-001

4.92457765337964e+004,-2.40559937889343e+001,-2.80754320129960e-001

4.99332219560642e+004,-2.40559979051123e+001,-2.84671536396536e-001

5.06302637588109e+004,-2.40560021354337e+001,-2.88643352386243e-001

5.13370359025159e+004,-2.40560064830189e+001,-2.92670526846042e-001

5.20536742176771e+004,-2.40560109510708e+001,-2.96753828973922e-001

5.27803164309155e+004,-2.40560155428773e+001,-3.00894038560272e-001

5.35171021914442e+004,-2.40560202618132e+001,-3.05091946126288e-001

5.42641730979066e+004,-2.40560251113423e+001,-3.09348353071699e-001

5.50216727255895e+004,-2.40560300950196e+001,-3.13664071817551e-001

5.57897466540159e+004,-2.40560352164938e+001,-3.18039925955365e-001

5.65685424949235e+004,-2.40560404795091e+001,-3.22476750394956e-001

5.73582099206328e+004,-2.40560458879079e+001,-3.26975391515355e-001

5.81589006928121e+004,-2.40560514456329e+001,-3.31536707318721e-001

5.89707686916437e+004,-2.40560571567296e+001,-3.36161567585203e-001

5.97939699453972e+004,-2.40560630253491e+001,-3.40850854026673e-001

6.06286626604156e+004,-2.40560690557499e+001,-3.45605460449620e-001

6.14750072515201e+004,-2.40560752523009e+001,-3.50426292911192e-001

6.23331663728396e+004,-2.40560816194841e+001,-3.55314269883942e-001

6.32033049490698e+004,-2.40560881618968e+001,-3.60270322420286e-001

6.40855902071694e+004,-2.40560948842548e+001,-3.65295394316598e-001

6.49801917084985e+004,-2.40561017913946e+001,-3.70390442283306e-001

6.58872813814055e+004,-2.40561088882765e+001,-3.75556436114820e-001

6.68070335542691e+004,-2.40561161799873e+001,-3.80794358860888e-001

6.77396249890018e+004,-2.40561236717433e+001,-3.86105207001491e-001

6.86852349150199e+004,-2.40561313688930e+001,-3.91489990623252e-001

6.96440450636895e+004,-2.40561392769203e+001,-3.96949733596106e-001

7.06162397032520e+004,-2.40561474014470e+001,-4.02485473757818e-001

7.16020056742374e+004,-2.40561557482365e+001,-4.08098263090296e-001

7.26015324253724e+004,-2.40561643231964e+001,-4.13789167910537e-001

7.36150120499896e+004,-2.40561731323817e+001,-4.19559269053247e-001

7.46426393229441e+004,-2.40561821819982e+001,-4.25409662062110e-001

7.56846117380472e+004,-2.40561914784051e+001,-4.31341457379513e-001

7.67411295460207e+004,-2.40562010281190e+001,-4.37355780540100e-001

7.78123957929823e+004,-2.40562108378165e+001,-4.43453772367984e-001

7.88986163594682e+004,-2.40562209143381e+001,-4.49636589171198e-001

7.99999999999995e+004,-2.40562312646907e+001,-4.55905402944950e-001

8.11167583832018e+004,-2.40562418960518e+001,-4.62261401573483e-001

8.22491061324848e+004,-2.40562528157723e+001,-4.68705789032060e-001

8.33972608672892e+004,-2.40562640313803e+001,-4.75239785597874e-001

8.45614432449099e+004,-2.40562755505841e+001,-4.81864628055850e-001

8.57418770029029e+004,-2.40562873812760e+001,-4.88581569912374e-001

8.69387890020841e+004,-2.40562995315356e+001,-4.95391881608417e-001

8.81524092701283e+004,-2.40563120096335e+001,-5.02296850736686e-001

8.93829710457770e+004,-2.40563248240343e+001,-5.09297782258761e-001

9.06307108236633e+004,-2.40563379834004e+001,-5.16395998729666e-001

9.18958683997622e+004,-2.40563514965955e+001,-5.23592840518695e-001

9.31786869174758e+004,-2.40563653726883e+001,-5.30889666036295e-001

9.44794129143618e+004,-2.40563796209553e+001,-5.38287851964626e-001

9.57982963695136e+004,-2.40563942508850e+001,-5.45788793486092e-001

9.71355907516031e+004,-2.40564092721809e+001,-5.53393904521144e-001

9.84915530675926e+004,-2.40564246947649e+001,-5.61104617962174e-001

9.98664439121282e+004,-2.40564405287813e+001,-5.68922385912348e-001

1.01260527517622e+005,-2.40564567845995e+001,-5.76848679930491e-001

1.02674071805032e+005,-2.40564734728174e+001,-5.84884991273783e-001

1.04107348435354e+005,-2.40564906042652e+001,-5.93032831145429e-001

1.05560632861831e+005,-2.40565081900080e+001,-6.01293730945531e-001

1.07034204382888e+005,-2.40565262413495e+001,-6.09669242524900e-001

1.08528346195813e+005,-2.40565447698348e+001,-6.18160938439013e-001

1.10043345451179e+005,-2.40565637872534e+001,-6.26770412210598e-001

1.11579493308032e+005,-2.40565833056423e+001,-6.35499278588371e-001

1.13137084989847e+005,-2.40566033372891e+001,-6.44349173813191e-001

1.14716419841265e+005,-2.40566238947340e+001,-6.53321755888562e-001

1.16317801385624e+005,-2.40566449907734e+001,-6.62418704848314e-001

1.17941537383287e+005,-2.40566666384616e+001,-6.71641723035104e-001

1.19587939890794e+005,-2.40566888511140e+001,-6.80992535375446e-001

1.21257325320831e+005,-2.40567116423087e+001,-6.90472889662028e-001

1.22950014503040e+005,-2.40567350258890e+001,-7.00084556839908e-001

1.24666332745679e+005,-2.40567590159651e+001,-7.09829331293562e-001

1.26406609898139e+005,-2.40567836269161e+001,-7.19709031139307e-001

1.28171180414339e+005,-2.40568088733919e+001,-7.29725498519972e-001

1.29960383416997e+005,-2.40568347703138e+001,-7.39880599907040e-001

1.31774562762811e+005,-2.40568613328768e+001,-7.50176226401079e-001

1.33614067108538e+005,-2.40568885765496e+001,-7.60614294041486e-001

1.35479249978003e+005,-2.40569165170760e+001,-7.71196744117517e-001

1.37370469830040e+005,-2.40569451704753e+001,-7.81925543483001e-001

1.39288090127379e+005,-2.40569745530426e+001,-7.92802684878621e-001

1.41232479406504e+005,-2.40570046813487e+001,-8.03830187255028e-001

1.43204011348474e+005,-2.40570355722399e+001,-8.15010096103214e-001

1.45203064850745e+005,-2.40570672428378e+001,-8.26344483787258e-001

1.47230024099979e+005,-2.40570997105379e+001,-8.37835449886641e-001

1.49285278645888e+005,-2.40571329930089e+001,-8.49485121536883e-001

1.51369223476094e+005,-2.40571671081909e+001,-8.61295653781618e-001

1.53482259092041e+005,-2.40572020742939e+001,-8.73269229926987e-001

1.55624791585964e+005,-2.40572379097954e+001,-8.85408061902334e-001

1.57797232718936e+005,-2.40572746334379e+001,-8.97714390626285e-001

1.59999999999999e+005,-2.40573122642260e+001,-9.10190486381202e-001

1.62233516766403e+005,-2.40573508214234e+001,-9.22838649190876e-001

1.64498212264969e+005,-2.40573903245486e+001,-9.35661209206113e-001

1.66794521734578e+005,-2.40574307933715e+001,-9.48660527097991e-001

1.69122886489819e+005,-2.40574722479084e+001,-9.61838994456454e-001

1.71483754005805e+005,-2.40575147084174e+001,-9.75199034197821e-001

1.73877578004168e+005,-2.40575581953930e+001,-9.88743100978387e-001

1.76304818540256e+005,-2.40576027295600e+001,-1.00247368161708e+000

1.78765942091554e+005,-2.40576483318679e+001,-1.01639329552607e+000

1.81261421647326e+005,-2.40576950234837e+001,-1.03050449514892e+000

1.83791736799524e+005,-2.40577428257852e+001,-1.04480986640821e+000

1.86357373834951e+005,-2.40577917603531e+001,-1.05931202916324e+000

1.88958825828723e+005,-2.40578418489634e+001,-1.07401363767523e+000

1.91596592739027e+005,-2.40578931135789e+001,-1.08891738108372e+000

1.94271181503206e+005,-2.40579455763400e+001,-1.10402598389322e+000

1.96983106135185e+005,-2.40579992595561e+001,-1.11934220646835e+000

1.99732887824256e+005,-2.40580541856953e+001,-1.13486884554358e+000

2.02521055035243e+005,-2.40581103773750e+001,-1.15060873474031e+000

2.05348143610063e+005,-2.40581678573507e+001,-1.16656474509896e+000

2.08214696870707e+005,-2.40582266485057e+001,-1.18273978562096e+000

2.11121265723661e+005,-2.40582867738397e+001,-1.19913680382444e+000

2.14068408765776e+005,-2.40583482564578e+001,-1.21575878631142e+000

2.17056692391625e+005,-2.40584111195579e+001,-1.23260875935099e+000

2.20086690902357e+005,-2.40584753864193e+001,-1.24968978947412e+000

2.23158986616063e+005,-2.40585410803903e+001,-1.26700498408193e+000

2.26274169979693e+005,-2.40586082248757e+001,-1.28455749207216e+000

2.29432839682530e+005,-2.40586768433240e+001,-1.30235050447721e+000

2.32635602771247e+005,-2.40587469592151e+001,-1.32038725511851e+000

2.35883074766574e+005,-2.40588185960475e+001,-1.33867102127804e+000

2.39175879781588e+005,-2.40588917773248e+001,-1.35720512438595e+000

2.42514650641661e+005,-2.40589665265442e+001,-1.37599293072237e+000

2.45900029006080e+005,-2.40590428671830e+001,-1.39503785214152e+000

2.49332665491357e+005,-2.40591208226864e+001,-1.41434334680709e+000

2.52813219796278e+005,-2.40592004164557e+001,-1.43391291995037e+000

2.56342360828676e+005,-2.40592816718360e+001,-1.45375012464609e+000

2.59920766833993e+005,-2.40593646121054e+001,-1.47385856260327e+000

2.63549125525621e+005,-2.40594492604633e+001,-1.49424188497999e+000

2.67228134217075e+005,-2.40595356400207e+001,-1.51490379321428e+000

2.70958499956006e+005,-2.40596237737903e+001,-1.53584803987533e+000

2.74740939660078e+005,-2.40597136846778e+001,-1.55707842953543e+000

2.78576180254757e+005,-2.40598053954734e+001,-1.57859881966011e+000

2.82464958813007e+005,-2.40598989288451e+001,-1.60041312152120e+000

2.86408022696948e+005,-2.40599943073328e+001,-1.62252530112736e+000

2.90406129701488e+005,-2.40600915533429e+001,-1.64493938017811e+000

2.94460048199957e+005,-2.40601906891452e+001,-1.66765943703671e+000

2.98570557291775e+005,-2.40602917368709e+001,-1.69068960772338e+000

3.02738446952187e+005,-2.40603947185113e+001,-1.71403408693175e+000

3.06964518184081e+005,-2.40604996559194e+001,-1.73769712906244e+000

3.11249583171928e+005,-2.40606065708121e+001,-1.76168304928211e+000

3.15594465437872e+005,-2.40607154847753e+001,-1.78599622459716e+000

3.19999999999997e+005,-2.40608264192700e+001,-1.81064109495330e+000

3.24467033532806e+005,-2.40609393956412e+001,-1.83562216435248e+000

3.28996424529938e+005,-2.40610544351285e+001,-1.86094400198933e+000

3.33589043469155e+005,-2.40611715588796e+001,-1.88661124340938e+000

3.38245772979638e+005,-2.40612907879655e+001,-1.91262859168484e+000

3.42967508011610e+005,-2.40614121433988e+001,-1.93900081860993e+000

3.47755156008335e+005,-2.40615356461548e+001,-1.96573276591485e+000

3.52609637080511e+005,-2.40616613171942e+001,-1.99282934649645e+000

3.57531884183106e+005,-2.40617891774905e+001,-2.02029554566822e+000

3.62522843294651e+005,-2.40619192480584e+001,-2.04813642242625e+000

3.67583473599047e+005,-2.40620515499866e+001,-2.07635711073020e+000

3.72714747669902e+005,-2.40621861044731e+001,-2.10496282080253e+000

3.77917651657445e+005,-2.40623229328636e+001,-2.13395884043927e+000

3.83193185478053e+005,-2.40624620566937e+001,-2.16335053633826e+000

3.88542363006410e+005,-2.40626034977337e+001,-2.19314335543729e+000

3.93966212270369e+005,-2.40627472780371e+001,-2.22334282626883e+000

3.99465775648511e+005,-2.40628934199925e+001,-2.25395456032222e+000

4.05042110070485e+005,-2.40630419463787e+001,-2.28498425342014e+000

4.10696287220124e+005,-2.40631928804236e+001,-2.31643768710443e+000

4.16429393741414e+005,-2.40633462458660e+001,-2.34832073002884e+000

4.22242531447321e+005,-2.40635020670213e+001,-2.38063933936390e+000

4.28136817531551e+005,-2.40636603688506e+001,-2.41339956220646e+000

4.34113384783250e+005,-2.40638211770326e+001,-2.44660753699799e+000

4.40173381804713e+005,-2.40639845180402e+001,-2.48026949494702e+000

4.46317973232124e+005,-2.40641504192184e+001,-2.51439176145843e+000

4.52548339959385e+005,-2.40643189088679e+001,-2.54898075756561e+000

4.58865679365059e+005,-2.40644900163299e+001,-2.58404300136754e+000

4.65271205542494e+005,-2.40646637720752e+001,-2.61958510946792e+000

4.71766149533147e+005,-2.40648402077960e+001,-2.65561379841701e+000

4.78351759563174e+005,-2.40650193565006e+001,-2.69213588615583e+000

4.85029301283321e+005,-2.40652012526115e+001,-2.72915829345942e+000

4.91800058012158e+005,-2.40653859320654e+001,-2.76668804538365e+000

4.98665330982714e+005,-2.40655734324169e+001,-2.80473227271034e+000

5.05626439592555e+005,-2.40657637929443e+001,-2.84329821339177e+000

5.12684721657352e+005,-2.40659570547573e+001,-2.88239321399734e+000

5.19841533667984e+005,-2.40661532609083e+001,-2.92202473115704e+000

5.27098251051240e+005,-2.40663524565048e+001,-2.96220033300565e+000

5.34456268434150e+005,-2.40665546888244e+001,-3.00292770062517e+000

5.41916999912011e+005,-2.40667600074317e+001,-3.04421462948726e+000

