Freq.,VOut,OutRef

1.00000000000000e+004,-6.49730944542598e+000,-2.83521483631335e-002

1.01395947979003e+004,-6.49731065639216e+000,-2.87477761395891e-002

1.02811382665607e+004,-6.49731190137822e+000,-2.91489201572998e-002

1.04246576084112e+004,-6.49731318133879e+000,-2.95556571460825e-002

1.05701804056138e+004,-6.49731449725543e+000,-2.99680648938167e-002

1.07177346253629e+004,-6.49731585013790e+000,-3.03862222578406e-002

1.08673486252606e+004,-6.49731724102252e+000,-3.08102091945328e-002

1.10190511587661e+004,-6.49731867097733e+000,-3.12401067456958e-002

1.11728713807222e+004,-6.49732014109791e+000,-3.16759970866081e-002

1.13288388529580e+004,-6.49732165251151e+000,-3.21179635182451e-002

1.14869835499703e+004,-6.49732320637727e+000,-3.25660904879678e-002

1.16473358646846e+004,-6.49732480388617e+000,-3.30204636098010e-002

1.18099266142953e+004,-6.49732644626288e+000,-3.34811696746231e-002

1.19747870461893e+004,-6.49732813476653e+000,-3.39482966668150e-002

1.21419488439505e+004,-6.49732987069096e+000,-3.44219337848009e-002

1.23114441334492e+004,-6.49733165536647e+000,-3.49021714519256e-002

1.24833054890161e+004,-6.49733349016075e+000,-3.53891013339686e-002

1.26575659397028e+004,-6.49733537648005e+000,-3.58828163537067e-002

1.28342589756290e+004,-6.49733731576857e+000,-3.63834107198941e-002

1.30134185544193e+004,-6.49733930951296e+000,-3.68909799213067e-002

1.31950791077289e+004,-6.49734135924028e+000,-3.74056207642002e-002

1.33792755478611e+004,-6.49734346652022e+000,-3.79274313833218e-002

1.35660432744767e+004,-6.49734563296708e+000,-3.84565112539588e-002

1.37554181813974e+004,-6.49734786023939e+000,-3.89929612203991e-002

1.39474366635040e+004,-6.49735015004290e+000,-3.95368835021256e-002

1.41421356237309e+004,-6.49735250413004e+000,-4.00883817241114e-002

1.43395524801583e+004,-6.49735492430419e+000,-4.06475609163354e-002

1.45397251732031e+004,-6.49735741241660e+000,-4.12145275604967e-002

1.47426921729110e+004,-6.49735997037183e+000,-4.17893895830937e-002

1.49484924863494e+004,-6.49736260012729e+000,-4.23722563865012e-002

1.51571656651040e+004,-6.49736530369588e+000,-4.29632388606541e-002

1.53687518128801e+004,-6.49736808314471e+000,-4.35624494203958e-002

1.55832915932100e+004,-6.49737094060043e+000,-4.41700020011444e-002

1.58008262372675e+004,-6.49737387824849e+000,-4.47860120929429e-002

1.60213975517924e+004,-6.49737689833515e+000,-4.54105967592037e-002

1.62450479271247e+004,-6.49738000316989e+000,-4.60438746513094e-002

1.64718203453514e+004,-6.49738319512643e+000,-4.66859660343996e-002

1.67017583885674e+004,-6.49738647664348e+000,-4.73369928144494e-002

1.69349062472505e+004,-6.49738985023022e+000,-4.79970785349532e-002

1.71713087287550e+004,-6.49739331846333e+000,-4.86663484308516e-002

1.74110112659224e+004,-6.49739688399304e+000,-4.93449294213404e-002

1.76540599258131e+004,-6.49740054954295e+000,-5.00329501467408e-002

1.79005014185594e+004,-6.49740431791195e+000,-5.07305409901953e-002

1.81503831063432e+004,-6.49740819197793e+000,-5.14378340897449e-002

1.84037530124975e+004,-6.49741217469788e+000,-5.21549633729351e-002

1.86606598307361e+004,-6.49741626911193e+000,-5.28820645681054e-002

1.89211529345119e+004,-6.49742047834497e+000,-5.36192752303658e-002

1.91852823865052e+004,-6.49742480560762e+000,-5.43667347737651e-002

1.94530989482457e+004,-6.49742925420099e+000,-5.51245844782604e-002

1.97246540898671e+004,-6.49743382751760e+000,-5.58929675232008e-002

1.99999999999999e+004,-6.49743852904464e+000,-5.66720290056432e-002

2.02791895958005e+004,-6.49744336236584e+000,-5.74619159689233e-002

2.05622765331213e+004,-6.49744833116431e+000,-5.82627774246411e-002

2.08493152168224e+004,-6.49745343922575e+000,-5.90747643734272e-002

2.11403608112276e+004,-6.49745869044119e+000,-5.98980298299870e-002

2.14354692507258e+004,-6.49746408880975e+000,-6.07327288480661e-002

2.17346972505211e+004,-6.49746963844036e+000,-6.15790185520360e-002

2.20381023175322e+004,-6.49747534355785e+000,-6.24370581420936e-002

2.23457427614443e+004,-6.49748120850230e+000,-6.33070089445361e-002

2.26576777059159e+004,-6.49748723773494e+000,-6.41890344173533e-002

2.29739670999406e+004,-6.49749343584122e+000,-6.50833001775028e-002

2.32946717293690e+004,-6.49749980753249e+000,-6.59899740376960e-002

2.36198532285905e+004,-6.49750635765089e+000,-6.69092260211576e-002

2.39495740923785e+004,-6.49751309117281e+000,-6.78412283890839e-002

2.42838976879009e+004,-6.49752001321179e+000,-6.87861556699982e-002

2.46228882668982e+004,-6.49752712902319e+000,-6.97441846799720e-002

2.49666109780322e+004,-6.49753444400697e+000,-7.07154945554464e-002

2.53151318794055e+004,-6.49754196371358e+000,-7.17002667663232e-002

2.56685179512580e+004,-6.49754969384440e+000,-7.26986851652141e-002

2.60268371088386e+004,-6.49755764026042e+000,-7.37109359846829e-002

2.63901582154578e+004,-6.49756580898289e+000,-7.47372078867922e-002

2.67585510957221e+004,-6.49757420619967e+000,-7.57776919755241e-002

2.71320865489533e+004,-6.49758283826791e+000,-7.68325818365110e-002

2.75108363627948e+004,-6.49759171172138e+000,-7.79020735438778e-002

2.78948733270080e+004,-6.49760083327263e+000,-7.89863657051549e-002

2.82842712474618e+004,-6.49761020981834e+000,-8.00856594822174e-002

2.86791049603164e+004,-6.49761984844625e+000,-8.12001586064426e-002

2.90794503464061e+004,-6.49762975643651e+000,-8.23300694293277e-002

2.94853843458219e+004,-6.49763994127138e+000,-8.34756009183767e-002

2.98969849726987e+004,-6.49765041063617e+000,-8.46369647141055e-002

3.03143313302078e+004,-6.49766117242823e+000,-8.58143751319475e-002

3.07375036257601e+004,-6.49767223476049e+000,-8.70080492023461e-002

3.11665831864199e+004,-6.49768360596813e+000,-8.82182066915620e-002

3.16016524745350e+004,-6.49769529461405e+000,-8.94450701295656e-002

3.20427951035848e+004,-6.49770730949500e+000,-9.06888648363882e-002

3.24900958542493e+004,-6.49771965964766e+000,-9.19498189474439e-002

3.29436406907028e+004,-6.49773235435541e+000,-9.32281634376700e-002

3.34035167771346e+004,-6.49774540315487e+000,-9.45241321454304e-002

3.38698124945009e+004,-6.49775881584186e+000,-9.58379618029076e-002

3.43426174575100e+004,-6.49777260247839e+000,-9.71698920601026e-002

3.48220225318448e+004,-6.49778677340060e+000,-9.85201655022827e-002

3.53081198516260e+004,-6.49780133922422e+000,-9.98890276859632e-002

3.58010028371187e+004,-6.49781631085385e+000,-1.01276727150643e-001

3.63007662126863e+004,-6.49783169948884e+000,-1.02683515452224e-001

3.68075060249948e+004,-6.49784751663129e+000,-1.04109647183666e-001

3.73213196614721e+004,-6.49786377409569e+000,-1.05555379987634e-001

3.78423058690237e+004,-6.49788048401392e+000,-1.07020974597203e-001

3.83705647730104e+004,-6.49789765884547e+000,-1.08506694845519e-001

3.89061978964912e+004,-6.49791531138613e+000,-1.10012807684431e-001

3.94493081797342e+004,-6.49793345477467e+000,-1.11539583219062e-001

3.99999999999998e+004,-6.49795210250424e+000,-1.13087294709505e-001

4.05583791916010e+004,-6.49797126842900e+000,-1.14656218606337e-001

4.11245530662425e+004,-6.49799096677497e+000,-1.16246634558939e-001

4.16986304336447e+004,-6.49801121214834e+000,-1.17858825439746e-001

4.22807216224550e+004,-6.49803201954578e+000,-1.19493077357032e-001

4.28709385014515e+004,-6.49805340436468e+000,-1.21149679668888e-001

4.34693945010421e+004,-6.49807538241170e+000,-1.22828925007894e-001

4.40762046350642e+004,-6.49809796991461e+000,-1.24531109285331e-001

4.46914855228886e+004,-6.49812118353157e+000,-1.26256531711326e-001

4.53153554118317e+004,-6.49814504036276e+000,-1.28005494802634e-001

4.59479341998812e+004,-6.49816955796114e+000,-1.29778304392868e-001

4.65893434587380e+004,-6.49819475434284e+000,-1.31575269649117e-001

4.72397064571810e+004,-6.49822064799927e+000,-1.33396703073764e-001

4.78991481847569e+004,-6.49824725790885e+000,-1.35242920511883e-001

4.85677953758016e+004,-6.49827460354854e+000,-1.37114241158647e-001

4.92457765337964e+004,-6.49830270490549e+000,-1.39010987566646e-001

4.99332219560642e+004,-6.49833158249053e+000,-1.40933485639776e-001

5.06302637588109e+004,-6.49836125734965e+000,-1.42882064642120e-001

5.13370359025159e+004,-6.49839175107680e+000,-1.44857057195912e-001

5.20536742176771e+004,-6.49842308582790e+000,-1.46858799272858e-001

5.27803164309155e+004,-6.49845528433277e+000,-1.48887630198288e-001

5.35171021914442e+004,-6.49848836990997e+000,-1.50943892634984e-001

5.42641730979066e+004,-6.49852236647945e+000,-1.53027932582021e-001

5.50216727255895e+004,-6.49855729857727e+000,-1.55140099357733e-001

5.57897466540159e+004,-6.49859319136855e+000,-1.57280745595432e-001

5.65685424949235e+004,-6.49863007066399e+000,-1.59450227214103e-001

5.73582099206328e+004,-6.49866796293231e+000,-1.61648903412197e-001

5.81589006928121e+004,-6.49870689531674e+000,-1.63877136639454e-001

5.89707686916437e+004,-6.49874689564939e+000,-1.66135292575292e-001

5.97939699453972e+004,-6.49878799246639e+000,-1.68423740104202e-001

6.06286626604156e+004,-6.49883021502406e+000,-1.70742851281808e-001

6.14750072515201e+004,-6.49887359331390e+000,-1.73093001306898e-001

6.23331663728396e+004,-6.49891815807956e+000,-1.75474568478698e-001

6.32033049490698e+004,-6.49896394083210e+000,-1.77887934163198e-001

6.40855902071694e+004,-6.49901097386639e+000,-1.80333482749370e-001

6.49801917084985e+004,-6.49905929027800e+000,-1.82811601600004e-001

6.58872813814055e+004,-6.49910892397990e+000,-1.85322681001436e-001

6.68070335542691e+004,-6.49915990971890e+000,-1.87867114110917e-001

6.77396249890018e+004,-6.49921228309295e+000,-1.90445296897071e-001

6.86852349150199e+004,-6.49926608056811e+000,-1.93057628077206e-001

6.96440450636895e+004,-6.49932133949632e+000,-1.95704509046740e-001

7.06162397032520e+004,-6.49937809813199e+000,-1.98386343812997e-001

7.16020056742374e+004,-6.49943639565030e+000,-2.01103538912240e-001

7.26015324253724e+004,-6.49949627216404e+000,-2.03856503333626e-001

7.36150120499896e+004,-6.49955776874162e+000,-2.06645648429155e-001

7.46426393229441e+004,-6.49962092742480e+000,-2.09471387821490e-001

7.56846117380472e+004,-6.49968579124630e+000,-2.12334137307406e-001

7.67411295460207e+004,-6.49975240424735e+000,-2.15234314754880e-001

7.78123957929823e+004,-6.49982081149613e+000,-2.18172339989701e-001

7.88986163594682e+004,-6.49989105910365e+000,-2.21148634691888e-001

7.99999999999995e+004,-6.49996319424344e+000,-2.24163622260718e-001

8.11167583832018e+004,-6.50003726516790e+000,-2.27217727693955e-001

8.22491061324848e+004,-6.50011332122545e+000,-2.30311377455573e-001

8.33972608672892e+004,-6.50019141287843e+000,-2.33444999329804e-001

8.45614432449099e+004,-6.50027159171962e+000,-2.36619022276570e-001

8.57418770029029e+004,-6.50035391048840e+000,-2.39833876279717e-001

8.69387890020841e+004,-6.50043842308897e+000,-2.43089992174050e-001

8.81524092701283e+004,-6.50052518460450e+000,-2.46387801488338e-001

8.93829710457770e+004,-6.50061425131430e+000,-2.49727736258821e-001

9.06307108236633e+004,-6.50070568070837e+000,-2.53110228849379e-001

9.18958683997622e+004,-6.50079953150304e+000,-2.56535711753789e-001

9.31786869174758e+004,-6.50089586365461e+000,-2.60004617398911e-001

9.44794129143618e+004,-6.50099473837382e+000,-2.63517377931373e-001

9.57982963695136e+004,-6.50109621813912e+000,-2.67074424998324e-001

9.71355907516031e+004,-6.50120036670901e+000,-2.70676189522262e-001

9.84915530675926e+004,-6.50130724913330e+000,-2.74323101468520e-001

9.98664439121282e+004,-6.50141693176551e+000,-2.78015589591294e-001

1.01260527517622e+005,-6.50152948227202e+000,-2.81754081185845e-001

1.02674071805032e+005,-6.50164496964138e+000,-2.85539001824541e-001

1.04107348435354e+005,-6.50176346419304e+000,-2.89370775080644e-001

1.05560632861831e+005,-6.50188503758349e+000,-2.93249822251397e-001

1.07034204382888e+005,-6.50200976281361e+000,-2.97176562057912e-001

1.08528346195813e+005,-6.50213771423183e+000,-3.01151410351895e-001

1.10043345451179e+005,-6.50226896753830e+000,-3.05174779800010e-001

1.11579493308032e+005,-6.50240359978688e+000,-3.09247079561065e-001

1.13137084989847e+005,-6.50254168938437e+000,-3.13368714961826e-001

1.14716419841265e+005,-6.50268331609091e+000,-3.17540087146576e-001

1.16317801385624e+005,-6.50282856101511e+000,-3.21761592736919e-001

1.17941537383287e+005,-6.50297750661061e+000,-3.26033623463226e-001

1.19587939890794e+005,-6.50313023666827e+000,-3.30356565800440e-001

1.21257325320831e+005,-6.50328683630717e+000,-3.34730800589487e-001

1.22950014503040e+005,-6.50344739196447e+000,-3.39156702642692e-001

1.24666332745679e+005,-6.50361199138082e+000,-3.43634640353115e-001

1.26406609898139e+005,-6.50378072358511e+000,-3.48164975284045e-001

1.28171180414339e+005,-6.50395367887572e+000,-3.52748061755654e-001

1.29960383416997e+005,-6.50413094879958e+000,-3.57384246421063e-001

1.31774562762811e+005,-6.50431262612811e+000,-3.62073867833589e-001

1.33614067108538e+005,-6.50449880483016e+000,-3.66817256010350e-001

1.35479249978003e+005,-6.50468958004230e+000,-3.71614731982619e-001

1.37370469830040e+005,-6.50488504803486e+000,-3.76466607347181e-001

1.39288090127379e+005,-6.50508530617640e+000,-3.81373183801345e-001

1.41232479406504e+005,-6.50529045289254e+000,-3.86334752682323e-001

1.43204011348474e+005,-6.50550058762273e+000,-3.91351594495663e-001

1.45203064850745e+005,-6.50571581077201e+000,-3.96423978443567e-001

1.47230024099979e+005,-6.50593622366019e+000,-4.01552161943778e-001

1.49285278645888e+005,-6.50616192846536e+000,-4.06736390153810e-001

1.51369223476094e+005,-6.50639302816431e+000,-4.11976895487226e-001

1.53482259092041e+005,-6.50662962646829e+000,-4.17273897131167e-001

1.55624791585964e+005,-6.50687182775344e+000,-4.22627600568446e-001

1.57797232718936e+005,-6.50711973698829e+000,-4.28038197091490e-001

1.59999999999999e+005,-6.50737345965421e+000,-4.33505863331199e-001

1.62233516766403e+005,-6.50763310166264e+000,-4.39030760781374e-001

1.64498212264969e+005,-6.50789876926674e+000,-4.44613035330993e-001

1.66794521734578e+005,-6.50817056896734e+000,-4.50252816805183e-001

1.69122886489819e+005,-6.50844860741419e+000,-4.55950218513530e-001

1.71483754005805e+005,-6.50873299130152e+000,-4.61705336808247e-001

1.73877578004168e+005,-6.50902382725768e+000,-4.67518250657473e-001

1.76304818540256e+005,-6.50932122173022e+000,-4.73389021225729e-001

1.78765942091554e+005,-6.50962528086411e+000,-4.79317691478057e-001

1.81261421647326e+005,-6.50993611037435e+000,-4.85304285799023e-001

1.83791736799524e+005,-6.51025381541354e+000,-4.91348809628330e-001

1.86357373834951e+005,-6.51057850043262e+000,-4.97451249124152e-001

1.88958825828723e+005,-6.51091026903605e+000,-5.03611570847998e-001

1.91596592739027e+005,-6.51124922383093e+000,-5.09829721477437e-001

1.94271181503206e+005,-6.51159546627054e+000,-5.16105627545934e-001

1.96983106135185e+005,-6.51194909649121e+000,-5.22439195218678e-001

1.99732887824256e+005,-6.51231021314424e+000,-5.28830310097633e-001

2.02521055035243e+005,-6.51267891322081e+000,-5.35278837070920e-001

2.05348143610063e+005,-6.51305529187248e+000,-5.41784620192831e-001

2.08214696870707e+005,-6.51343944222469e+000,-5.48347482616745e-001

2.11121265723661e+005,-6.51383145518606e+000,-5.54967226563504e-001

2.14068408765776e+005,-6.51423141925092e+000,-5.61643633348041e-001

2.17056692391625e+005,-6.51463942029830e+000,-5.68376463447124e-001

2.20086690902357e+005,-6.51505554138429e+000,-5.75165456631903e-001

2.23158986616063e+005,-6.51547986253115e+000,-5.82010332147440e-001

2.26274169979693e+005,-6.51591246051079e+000,-5.88910788962357e-001

2.29432839682530e+005,-6.51635340862527e+000,-5.95866506071523e-001

2.32635602771247e+005,-6.51680277648245e+000,-6.02877142873699e-001

2.35883074766574e+005,-6.51726062976889e+000,-6.09942339612436e-001

2.39175879781588e+005,-6.51772703001998e+000,-6.17061717888267e-001

2.42514650641661e+005,-6.51820203438656e+000,-6.24234881251329e-001

2.45900029006080e+005,-6.51868569540062e+000,-6.31461415862490e-001

2.49332665491357e+005,-6.51917806073869e+000,-6.38740891240332e-001

2.52813219796278e+005,-6.51967917298475e+000,-6.46072861085920e-001

2.56342360828676e+005,-6.52018906939212e+000,-6.53456864196913e-001

2.59920766833993e+005,-6.52070778164656e+000,-6.60892425458673e-001

2.63549125525621e+005,-6.52123533562927e+000,-6.68379056933616e-001

2.67228134217075e+005,-6.52177175118196e+000,-6.75916259033885e-001

2.70958499956006e+005,-6.52231704187462e+000,-6.83503521784506e-001

2.74740939660078e+005,-6.52287121477542e+000,-6.91140326183933e-001

2.78576180254757e+005,-6.52343427022542e+000,-6.98826145651948e-001

2.82464958813007e+005,-6.52400620161730e+000,-7.06560447575302e-001

2.86408022696948e+005,-6.52458699517994e+000,-7.14342694945851e-001

2.90406129701488e+005,-6.52517662976959e+000,-7.22172348089572e-001

2.94460048199957e+005,-6.52577507666713e+000,-7.30048866498546e-001

2.98570557291775e+005,-6.52638229938548e+000,-7.37971710741352e-001

3.02738446952187e+005,-6.52699825348422e+000,-7.45940344478124e-001

3.06964518184081e+005,-6.52762288639473e+000,-7.53954236560267e-001

3.11249583171928e+005,-6.52825613725713e+000,-7.62012863214769e-001

3.15594465437872e+005,-6.52889793676770e+000,-7.70115710320336e-001

3.19999999999997e+005,-6.52954820703961e+000,-7.78262275763879e-001

3.24467033532806e+005,-6.53020686147752e+000,-7.86452071874439e-001

3.28996424529938e+005,-6.53087380466634e+000,-7.94684627935438e-001

3.33589043469155e+005,-6.53154893227523e+000,-8.02959492768526e-001

3.38245772979638e+005,-6.53223213097842e+000,-8.11276237381508e-001

3.42967508011610e+005,-6.53292327839246e+000,-8.19634457681132e-001

3.47755156008335e+005,-6.53362224303177e+000,-8.28033777239416e-001

3.52609637080511e+005,-6.53432888428227e+000,-8.36473850112818e-001

3.57531884183106e+005,-6.53504305239423e+000,-8.44954363705026e-001

3.62522843294651e+005,-6.53576458849577e+000,-8.53475041662859e-001

3.67583473599047e+005,-6.53649332462553e+000,-8.62035646808357e-001

3.72714747669902e+005,-6.53722908378765e+000,-8.70635984085464e-001

3.77917651657445e+005,-6.53797168002639e+000,-8.79275903530796e-001

3.83193185478053e+005,-6.53872091852442e+000,-8.87955303241003e-001

3.88542363006410e+005,-6.53947659572139e+000,-8.96674132344198e-001

3.93966212270369e+005,-6.54023849945579e+000,-9.05432393958375e-001

3.99465775648511e+005,-6.54100640912842e+000,-9.14230148130160e-001

4.05042110070485e+005,-6.54178009588859e+000,-9.23067514744849e-001

4.10696287220124e+005,-6.54255932284221e+000,-9.31944676399246e-001

4.16429393741414e+005,-6.54334384528220e+000,-9.40861881225420e-001

4.22242531447321e+005,-6.54413341094051e+000,-9.49819445660041e-001

4.28136817531551e+005,-6.54492776026115e+000,-9.58817757149746e-001

4.34113384783250e+005,-6.54572662669491e+000,-9.67857276776881e-001

4.40173381804713e+005,-6.54652973701391e+000,-9.76938541805982e-001

4.46317973232124e+005,-6.54733681164537e+000,-9.86062168138949e-001

4.52548339959385e+005,-6.54814756502531e+000,-9.95228852664650e-001

4.58865679365059e+005,-6.54896170596933e+000,-1.00443937550369e+000

4.65271205542494e+005,-6.54977893806054e+000,-1.01369460213829e+000

4.71766149533147e+005,-6.55059896005405e+000,-1.02299548541138e+000

4.78351759563174e+005,-6.55142146629580e+000,-1.03234306740097e+000

4.85029301283321e+005,-6.55224614715455e+000,-1.04173848115687e+000

4.91800058012158e+005,-6.55307268946763e+000,-1.05118295228854e+000

4.98665330982714e+005,-6.55390077699638e+000,-1.06067780041007e+000

5.05626439592555e+005,-6.55473009089114e+000,-1.07022444043192e+000

5.12684721657352e+005,-6.55556031016570e+000,-1.07982438368856e+000

5.19841533667984e+005,-6.55639111217650e+000,-1.08947923891528e+000

5.27098251051240e+005,-6.55722217310833e+000,-1.09919071305234e+000

5.34456268434150e+005,-6.55805316846254e+000,-1.10896061189090e+000

5.41916999912011e+005,-6.55888377354747e+000,-1.11879084054863e+000

