Freq.,VOut,OutRef

1.00000000000000e+004,-5.58496547500868e+000,-1.10937556581212e-002

1.01395947979003e+004,-5.58496591422004e+000,-1.12485632243899e-002

1.02811382665607e+004,-5.58496636576965e+000,-1.14055294717457e-002

1.04246576084112e+004,-5.58496683000531e+000,-1.15646844244054e-002

1.05701804056138e+004,-5.58496730728163e+000,-1.17260585415569e-002

1.07177346253629e+004,-5.58496779796491e+000,-1.18896826913117e-002

1.08673486252606e+004,-5.58496830243211e+000,-1.20555881653597e-002

1.10190511587661e+004,-5.58496882106988e+000,-1.22238066930007e-002

1.11728713807222e+004,-5.58496935427545e+000,-1.23943704435482e-002

1.13288388529580e+004,-5.58496990245764e+000,-1.25673120271105e-002

1.14869835499703e+004,-5.58497046603759e+000,-1.27426644971746e-002

1.16473358646846e+004,-5.58497104544654e+000,-1.29204613749864e-002

1.18099266142953e+004,-5.58497164112860e+000,-1.31007366383782e-002

1.19747870461893e+004,-5.58497225354112e+000,-1.32835247278043e-002

1.21419488439505e+004,-5.58497288315346e+000,-1.34688605632577e-002

1.23114441334492e+004,-5.58497353044674e+000,-1.36567795549370e-002

1.24833054890161e+004,-5.58497419591891e+000,-1.38473175784212e-002

1.26575659397028e+004,-5.58497488007850e+000,-1.40405110241870e-002

1.28342589756290e+004,-5.58497558345023e+000,-1.42363967708048e-002

1.30134185544193e+004,-5.58497630657285e+000,-1.44350122079792e-002

1.31950791077289e+004,-5.58497705000050e+000,-1.46363952368242e-002

1.33792755478611e+004,-5.58497781430270e+000,-1.48405842800577e-002

1.35660432744767e+004,-5.58497860006414e+000,-1.50476182927134e-002

1.37554181813974e+004,-5.58497940788631e+000,-1.52575367613115e-002

1.39474366635040e+004,-5.58498023838937e+000,-1.54703797018170e-002

1.41421356237309e+004,-5.58498109220841e+000,-1.56861876943236e-002

1.43395524801583e+004,-5.58498196999638e+000,-1.59050018743868e-002

1.45397251732031e+004,-5.58498287242557e+000,-1.61268639332671e-002

1.47426921729110e+004,-5.58498380018688e+000,-1.63518161344185e-002

1.49484924863494e+004,-5.58498475399052e+000,-1.65799013191332e-002

1.51571656651040e+004,-5.58498573456500e+000,-1.68111629240233e-002

1.53687518128801e+004,-5.58498674266203e+000,-1.70456449610111e-002

1.55832915932100e+004,-5.58498777905234e+000,-1.72833920552705e-002

1.58008262372675e+004,-5.58498884452832e+000,-1.75244494403062e-002

1.60213975517924e+004,-5.58498993990498e+000,-1.77688629626829e-002

1.62450479271247e+004,-5.58499106601884e+000,-1.80166791020744e-002

1.64718203453514e+004,-5.58499222373279e+000,-1.82679449513061e-002

1.67017583885674e+004,-5.58499341393052e+000,-1.85227082649548e-002

1.69349062472505e+004,-5.58499463752140e+000,-1.87810174404527e-002

1.71713087287550e+004,-5.58499589544135e+000,-1.90429215249776e-002

1.74110112659224e+004,-5.58499718865033e+000,-1.93084702449695e-002

1.76540599258131e+004,-5.58499851813704e+000,-1.95777139882837e-002

1.79005014185594e+004,-5.58499988491671e+000,-1.98507038326680e-002

1.81503831063432e+004,-5.58500129003246e+000,-2.01274915498220e-002

1.84037530124975e+004,-5.58500273455766e+000,-2.04081296042960e-002

1.86606598307361e+004,-5.58500421959496e+000,-2.06926711741566e-002

1.89211529345119e+004,-5.58500574627698e+000,-2.09811701599694e-002

1.91852823865052e+004,-5.58500731576868e+000,-2.12736811842680e-002

1.94530989482457e+004,-5.58500892926784e+000,-2.15702596034336e-002

1.97246540898671e+004,-5.58501058800470e+000,-2.18709615249110e-002

1.99999999999999e+004,-5.58501229324408e+000,-2.21758438081139e-002

2.02791895958005e+004,-5.58501404628547e+000,-2.24849640801245e-002

2.05622765331213e+004,-5.58501584846541e+000,-2.27983807356019e-002

2.08493152168224e+004,-5.58501770115618e+000,-2.31161529605904e-002

2.11403608112276e+004,-5.58501960577063e+000,-2.34383407180337e-002

2.14354692507258e+004,-5.58502156375821e+000,-2.37650047901308e-002

2.17346972505211e+004,-5.58502357660932e+000,-2.40962067666089e-002

2.20381023175322e+004,-5.58502564585640e+000,-2.44320090538903e-002

2.23457427614443e+004,-5.58502777307389e+000,-2.47724748937097e-002

2.26576777059159e+004,-5.58502995988050e+000,-2.51176683648677e-002

2.29739670999406e+004,-5.58503220793845e+000,-2.54676544069192e-002

2.32946717293690e+004,-5.58503451895711e+000,-2.58224988135166e-002

2.36198532285905e+004,-5.58503689469315e+000,-2.61822682503973e-002

2.39495740923785e+004,-5.58503933695114e+000,-2.65470302703207e-002

2.42838976879009e+004,-5.58504184758632e+000,-2.69168533128439e-002

2.46228882668982e+004,-5.58504442850431e+000,-2.72918067264680e-002

2.49666109780322e+004,-5.58504708166479e+000,-2.76719607638747e-002

2.53151318794055e+004,-5.58504980908023e+000,-2.80573866092173e-002

2.56685179512580e+004,-5.58505261281892e+000,-2.84481563797182e-002

2.60268371088386e+004,-5.58505549500716e+000,-2.88443431305337e-002

2.63901582154578e+004,-5.58505845782846e+000,-2.92460208810001e-002

2.67585510957221e+004,-5.58506150352732e+000,-2.96532646118166e-002

2.71320865489533e+004,-5.58506463441084e+000,-3.00661502740554e-002

2.75108363627948e+004,-5.58506785284805e+000,-3.04847548166767e-002

2.78948733270080e+004,-5.58507116127372e+000,-3.09091561830119e-002

2.82842712474618e+004,-5.58507456218972e+000,-3.13394333235057e-002

2.86791049603164e+004,-5.58507805816724e+000,-3.17756662046553e-002

2.90794503464061e+004,-5.58508165184715e+000,-3.22179358285352e-002

2.94853843458219e+004,-5.58508534594376e+000,-3.26663242325326e-002

2.98969849726987e+004,-5.58508914324417e+000,-3.31209145154958e-002

3.03143313302078e+004,-5.58509304661365e+000,-3.35817908279270e-002

3.07375036257601e+004,-5.58509705899468e+000,-3.40490384014547e-002

3.11665831864199e+004,-5.58510118341129e+000,-3.45227435446284e-002

3.16016524745350e+004,-5.58510542296914e+000,-3.50029936683085e-002

3.20427951035848e+004,-5.58510978085967e+000,-3.54898772818139e-002

3.24900958542493e+004,-5.58511426036107e+000,-3.59834840138273e-002

3.29436406907028e+004,-5.58511886484041e+000,-3.64839046225557e-002

3.34035167771346e+004,-5.58512359775739e+000,-3.69912309983496e-002

3.38698124945009e+004,-5.58512846266589e+000,-3.75055561789791e-002

3.43426174575100e+004,-5.58513346321534e+000,-3.80269743679460e-002

3.48220225318448e+004,-5.58513860315536e+000,-3.85555809312051e-002

3.53081198516260e+004,-5.58514388633706e+000,-3.90914724144223e-002

3.58010028371187e+004,-5.58514931671655e+000,-3.96347465502889e-002

3.63007662126863e+004,-5.58515489835636e+000,-4.01855022743541e-002

3.68075060249948e+004,-5.58516063542915e+000,-4.07438397300006e-002

3.73213196614721e+004,-5.58516653222083e+000,-4.13098602772118e-002

3.78423058690237e+004,-5.58517259313209e+000,-4.18836665099851e-002

3.83705647730104e+004,-5.58517882268339e+000,-4.24653622535411e-002

3.89061978964912e+004,-5.58518522551641e+000,-4.30550525838938e-002

3.94493081797342e+004,-5.58519180639828e+000,-4.36528438299226e-002

3.99999999999998e+004,-5.58519857022349e+000,-4.42588435897254e-002

4.05583791916010e+004,-5.58520552201782e+000,-4.48731607370186e-002

4.11245530662425e+004,-5.58521266694316e+000,-4.54959054176350e-002

4.16986304336447e+004,-5.58522001029782e+000,-4.61271890797538e-002

4.22807216224550e+004,-5.58522755752283e+000,-4.67671244620295e-002

4.28709385014515e+004,-5.58523531420390e+000,-4.74158256136192e-002

4.34693945010421e+004,-5.58524328607607e+000,-4.80734078926311e-002

4.40762046350642e+004,-5.58525147902655e+000,-4.87399879812978e-002

4.46914855228886e+004,-5.58525989909881e+000,-4.94156838886237e-002

4.53153554118317e+004,-5.58526855249747e+000,-5.01006149518925e-002

4.59479341998812e+004,-5.58527744559023e+000,-5.07949018545392e-002

4.65893434587380e+004,-5.58528658491399e+000,-5.14986666186575e-002

4.72397064571810e+004,-5.58529597717752e+000,-5.22120326197929e-002

4.78991481847569e+004,-5.58530562926730e+000,-5.29351245803821e-002

4.85677953758016e+004,-5.58531554824902e+000,-5.36680685926518e-002

4.92457765337964e+004,-5.58532574137515e+000,-5.44109921004171e-002

4.99332219560642e+004,-5.58533621608741e+000,-5.51640239163851e-002

5.06302637588109e+004,-5.58534698002237e+000,-5.59272942170682e-002

5.13370359025159e+004,-5.58535804101506e+000,-5.67009345509244e-002

5.20536742176771e+004,-5.58536940710434e+000,-5.74850778362805e-002

5.27803164309155e+004,-5.58538108653800e+000,-5.82798583597487e-002

5.35171021914442e+004,-5.58539308777699e+000,-5.90854117793605e-002

5.42641730979066e+004,-5.58540541950080e+000,-5.99018751222644e-002

5.50216727255895e+004,-5.58541809061308e+000,-6.07293867790916e-002

5.57897466540159e+004,-5.58543111024461e+000,-6.15680865154614e-002

5.65685424949235e+004,-5.58544448776220e+000,-6.24181154448400e-002

5.73582099206328e+004,-5.58545823277037e+000,-6.32796160482390e-002

5.81589006928121e+004,-5.58547235511884e+000,-6.41527321548870e-002

5.89707686916437e+004,-5.58548686490763e+000,-6.50376089397280e-002

5.97939699453972e+004,-5.58550177249224e+000,-6.59343929170938e-002

6.06286626604156e+004,-5.58551708848964e+000,-6.68432319319366e-002

6.14750072515201e+004,-5.58553282378436e+000,-6.77642751469644e-002

6.23331663728396e+004,-5.58554898953312e+000,-6.86976730401177e-002

6.32033049490698e+004,-5.58556559717185e+000,-6.96435773859654e-002

6.40855902071694e+004,-5.58558265842107e+000,-7.06021412451439e-002

6.49801917084985e+004,-5.58560018529221e+000,-7.15735189492759e-002

6.58872813814055e+004,-5.58561819009388e+000,-7.25578660840727e-002

6.68070335542691e+004,-5.58563668543702e+000,-7.35553394774982e-002

6.77396249890018e+004,-5.58565568424144e+000,-7.45660971802677e-002

6.86852349150199e+004,-5.58567519974360e+000,-7.55902984359088e-002

6.96440450636895e+004,-5.58569524550058e+000,-7.66281036737132e-002

7.06162397032520e+004,-5.58571583539765e+000,-7.76796744772889e-002

7.16020056742374e+004,-5.58573698365495e+000,-7.87451735586831e-002

7.26015324253724e+004,-5.58575870483292e+000,-7.98247647376219e-002

7.36150120499896e+004,-5.58578101383931e+000,-8.09186129086817e-002

7.46426393229441e+004,-5.58580392593571e+000,-8.20268840116352e-002

7.56846117380472e+004,-5.58582745674373e+000,-8.31497450006661e-002

7.67411295460207e+004,-5.58585162225162e+000,-8.42873638076862e-002

7.78123957929823e+004,-5.58587643882049e+000,-8.54399093102858e-002

7.88986163594682e+004,-5.58590192319132e+000,-8.66075512867568e-002

7.99999999999995e+004,-5.58592809249030e+000,-8.77904603849043e-002

8.11167583832018e+004,-5.58595496423631e+000,-8.89888080701042e-002

8.22491061324848e+004,-5.58598255634736e+000,-9.02027665807619e-002

8.33972608672892e+004,-5.58601088714498e+000,-9.14325088919713e-002

8.45614432449099e+004,-5.58603997536303e+000,-9.26782086496951e-002

8.57418770029029e+004,-5.58606984015194e+000,-9.39400401285542e-002

8.69387890020841e+004,-5.58610050108591e+000,-9.52181781713349e-002

8.81524092701283e+004,-5.58613197816746e+000,-9.65127981382780e-002

8.93829710457770e+004,-5.58616429183469e+000,-9.78240758371749e-002

9.06307108236633e+004,-5.58619746296593e+000,-9.91521874664641e-002

9.18958683997622e+004,-5.58623151288611e+000,-1.00497309544364e-001

9.31786869174758e+004,-5.58626646337090e+000,-1.01859618844743e-001

9.44794129143618e+004,-5.58630233665238e+000,-1.03239292323505e-001

9.57982963695136e+004,-5.58633915542482e+000,-1.04636507036099e-001

9.71355907516031e+004,-5.58637694284726e+000,-1.06051440073209e-001

9.84915530675926e+004,-5.58641572255031e+000,-1.07484268462946e-001

9.98664439121282e+004,-5.58645551863805e+000,-1.08935169101002e-001

1.01260527517622e+005,-5.58649635569341e+000,-1.10404318651145e-001

1.02674071805032e+005,-5.58653825878085e+000,-1.11891893459749e-001

1.04107348435354e+005,-5.58658125344915e+000,-1.13398069462105e-001

1.05560632861831e+005,-5.58662536573471e+000,-1.14923022080857e-001

1.07034204382888e+005,-5.58667062216400e+000,-1.16466926122919e-001

1.08528346195813e+005,-5.58671704975429e+000,-1.18029955681077e-001

1.10043345451179e+005,-5.58676467601632e+000,-1.19612284017551e-001

1.11579493308032e+005,-5.58681352895320e+000,-1.21214083463167e-001

1.13137084989847e+005,-5.58686363706366e+000,-1.22835525283484e-001

1.14716419841265e+005,-5.58691502933801e+000,-1.24476779582674e-001

1.16317801385624e+005,-5.58696773525988e+000,-1.26138015164386e-001

1.17941537383287e+005,-5.58702178480399e+000,-1.27819399409310e-001

1.19587939890794e+005,-5.58707720843293e+000,-1.29521098150834e-001

1.21257325320831e+005,-5.58713403709456e+000,-1.31243275539694e-001

1.22950014503040e+005,-5.58719230221901e+000,-1.32986093902650e-001

1.24666332745679e+005,-5.58725203571206e+000,-1.34749713613918e-001

1.26406609898139e+005,-5.58731326995122e+000,-1.36534292942990e-001

1.28171180414339e+005,-5.58737603777858e+000,-1.38339987912858e-001

1.29960383416997e+005,-5.58744037249343e+000,-1.40166952149957e-001

1.31774562762811e+005,-5.58750630784269e+000,-1.42015336740386e-001

1.33614067108538e+005,-5.58757387801377e+000,-1.43885290058515e-001

1.35479249978003e+005,-5.58764311762086e+000,-1.45776957631115e-001

1.37370469830040e+005,-5.58771406169550e+000,-1.47690481961558e-001

1.39288090127379e+005,-5.58778674567184e+000,-1.49626002378718e-001

1.41232479406504e+005,-5.58786120537397e+000,-1.51583654862654e-001

1.43204011348474e+005,-5.58793747699778e+000,-1.53563571896211e-001

1.45203064850745e+005,-5.58801559709647e+000,-1.55565882280298e-001

1.47230024099979e+005,-5.58809560256038e+000,-1.57590710977323e-001

1.49285278645888e+005,-5.58817753059720e+000,-1.59638178941588e-001

1.51369223476094e+005,-5.58826141871164e+000,-1.61708402941142e-001

1.53482259092041e+005,-5.58834730468025e+000,-1.63801495402481e-001

1.55624791585964e+005,-5.58843522652841e+000,-1.65917564229748e-001

1.57797232718936e+005,-5.58852522250340e+000,-1.68056712637778e-001

1.59999999999999e+005,-5.58861733104555e+000,-1.70219038990592e-001

1.62233516766403e+005,-5.58871159075891e+000,-1.72404636629279e-001

1.64498212264969e+005,-5.58880804037977e+000,-1.74613593706134e-001

1.66794521734578e+005,-5.58890671874089e+000,-1.76845993035693e-001

1.69122886489819e+005,-5.58900766473894e+000,-1.79101911917994e-001

1.71483754005805e+005,-5.58911091729441e+000,-1.81381421996950e-001

1.73877578004168e+005,-5.58921651531278e+000,-1.83684589107225e-001

1.76304818540256e+005,-5.58932449764292e+000,-1.86011473126754e-001

1.78765942091554e+005,-5.58943490303291e+000,-1.88362127841010e-001

1.81261421647326e+005,-5.58954777008515e+000,-1.90736600803033e-001

1.83791736799524e+005,-5.58966313720675e+000,-1.93134933217470e-001

1.86357373834951e+005,-5.58978104256090e+000,-1.95557159814600e-001

1.88958825828723e+005,-5.58990152401368e+000,-1.98003308745035e-001

1.91596592739027e+005,-5.59002461907946e+000,-2.00473401483334e-001

1.94271181503206e+005,-5.59015036486505e+000,-2.02967452733177e-001

1.96983106135185e+005,-5.59027879801017e+000,-2.05485470355498e-001

1.99732887824256e+005,-5.59040995462692e+000,-2.08027455301185e-001

2.02521055035243e+005,-5.59054387023603e+000,-2.10593401564839e-001

2.05348143610063e+005,-5.59068057970241e+000,-2.13183296142552e-001

2.08214696870707e+005,-5.59082011716734e+000,-2.15797119015938e-001

2.11121265723661e+005,-5.59096251598008e+000,-2.18434843140503e-001

2.14068408765776e+005,-5.59110780862498e+000,-2.21096434470684e-001

2.17056692391625e+005,-5.59125602665000e+000,-2.23781851980295e-001

2.20086690902357e+005,-5.59140720059111e+000,-2.26491047718904e-001

2.23158986616063e+005,-5.59156135989535e+000,-2.29223966884645e-001

2.26274169979693e+005,-5.59171853284315e+000,-2.31980547916001e-001

2.29432839682530e+005,-5.59187874646774e+000,-2.34760722612279e-001

2.32635602771247e+005,-5.59204202647478e+000,-2.37564416269640e-001

2.35883074766574e+005,-5.59220839715927e+000,-2.40391547851987e-001

2.39175879781588e+005,-5.59237788132229e+000,-2.43242030179253e-001

2.42514650641661e+005,-5.59255050018628e+000,-2.46115770148892e-001

2.45900029006080e+005,-5.59272627330980e+000,-2.49012668981937e-001

2.49332665491357e+005,-5.59290521850166e+000,-2.51932622499272e-001

2.52813219796278e+005,-5.59308735173476e+000,-2.54875521425912e-001

2.56342360828676e+005,-5.59327268705928e+000,-2.57841251729861e-001

2.59920766833993e+005,-5.59346123651688e+000,-2.60829694986112e-001

2.63549125525621e+005,-5.59365301005398e+000,-2.63840728780085e-001

2.67228134217075e+005,-5.59384801543600e+000,-2.66874227140705e-001

2.70958499956006e+005,-5.59404625816390e+000,-2.69930060999016e-001

2.74740939660078e+005,-5.59424774138873e+000,-2.73008098696977e-001

2.78576180254757e+005,-5.59445246583053e+000,-2.76108206514017e-001

2.82464958813007e+005,-5.59466042969753e+000,-2.79230249234882e-001

2.86408022696948e+005,-5.59487162860661e+000,-2.82374090756538e-001

2.90406129701488e+005,-5.59508605550770e+000,-2.85539594719638e-001

2.94460048199957e+005,-5.59530370060937e+000,-2.88726625182052e-001

2.98570557291775e+005,-5.59552455130853e+000,-2.91935047319095e-001

3.02738446952187e+005,-5.59574859212223e+000,-2.95164728165598e-001

3.06964518184081e+005,-5.59597580462325e+000,-2.98415537387898e-001

3.11249583171928e+005,-5.59620616738070e+000,-3.01687348082805e-001

3.15594465437872e+005,-5.59643965590341e+000,-3.04980037616835e-001

3.19999999999997e+005,-5.59667624258895e+000,-3.08293488488702e-001

3.24467033532806e+005,-5.59691589667666e+000,-3.11627589227608e-001

3.28996424529938e+005,-5.59715858420740e+000,-3.14982235310087e-001

3.33589043469155e+005,-5.59740426798631e+000,-3.18357330118370e-001

3.38245772979638e+005,-5.59765290755445e+000,-3.21752785906536e-001

3.42967508011610e+005,-5.59790445916452e+000,-3.25168524800514e-001

3.47755156008335e+005,-5.59815887576334e+000,-3.28604479819142e-001

3.52609637080511e+005,-5.59841610698226e+000,-3.32060595904518e-001

3.57531884183106e+005,-5.59867609913244e+000,-3.35536830983882e-001

3.62522843294651e+005,-5.59893879520954e+000,-3.39033157030457e-001

3.67583473599047e+005,-5.59920413490418e+000,-3.42549561146647e-001

3.72714747669902e+005,-5.59947205462064e+000,-3.46086046652116e-001

3.77917651657445e+005,-5.59974248750385e+000,-3.49642634173656e-001

3.83193185478053e+005,-5.60001536347285e+000,-3.53219362748635e-001

3.88542363006410e+005,-5.60029060926334e+000,-3.56816290918961e-001

3.93966212270369e+005,-5.60056814847884e+000,-3.60433497821488e-001

3.99465775648511e+005,-5.60084790164795e+000,-3.64071084282360e-001

4.05042110070485e+005,-5.60112978629186e+000,-3.67729173889032e-001

4.10696287220124e+005,-5.60141371699881e+000,-3.71407914057543e-001

4.16429393741414e+005,-5.60169960550679e+000,-3.75107477080082e-001

4.22242531447321e+005,-5.60198736079432e+000,-3.78828061154430e-001

4.28136817531551e+005,-5.60227688917891e+000,-3.82569891388574e-001

4.34113384783250e+005,-5.60256809442353e+000,-3.86333220780139e-001

4.40173381804713e+005,-5.60286087784971e+000,-3.90118331167558e-001

4.46317973232124e+005,-5.60315513845918e+000,-3.93925534143052e-001

4.52548339959385e+005,-5.60345077306072e+000,-3.97755171938860e-001

4.58865679365059e+005,-5.60374767640514e+000,-4.01607618266188e-001

4.65271205542494e+005,-5.60404574132618e+000,-4.05483279113469e-001

4.71766149533147e+005,-5.60434485888626e+000,-4.09382593507443e-001

4.78351759563174e+005,-5.60464491852910e+000,-4.13306034218880e-001

4.85029301283321e+005,-5.60494580823668e+000,-4.17254108422177e-001

4.91800058012158e+005,-5.60524741469120e+000,-4.21227358302928e-001

4.98665330982714e+005,-5.60554962344021e+000,-4.25226361614152e-001

5.05626439592555e+005,-5.60585231906671e+000,-4.29251732172884e-001

5.12684721657352e+005,-5.60615538536094e+000,-4.33304120305217e-001

5.19841533667984e+005,-5.60645870549562e+000,-4.37384213228735e-001

5.27098251051240e+005,-5.60676216220308e+000,-4.41492735375950e-001

5.34456268434150e+005,-5.60706563795277e+000,-4.45630448663974e-001

5.41916999912011e+005,-5.60736901513073e+000,-4.49798152696662e-001

