Freq.,VOut,OutRef

1.00000000000000e+004,-1.28442469124531e+001,-1.74915897740812e-001

1.01395947979003e+004,-1.28442472302648e+001,-1.77357592169599e-001

1.02811382665607e+004,-1.28442475570048e+001,-1.79833369662316e-001

1.04246576084112e+004,-1.28442478929235e+001,-1.82343705928206e-001

1.05701804056138e+004,-1.28442482382787e+001,-1.84889083314498e-001

1.07177346253629e+004,-1.28442485933352e+001,-1.87469990896239e-001

1.08673486252606e+004,-1.28442489583651e+001,-1.90086924576002e-001

1.10190511587661e+004,-1.28442493336486e+001,-1.92740387171853e-001

1.11728713807222e+004,-1.28442497194734e+001,-1.95430888517998e-001

1.13288388529580e+004,-1.28442501161351e+001,-1.98158945564243e-001

1.14869835499703e+004,-1.28442505239381e+001,-2.00925082469648e-001

1.16473358646846e+004,-1.28442509431948e+001,-2.03729830708463e-001

1.18099266142953e+004,-1.28442513742266e+001,-2.06573729168554e-001

1.19747870461893e+004,-1.28442518173640e+001,-2.09457324255836e-001

1.21419488439505e+004,-1.28442522729466e+001,-2.12381169998957e-001

1.23114441334492e+004,-1.28442527413235e+001,-2.15345828157093e-001

1.24833054890161e+004,-1.28442532228535e+001,-2.18351868325196e-001

1.26575659397028e+004,-1.28442537179057e+001,-2.21399868042641e-001

1.28342589756290e+004,-1.28442542268593e+001,-2.24490412908986e-001

1.30134185544193e+004,-1.28442547501042e+001,-2.27624096689217e-001

1.31950791077289e+004,-1.28442552880414e+001,-2.30801521431882e-001

1.33792755478611e+004,-1.28442558410824e+001,-2.34023297586150e-001

1.35660432744767e+004,-1.28442564096512e+001,-2.37290044112403e-001

1.37554181813974e+004,-1.28442569941831e+001,-2.40602388606058e-001

1.39474366635040e+004,-1.28442575951254e+001,-2.43960967417585e-001

1.41421356237309e+004,-1.28442582129386e+001,-2.47366425771417e-001

1.43395524801583e+004,-1.28442588480952e+001,-2.50819417892946e-001

1.45397251732031e+004,-1.28442595010814e+001,-2.54320607130720e-001

1.47426921729110e+004,-1.28442601723971e+001,-2.57870666086072e-001

1.49484924863494e+004,-1.28442608625559e+001,-2.61470276739010e-001

1.51571656651040e+004,-1.28442615720860e+001,-2.65120130582122e-001

1.53687518128801e+004,-1.28442623015298e+001,-2.68820928751870e-001

1.55832915932100e+004,-1.28442630514457e+001,-2.72573382160312e-001

1.58008262372675e+004,-1.28442638224069e+001,-2.76378211634876e-001

1.60213975517924e+004,-1.28442646150029e+001,-2.80236148054564e-001

1.62450479271247e+004,-1.28442654298399e+001,-2.84147932488878e-001

1.64718203453514e+004,-1.28442662675405e+001,-2.88114316341572e-001

1.67017583885674e+004,-1.28442671287453e+001,-2.92136061492339e-001

1.69349062472505e+004,-1.28442680141122e+001,-2.96213940445047e-001

1.71713087287550e+004,-1.28442689243177e+001,-3.00348736472959e-001

1.74110112659224e+004,-1.28442698600572e+001,-3.04541243770313e-001

1.76540599258131e+004,-1.28442708220452e+001,-3.08792267604203e-001

1.79005014185594e+004,-1.28442718110165e+001,-3.13102624466940e-001

1.81503831063432e+004,-1.28442728277261e+001,-3.17473142232599e-001

1.84037530124975e+004,-1.28442738729502e+001,-3.21904660316128e-001

1.86606598307361e+004,-1.28442749474865e+001,-3.26398029834725e-001

1.89211529345119e+004,-1.28442760521547e+001,-3.30954113767830e-001

1.91852823865052e+004,-1.28442771877977e+001,-3.35573787123857e-001

1.94530989482457e+004,-1.28442783552817e+001,-3.40257937105421e-001

1.97246540898671e+004,-1.28442795554970e+001,-3.45007463281321e-001

1.99999999999999e+004,-1.28442807893585e+001,-3.49823277757900e-001

2.02791895958005e+004,-1.28442820578067e+001,-3.54706305350239e-001

2.05622765331213e+004,-1.28442833618081e+001,-3.59657483762563e-001

2.08493152168224e+004,-1.28442847023560e+001,-3.64677763765143e-001

2.11403608112276e+004,-1.28442860804718e+001,-3.69768109374742e-001

2.14354692507258e+004,-1.28442874972045e+001,-3.74929498041049e-001

2.17346972505211e+004,-1.28442889536324e+001,-3.80162920832799e-001

2.20381023175322e+004,-1.28442904508643e+001,-3.85469382622585e-001

2.23457427614443e+004,-1.28442919900390e+001,-3.90849902285009e-001

2.26576777059159e+004,-1.28442935723271e+001,-3.96305512885576e-001

2.29739670999406e+004,-1.28442951989318e+001,-4.01837261880588e-001

2.32946717293690e+004,-1.28442968710893e+001,-4.07446211314965e-001

2.36198532285905e+004,-1.28442985900704e+001,-4.13133438024515e-001

2.39495740923785e+004,-1.28443003571808e+001,-4.18900033842918e-001

2.42838976879009e+004,-1.28443021737621e+001,-4.24747105809007e-001

2.46228882668982e+004,-1.28443040411937e+001,-4.30675776373777e-001

2.49666109780322e+004,-1.28443059608922e+001,-4.36687183619883e-001

2.53151318794055e+004,-1.28443079343139e+001,-4.42782481474738e-001

2.56685179512580e+004,-1.28443099629553e+001,-4.48962839927969e-001

2.60268371088386e+004,-1.28443120483538e+001,-4.55229445260031e-001

2.63901582154578e+004,-1.28443141920894e+001,-4.61583500261825e-001

2.67585510957221e+004,-1.28443163957858e+001,-4.68026224464990e-001

2.71320865489533e+004,-1.28443186611111e+001,-4.74558854374813e-001

2.75108363627948e+004,-1.28443209897794e+001,-4.81182643704128e-001

2.78948733270080e+004,-1.28443233835521e+001,-4.87898863610584e-001

2.82842712474618e+004,-1.28443258442389e+001,-4.94708802939084e-001

2.86791049603164e+004,-1.28443283736992e+001,-5.01613768465159e-001

2.90794503464061e+004,-1.28443309738435e+001,-5.08615085144148e-001

2.94853843458219e+004,-1.28443336466345e+001,-5.15714096361213e-001

2.98969849726987e+004,-1.28443363940889e+001,-5.22912164185848e-001

3.03143313302078e+004,-1.28443392182786e+001,-5.30210669630302e-001

3.07375036257601e+004,-1.28443421213323e+001,-5.37611012911015e-001

3.11665831864199e+004,-1.28443451054368e+001,-5.45114613713569e-001

3.16016524745350e+004,-1.28443481728386e+001,-5.52722911461068e-001

3.20427951035848e+004,-1.28443513258457e+001,-5.60437365586720e-001

3.24900958542493e+004,-1.28443545668291e+001,-5.68259455808822e-001

3.29436406907028e+004,-1.28443578982241e+001,-5.76190682412291e-001

3.34035167771346e+004,-1.28443613225328e+001,-5.84232566529485e-001

3.38698124945009e+004,-1.28443648423251e+001,-5.92386650428396e-001

3.43426174575100e+004,-1.28443684602408e+001,-6.00654497804556e-001

3.48220225318448e+004,-1.28443721789914e+001,-6.09037694074639e-001

3.53081198516260e+004,-1.28443760013620e+001,-6.17537846675168e-001

3.58010028371187e+004,-1.28443799302132e+001,-6.26156585366249e-001

3.63007662126863e+004,-1.28443839684830e+001,-6.34895562538493e-001

3.68075060249948e+004,-1.28443881191890e+001,-6.43756453521806e-001

3.73213196614721e+004,-1.28443923854301e+001,-6.52740956904112e-001

3.78423058690237e+004,-1.28443967703890e+001,-6.61850794847311e-001

3.83705647730104e+004,-1.28444012773341e+001,-6.71087713412293e-001

3.89061978964912e+004,-1.28444059096220e+001,-6.80453482886077e-001

3.94493081797342e+004,-1.28444106706992e+001,-6.89949898114852e-001

3.99999999999998e+004,-1.28444155641050e+001,-6.99578778840176e-001

4.05583791916010e+004,-1.28444205934736e+001,-7.09341970039051e-001

4.11245530662425e+004,-1.28444257625363e+001,-7.19241342270415e-001

4.16986304336447e+004,-1.28444310751246e+001,-7.29278792024607e-001

4.22807216224550e+004,-1.28444365351719e+001,-7.39456242078737e-001

4.28709385014515e+004,-1.28444421467167e+001,-7.49775641854537e-001

4.34693945010421e+004,-1.28444479139050e+001,-7.60238967784494e-001

4.40762046350642e+004,-1.28444538409928e+001,-7.70848223678427e-001

4.46914855228886e+004,-1.28444599323494e+001,-7.81605441098218e-001

4.53153554118317e+004,-1.28444661924596e+001,-7.92512679735887e-001

4.59479341998812e+004,-1.28444726259268e+001,-8.03572027797268e-001

4.65893434587380e+004,-1.28444792374761e+001,-8.14785602390338e-001

4.72397064571810e+004,-1.28444860319569e+001,-8.26155549918994e-001

4.78991481847569e+004,-1.28444930143464e+001,-8.37684046479837e-001

4.85677953758016e+004,-1.28445001897520e+001,-8.49373298268437e-001

4.92457765337964e+004,-1.28445075634154e+001,-8.61225541986402e-001

4.99332219560642e+004,-1.28445151407150e+001,-8.73243045255974e-001

5.06302637588109e+004,-1.28445229271696e+001,-8.85428107039961e-001

5.13370359025159e+004,-1.28445309284416e+001,-8.97783058065642e-001

5.20536742176771e+004,-1.28445391503404e+001,-9.10310261256500e-001

5.27803164309155e+004,-1.28445475988261e+001,-9.23012112166898e-001

5.35171021914442e+004,-1.28445562800126e+001,-9.35891039423643e-001

5.42641730979066e+004,-1.28445652001715e+001,-9.48949505173817e-001

5.50216727255895e+004,-1.28445743657356e+001,-9.62190005536739e-001

5.57897466540159e+004,-1.28445837833027e+001,-9.75615071062492e-001

5.65685424949235e+004,-1.28445934596395e+001,-9.89227267196037e-001

5.73582099206328e+004,-1.28446034016849e+001,-1.00302919474820e+000

5.81589006928121e+004,-1.28446136165544e+001,-1.01702349037154e+000

5.89707686916437e+004,-1.28446241115440e+001,-1.03121282704053e+000

5.97939699453972e+004,-1.28446348941339e+001,-1.04559991454308e+000

6.06286626604156e+004,-1.28446459719927e+001,-1.06018749997167e+000

6.14750072515201e+004,-1.28446573529817e+001,-1.07497836822535e+000

6.23331663728396e+004,-1.28446690451587e+001,-1.08997534251652e+000

6.32033049490698e+004,-1.28446810567823e+001,-1.10518128488280e+000

6.40855902071694e+004,-1.28446933963165e+001,-1.12059909670740e+000

6.49801917084985e+004,-1.28447060724346e+001,-1.13623171924441e+000

6.58872813814055e+004,-1.28447190940236e+001,-1.15208213415109e+000

6.68070335542691e+004,-1.28447324701887e+001,-1.16815336402723e+000

6.77396249890018e+004,-1.28447462102578e+001,-1.18444847295982e+000

6.86852349150199e+004,-1.28447603237857e+001,-1.20097056707639e+000

6.96440450636895e+004,-1.28447748205588e+001,-1.21772279510216e+000

7.06162397032520e+004,-1.28447897105994e+001,-1.23470834892794e+000

7.16020056742374e+004,-1.28448050041705e+001,-1.25193046418158e+000

7.26015324253724e+004,-1.28448207117802e+001,-1.26939242080801e+000

7.36150120499896e+004,-1.28448368441864e+001,-1.28709754365501e+000

7.46426393229441e+004,-1.28448534124011e+001,-1.30504920306978e+000

7.56846117380472e+004,-1.28448704276952e+001,-1.32325081549625e+000

7.67411295460207e+004,-1.28448879016031e+001,-1.34170584408668e+000

7.78123957929823e+004,-1.28449058459273e+001,-1.36041779931503e+000

7.88986163594682e+004,-1.28449242727427e+001,-1.37939023960216e+000

7.99999999999995e+004,-1.28449431944013e+001,-1.39862677194401e+000

8.11167583832018e+004,-1.28449626235369e+001,-1.41813105255111e+000

8.22491061324848e+004,-1.28449825730692e+001,-1.43790678749488e+000

8.33972608672892e+004,-1.28450030562083e+001,-1.45795773335993e+000

8.45614432449099e+004,-1.28450240864595e+001,-1.47828769790567e+000

8.57418770029029e+004,-1.28450456776268e+001,-1.49890054073669e+000

8.69387890020841e+004,-1.28450678438178e+001,-1.51980017397859e+000

8.81524092701283e+004,-1.28450905994474e+001,-1.54099056296336e+000

8.93829710457770e+004,-1.28451139592423e+001,-1.56247572692406e+000

9.06307108236633e+004,-1.28451379382442e+001,-1.58425973969587e+000

9.18958683997622e+004,-1.28451625518142e+001,-1.60634673042550e+000

9.31786869174758e+004,-1.28451878156364e+001,-1.62874088429096e+000

9.44794129143618e+004,-1.28452137457208e+001,-1.65144644322838e+000

9.57982963695136e+004,-1.28452403584075e+001,-1.67446770666708e+000

9.71355907516031e+004,-1.28452676703690e+001,-1.69780903227536e+000

9.84915530675926e+004,-1.28452956986139e+001,-1.72147483671275e+000

9.98664439121282e+004,-1.28453244604888e+001,-1.74546959639432e+000

1.01260527517622e+005,-1.28453539736818e+001,-1.76979784825959e+000

1.02674071805032e+005,-1.28453842562236e+001,-1.79446419055653e+000

1.04107348435354e+005,-1.28454153264901e+001,-1.81947328363037e+000

1.05560632861831e+005,-1.28454472032042e+001,-1.84482985072298e+000

1.07034204382888e+005,-1.28454799054366e+001,-1.87053867878437e+000

1.08528346195813e+005,-1.28455134526070e+001,-1.89660461928947e+000

1.10043345451179e+005,-1.28455478644849e+001,-1.92303258907071e+000

1.11579493308032e+005,-1.28455831611894e+001,-1.94982757115509e+000

1.13137084989847e+005,-1.28456193631896e+001,-1.97699461561546e+000

1.14716419841265e+005,-1.28456564913032e+001,-2.00453884043102e+000

1.16317801385624e+005,-1.28456945666962e+001,-2.03246543235798e+000

1.17941537383287e+005,-1.28457336108804e+001,-2.06077964781272e+000

1.19587939890794e+005,-1.28457736457122e+001,-2.08948681376389e+000

1.21257325320831e+005,-1.28458146933889e+001,-2.11859232863890e+000

1.22950014503040e+005,-1.28458567764462e+001,-2.14810166323801e+000

1.24666332745679e+005,-1.28458999177540e+001,-2.17802036166486e+000

1.26406609898139e+005,-1.28459441405115e+001,-2.20835404226445e+000

1.28171180414339e+005,-1.28459894682423e+001,-2.23910839857831e+000

1.29960383416997e+005,-1.28460359247883e+001,-2.27028920030714e+000

1.31774562762811e+005,-1.28460835343029e+001,-2.30190229429177e+000

1.33614067108538e+005,-1.28461323212433e+001,-2.33395360550283e+000

1.35479249978003e+005,-1.28461823103623e+001,-2.36644913804648e+000

1.37370469830040e+005,-1.28462335266987e+001,-2.39939497618493e+000

1.39288090127379e+005,-1.28462859955676e+001,-2.43279728536752e+000

1.41232479406504e+005,-1.28463397425486e+001,-2.46666231328132e+000

1.43204011348474e+005,-1.28463947934742e+001,-2.50099639091304e+000

1.45203064850745e+005,-1.28464511744164e+001,-2.53580593362879e+000

1.47230024099979e+005,-1.28465089116723e+001,-2.57109744226887e+000

1.49285278645888e+005,-1.28465680317490e+001,-2.60687750425898e+000

1.51369223476094e+005,-1.28466285613470e+001,-2.64315279473906e+000

1.53482259092041e+005,-1.28466905273424e+001,-2.67993007770863e+000

1.55624791585964e+005,-1.28467539567682e+001,-2.71721620719148e+000

1.57797232718936e+005,-1.28468188767936e+001,-2.75501812841757e+000

1.59999999999999e+005,-1.28468853147033e+001,-2.79334287902465e+000

1.62233516766403e+005,-1.28469532978738e+001,-2.83219759028023e+000

1.64498212264969e+005,-1.28470228537499e+001,-2.87158948832340e+000

1.66794521734578e+005,-1.28470940098185e+001,-2.91152589542760e+000

1.69122886489819e+005,-1.28471667935821e+001,-2.95201423128505e+000

1.71483754005805e+005,-1.28472412325296e+001,-2.99306201431542e+000

1.73877578004168e+005,-1.28473173541067e+001,-3.03467686299449e+000

1.76304818540256e+005,-1.28473951856844e+001,-3.07686649721031e+000

1.78765942091554e+005,-1.28474747545253e+001,-3.11963873964254e+000

1.81261421647326e+005,-1.28475560877497e+001,-3.16300151716666e+000

1.83791736799524e+005,-1.28476392122985e+001,-3.20696286228654e+000

1.86357373834951e+005,-1.28477241548959e+001,-3.25153091459413e+000

1.88958825828723e+005,-1.28478109420096e+001,-3.29671392225544e+000

1.91596592739027e+005,-1.28478995998095e+001,-3.34252024352953e+000

1.94271181503206e+005,-1.28479901541256e+001,-3.38895834831415e+000

1.96983106135185e+005,-1.28480826304027e+001,-3.43603681972509e+000

1.99732887824256e+005,-1.28481770536553e+001,-3.48376435570735e+000

2.02521055035243e+005,-1.28482734484192e+001,-3.53214977067879e+000

2.05348143610063e+005,-1.28483718387030e+001,-3.58120199720937e+000

2.08214696870707e+005,-1.28484722479372e+001,-3.63093008773587e+000

2.11121265723661e+005,-1.28485746989218e+001,-3.68134321631199e+000

2.14068408765776e+005,-1.28486792137729e+001,-3.73245068039844e+000

2.17056692391625e+005,-1.28487858138672e+001,-3.78426190269002e+000

2.20086690902357e+005,-1.28488945197860e+001,-3.83678643298389e+000

2.23158986616063e+005,-1.28490053512571e+001,-3.89003395008895e+000

2.26274169979693e+005,-1.28491183270961e+001,-3.94401426377724e+000

2.29432839682530e+005,-1.28492334651459e+001,-3.99873731678005e+000

2.32635602771247e+005,-1.28493507822157e+001,-4.05421318682699e+000

2.35883074766574e+005,-1.28494702940187e+001,-4.11045208873348e+000

2.39175879781588e+005,-1.28495920151094e+001,-4.16746437653299e+000

2.42514650641661e+005,-1.28497159588196e+001,-4.22526054565943e+000

2.45900029006080e+005,-1.28498421371941e+001,-4.28385123517760e+000

2.49332665491357e+005,-1.28499705609259e+001,-4.34324723006549e+000

2.52813219796278e+005,-1.28501012392912e+001,-4.40345946354661e+000

2.56342360828676e+005,-1.28502341800840e+001,-4.46449901947616e+000

2.59920766833993e+005,-1.28503693895509e+001,-4.52637713478123e+000

2.63549125525621e+005,-1.28505068723261e+001,-4.58910520195379e+000

2.67228134217075e+005,-1.28506466313664e+001,-4.65269477160113e+000

2.70958499956006e+005,-1.28507886678876e+001,-4.71715755505174e+000

2.74740939660078e+005,-1.28509329813005e+001,-4.78250542701922e+000

2.78576180254757e+005,-1.28510795691489e+001,-4.84875042832250e+000

2.82464958813007e+005,-1.28512284270483e+001,-4.91590476866717e+000

2.86408022696948e+005,-1.28513795486261e+001,-4.98398082948397e+000

2.90406129701488e+005,-1.28515329254636e+001,-5.05299116682750e+000

2.94460048199957e+005,-1.28516885470395e+001,-5.12294851433649e+000

2.98570557291775e+005,-1.28518464006759e+001,-5.19386578625266e+000

3.02738446952187e+005,-1.28520064714868e+001,-5.26575608050176e+000

3.06964518184081e+005,-1.28521687423286e+001,-5.33863268183497e+000

3.11249583171928e+005,-1.28523331937541e+001,-5.41250906503125e+000

3.15594465437872e+005,-1.28524998039692e+001,-5.48739889816088e+000

3.19999999999997e+005,-1.28526685487934e+001,-5.56331604590979e+000

3.24467033532806e+005,-1.28528394016234e+001,-5.64027457296427e+000

3.28996424529938e+005,-1.28530123334010e+001,-5.71828874745532e+000

3.33589043469155e+005,-1.28531873125845e+001,-5.79737304446381e+000

3.38245772979638e+005,-1.28533643051255e+001,-5.87754214958364e+000

3.42967508011610e+005,-1.28535432744490e+001,-5.95881096254306e+000

3.47755156008335e+005,-1.28537241814389e+001,-6.04119460088462e+000

3.52609637080511e+005,-1.28539069844288e+001,-6.12470840370067e+000

3.57531884183106e+005,-1.28540916391971e+001,-6.20936793542411e+000

3.62522843294651e+005,-1.28542780989681e+001,-6.29518898967501e+000

3.67583473599047e+005,-1.28544663144184e+001,-6.38218759315854e+000

3.72714747669902e+005,-1.28546562336887e+001,-6.47038000961651e+000

3.77917651657445e+005,-1.28548478024017e+001,-6.55978274382754e+000

3.83193185478053e+005,-1.28550409636860e+001,-6.65041254565807e+000

3.88542363006410e+005,-1.28552356582053e+001,-6.74228641415950e+000

3.93966212270369e+005,-1.28554318241939e+001,-6.83542160171194e+000

3.99465775648511e+005,-1.28556293974991e+001,-6.92983561821214e+000

4.05042110070485e+005,-1.28558283116282e+001,-7.02554623530394e+000

4.10696287220124e+005,-1.28560284978024e+001,-7.12257149064996e+000

4.16429393741414e+005,-1.28562298850173e+001,-7.22092969224281e+000

4.22242531447321e+005,-1.28564324001077e+001,-7.32063942275341e+000

4.28136817531551e+005,-1.28566359678203e+001,-7.42171954391574e+000

4.34113384783250e+005,-1.28568405108903e+001,-7.52418920094707e+000

4.40173381804713e+005,-1.28570459501252e+001,-7.62806782699903e+000

4.46317973232124e+005,-1.28572522044929e+001,-7.73337514764247e+000

4.52548339959385e+005,-1.28574591912159e+001,-7.84013118538090e+000

4.58865679365059e+005,-1.28576668258701e+001,-7.94835626419370e+000

4.65271205542494e+005,-1.28578750224885e+001,-8.05807101410605e+000

4.71766149533147e+005,-1.28580836936699e+001,-8.16929637578713e+000

4.78351759563174e+005,-1.28582927506908e+001,-8.28205360517211e+000

4.85029301283321e+005,-1.28585021036228e+001,-8.39636427811030e+000

4.91800058012158e+005,-1.28587116614525e+001,-8.51225029503738e+000

4.98665330982714e+005,-1.28589213322051e+001,-8.62973388567156e+000

5.05626439592555e+005,-1.28591310230709e+001,-8.74883761373349e+000

5.12684721657352e+005,-1.28593406405346e+001,-8.86958438168937e+000

5.19841533667984e+005,-1.28595500905065e+001,-8.99199743551899e+000

5.27098251051240e+005,-1.28597592784561e+001,-9.11610036950662e+000

5.34456268434150e+005,-1.28599681095461e+001,-9.24191713105753e+000

5.41916999912011e+005,-1.28601764887686e+001,-9.36947202553989e+000

