Freq.,VOut,OutRef

1.00000000000000e+004,-3.35079936682355e+001,-8.46357407120601e-002

1.01395947979003e+004,-3.35079945501885e+001,-8.58171102340295e-002

1.02811382665607e+004,-3.35079954569198e+001,-8.70149667571214e-002

1.04246576084112e+004,-3.35079963891251e+001,-8.82295402484796e-002

1.05701804056138e+004,-3.35079973475196e+001,-8.94610638771760e-002

1.07177346253629e+004,-3.35079983328385e+001,-9.07097740601606e-002

1.08673486252606e+004,-3.35079993458375e+001,-9.19759105066693e-002

1.10190511587661e+004,-3.35080003872937e+001,-9.32597162621319e-002

1.11728713807222e+004,-3.35080014580061e+001,-9.45614377549650e-002

1.13288388529580e+004,-3.35080025587954e+001,-9.58813248476950e-002

1.14869835499703e+004,-3.35080036905061e+001,-9.72196308773554e-002

1.16473358646846e+004,-3.35080048540061e+001,-9.85766127070128e-002

1.18099266142953e+004,-3.35080060501874e+001,-9.99525307772195e-002

1.19747870461893e+004,-3.35080072799669e+001,-1.01347649152405e-001

1.21419488439505e+004,-3.35080085442879e+001,-1.02762235567686e-001

1.23114441334492e+004,-3.35080098441194e+001,-1.04196561487627e-001

1.24833054890161e+004,-3.35080111804576e+001,-1.05650902153876e-001

1.26575659397028e+004,-3.35080125543271e+001,-1.07125536632981e-001

1.28342589756290e+004,-3.35080139667808e+001,-1.08620747875900e-001

1.30134185544193e+004,-3.35080154189009e+001,-1.10136822770522e-001

1.31950791077289e+004,-3.35080169118004e+001,-1.11674052190842e-001

1.33792755478611e+004,-3.35080184466230e+001,-1.13232731058086e-001

1.35660432744767e+004,-3.35080200245448e+001,-1.14813158393203e-001

1.37554181813974e+004,-3.35080216467743e+001,-1.16415637376104e-001

1.39474366635040e+004,-3.35080233145544e+001,-1.18040475398488e-001

1.41421356237309e+004,-3.35080250291620e+001,-1.19687984126977e-001

1.43395524801583e+004,-3.35080267919108e+001,-1.21358479556408e-001

1.45397251732031e+004,-3.35080286041504e+001,-1.23052282075614e-001

1.47426921729110e+004,-3.35080304672682e+001,-1.24769716525113e-001

1.49484924863494e+004,-3.35080323826907e+001,-1.26511112256890e-001

1.51571656651040e+004,-3.35080343518841e+001,-1.28276803196929e-001

1.53687518128801e+004,-3.35080363763557e+001,-1.30067127909808e-001

1.55832915932100e+004,-3.35080384576546e+001,-1.31882429663859e-001

1.58008262372675e+004,-3.35080405973738e+001,-1.33723056489105e-001

1.60213975517924e+004,-3.35080427971500e+001,-1.35589361251022e-001

1.62450479271247e+004,-3.35080450586663e+001,-1.37481701710702e-001

1.64718203453514e+004,-3.35080473836523e+001,-1.39400440594825e-001

1.67017583885674e+004,-3.35080497738863e+001,-1.41345945662927e-001

1.69349062472505e+004,-3.35080522311960e+001,-1.43318589777538e-001

1.71713087287550e+004,-3.35080547574601e+001,-1.45318750972110e-001

1.74110112659224e+004,-3.35080573546097e+001,-1.47346812523418e-001

1.76540599258131e+004,-3.35080600246301e+001,-1.49403163021646e-001

1.79005014185594e+004,-3.35080627695615e+001,-1.51488196445776e-001

1.81503831063432e+004,-3.35080655915013e+001,-1.53602312234469e-001

1.84037530124975e+004,-3.35080684926052e+001,-1.55745915362706e-001

1.86606598307361e+004,-3.35080714750892e+001,-1.57919416414802e-001

1.89211529345119e+004,-3.35080745412307e+001,-1.60123231664549e-001

1.91852823865052e+004,-3.35080776933709e+001,-1.62357783148908e-001

1.94530989482457e+004,-3.35080809339158e+001,-1.64623498750488e-001

1.97246540898671e+004,-3.35080842653390e+001,-1.66920812272102e-001

1.99999999999999e+004,-3.35080876901823e+001,-1.69250163523558e-001

2.02791895958005e+004,-3.35080912110585e+001,-1.71611998398456e-001

2.05622765331213e+004,-3.35080948306532e+001,-1.74006768957103e-001

2.08493152168224e+004,-3.35080985517266e+001,-1.76434933512780e-001

2.11403608112276e+004,-3.35081023771155e+001,-1.78896956716379e-001

2.14354692507258e+004,-3.35081063097357e+001,-1.81393309639231e-001

2.17346972505211e+004,-3.35081103525840e+001,-1.83924469863285e-001

2.20381023175322e+004,-3.35081145087402e+001,-1.86490921568218e-001

2.23457427614443e+004,-3.35081187813702e+001,-1.89093155617152e-001

2.26576777059159e+004,-3.35081231737270e+001,-1.91731669655290e-001

2.29739670999406e+004,-3.35081276891544e+001,-1.94406968191826e-001

2.32946717293690e+004,-3.35081323310888e+001,-1.97119562699364e-001

2.36198532285905e+004,-3.35081371030619e+001,-1.99869971703529e-001

2.39495740923785e+004,-3.35081420087029e+001,-2.02658720881410e-001

2.42838976879009e+004,-3.35081470517421e+001,-2.05486343154208e-001

2.46228882668982e+004,-3.35081522360127e+001,-2.08353378786780e-001

2.49666109780322e+004,-3.35081575654545e+001,-2.11260375483965e-001

2.53151318794055e+004,-3.35081630441154e+001,-2.14207888494820e-001

2.56685179512580e+004,-3.35081686761560e+001,-2.17196480707145e-001

2.60268371088386e+004,-3.35081744658519e+001,-2.20226722753216e-001

2.63901582154578e+004,-3.35081804175963e+001,-2.23299193115555e-001

2.67585510957221e+004,-3.35081865359039e+001,-2.26414478226225e-001

2.71320865489533e+004,-3.35081928254144e+001,-2.29573172574866e-001

2.75108363627948e+004,-3.35081992908950e+001,-2.32775878816966e-001

2.78948733270080e+004,-3.35082059372445e+001,-2.36023207882366e-001

2.82842712474618e+004,-3.35082127694967e+001,-2.39315779082227e-001

2.86791049603164e+004,-3.35082197928241e+001,-2.42654220221954e-001

2.90794503464061e+004,-3.35082270125414e+001,-2.46039167714247e-001

2.94853843458219e+004,-3.35082344341096e+001,-2.49471266690780e-001

2.98969849726987e+004,-3.35082420631398e+001,-2.52951171118338e-001

3.03143313302078e+004,-3.35082499053970e+001,-2.56479543915651e-001

3.07375036257601e+004,-3.35082579668050e+001,-2.60057057066761e-001

3.11665831864199e+004,-3.35082662534495e+001,-2.63684391747106e-001

3.16016524745350e+004,-3.35082747715835e+001,-2.67362238436746e-001

3.20427951035848e+004,-3.35082835276311e+001,-2.71091297045605e-001

3.24900958542493e+004,-3.35082925281923e+001,-2.74872277036079e-001

3.29436406907028e+004,-3.35083017800476e+001,-2.78705897547517e-001

3.34035167771346e+004,-3.35083112901629e+001,-2.82592887519470e-001

3.38698124945009e+004,-3.35083210656943e+001,-2.86533985821919e-001

3.43426174575100e+004,-3.35083311139931e+001,-2.90529941382504e-001

3.48220225318448e+004,-3.35083414426112e+001,-2.94581513313642e-001

3.53081198516260e+004,-3.35083520593063e+001,-2.98689471048643e-001

3.58010028371187e+004,-3.35083629720467e+001,-3.02854594471671e-001

3.63007662126863e+004,-3.35083741890181e+001,-3.07077674048498e-001

3.68075060249948e+004,-3.35083857186280e+001,-3.11359510969228e-001

3.73213196614721e+004,-3.35083975695124e+001,-3.15700917277383e-001

3.78423058690237e+004,-3.35084097505413e+001,-3.20102716012632e-001

3.83705647730104e+004,-3.35084222708250e+001,-3.24565741348459e-001

3.89061978964912e+004,-3.35084351397200e+001,-3.29090838734486e-001

3.94493081797342e+004,-3.35084483668360e+001,-3.33678865036360e-001

3.99999999999998e+004,-3.35084619620420e+001,-3.38330688680955e-001

4.05583791916010e+004,-3.35084759354729e+001,-3.43047189801252e-001

4.11245530662425e+004,-3.35084902975367e+001,-3.47829260382266e-001

4.16986304336447e+004,-3.35085050589214e+001,-3.52677804408334e-001

4.22807216224550e+004,-3.35085202306019e+001,-3.57593738013670e-001

4.28709385014515e+004,-3.35085358238478e+001,-3.62577989630796e-001

4.34693945010421e+004,-3.35085518502300e+001,-3.67631500144879e-001

4.40762046350642e+004,-3.35085683216296e+001,-3.72755223043905e-001

4.46914855228886e+004,-3.35085852502450e+001,-3.77950124573467e-001

4.53153554118317e+004,-3.35086026485996e+001,-3.83217183895908e-001

4.59479341998812e+004,-3.35086205295507e+001,-3.88557393241822e-001

4.65893434587380e+004,-3.35086389062973e+001,-3.93971758074249e-001

4.72397064571810e+004,-3.35086577923891e+001,-3.99461297242330e-001

4.78991481847569e+004,-3.35086772017347e+001,-4.05027043146118e-001

4.85677953758016e+004,-3.35086971486107e+001,-4.10670041898153e-001

4.92457765337964e+004,-3.35087176476709e+001,-4.16391353484445e-001

4.99332219560642e+004,-3.35087387139553e+001,-4.22192051931449e-001

5.06302637588109e+004,-3.35087603629001e+001,-4.28073225469086e-001

5.13370359025159e+004,-3.35087826103464e+001,-4.34035976699979e-001

5.20536742176771e+004,-3.35088054725508e+001,-4.40081422765934e-001

5.27803164309155e+004,-3.35088289661953e+001,-4.46210695515885e-001

5.35171021914442e+004,-3.35088531083971e+001,-4.52424941678240e-001

5.42641730979066e+004,-3.35088779167193e+001,-4.58725323029504e-001

5.50216727255895e+004,-3.35089034091816e+001,-4.65113016567957e-001

5.57897466540159e+004,-3.35089296042707e+001,-4.71589214686468e-001

5.65685424949235e+004,-3.35089565209518e+001,-4.78155125343530e-001

5.73582099206328e+004,-3.35089841786792e+001,-4.84811972242802e-001

5.81589006928121e+004,-3.35090125974080e+001,-4.91560995004669e-001

5.89707686916437e+004,-3.35090417976056e+001,-4.98403449344739e-001

5.97939699453972e+004,-3.35090718002633e+001,-5.05340607251003e-001

6.06286626604156e+004,-3.35091026269087e+001,-5.12373757159516e-001

6.14750072515201e+004,-3.35091342996169e+001,-5.19504204136382e-001

6.23331663728396e+004,-3.35091668410236e+001,-5.26733270055188e-001

6.32033049490698e+004,-3.35092002743374e+001,-5.34062293775221e-001

6.40855902071694e+004,-3.35092346233521e+001,-5.41492631325966e-001

6.49801917084985e+004,-3.35092699124601e+001,-5.49025656082705e-001

6.58872813814055e+004,-3.35093061666648e+001,-5.56662758952864e-001

6.68070335542691e+004,-3.35093434115942e+001,-5.64405348553100e-001

6.77396249890018e+004,-3.35093816735137e+001,-5.72254851395882e-001

6.86852349150199e+004,-3.35094209793405e+001,-5.80212712066194e-001

6.96440450636895e+004,-3.35094613566561e+001,-5.88280393408582e-001

7.06162397032520e+004,-3.35095028337208e+001,-5.96459376706504e-001

7.16020056742374e+004,-3.35095454394873e+001,-6.04751161866682e-001

7.26015324253724e+004,-3.35095892036146e+001,-6.13157267601511e-001

7.36150120499896e+004,-3.35096341564825e+001,-6.21679231609333e-001

7.46426393229441e+004,-3.35096803292054e+001,-6.30318610759122e-001

7.56846117380472e+004,-3.35097277536469e+001,-6.39076981271640e-001

7.67411295460207e+004,-3.35097764624339e+001,-6.47955938900259e-001

7.78123957929823e+004,-3.35098264889713e+001,-6.56957099114118e-001

7.88986163594682e+004,-3.35098778674561e+001,-6.66082097277699e-001

7.99999999999995e+004,-3.35099306328927e+001,-6.75332588830879e-001

8.11167583832018e+004,-3.35099848211064e+001,-6.84710249470569e-001

8.22491061324848e+004,-3.35100404687588e+001,-6.94216775327696e-001

8.33972608672892e+004,-3.35100976133618e+001,-7.03853883147161e-001

8.45614432449099e+004,-3.35101562932923e+001,-7.13623310465417e-001

8.57418770029029e+004,-3.35102165478067e+001,-7.23526815785590e-001

8.69387890020841e+004,-3.35102784170550e+001,-7.33566178755008e-001

8.81524092701283e+004,-3.35103419420950e+001,-7.43743200338619e-001

8.93829710457770e+004,-3.35104071649066e+001,-7.54059702994259e-001

9.06307108236633e+004,-3.35104741284056e+001,-7.64517530843550e-001

9.18958683997622e+004,-3.35105428764575e+001,-7.75118549842986e-001

9.31786869174758e+004,-3.35106134538908e+001,-7.85864647956031e-001

9.44794129143618e+004,-3.35106859065106e+001,-7.96757735319353e-001

9.57982963695136e+004,-3.35107602811110e+001,-8.07799744411695e-001

9.71355907516031e+004,-3.35108366254883e+001,-8.18992630217923e-001

9.84915530675926e+004,-3.35109149884532e+001,-8.30338370395174e-001

9.98664439121282e+004,-3.35109954198421e+001,-8.41838965435019e-001

1.01260527517622e+005,-3.35110779705291e+001,-8.53496438823671e-001

1.02674071805032e+005,-3.35111626924368e+001,-8.65312837203127e-001

1.04107348435354e+005,-3.35112496385467e+001,-8.77290230527021e-001

1.05560632861831e+005,-3.35113388629086e+001,-8.89430712220958e-001

1.07034204382888e+005,-3.35114304206504e+001,-9.01736399332159e-001

1.08528346195813e+005,-3.35115243679863e+001,-9.14209432687128e-001

1.10043345451179e+005,-3.35116207622244e+001,-9.26851977040984e-001

1.11579493308032e+005,-3.35117196617737e+001,-9.39666221229252e-001

1.13137084989847e+005,-3.35118211261506e+001,-9.52654378314129e-001

1.14716419841265e+005,-3.35119252159836e+001,-9.65818685734485e-001

1.16317801385624e+005,-3.35120319930175e+001,-9.79161405450627e-001

1.17941537383287e+005,-3.35121415201171e+001,-9.92684824088858e-001

1.19587939890794e+005,-3.35122538612683e+001,-1.00639125308687e+000

1.21257325320831e+005,-3.35123690815799e+001,-1.02028302883506e+000

1.22950014503040e+005,-3.35124872472827e+001,-1.03436251281782e+000

1.24666332745679e+005,-3.35126084257277e+001,-1.04863209175909e+000

1.26406609898139e+005,-3.35127326853833e+001,-1.06309417775838e+000

1.28171180414339e+005,-3.35128600958305e+001,-1.07775120843526e+000

1.29960383416997e+005,-3.35129907277563e+001,-1.09260564707043e+000

1.31774562762811e+005,-3.35131246529466e+001,-1.10765998274553e+000

1.33614067108538e+005,-3.35132619442763e+001,-1.12291673048755e+000

1.35479249978003e+005,-3.35134026756976e+001,-1.13837843141154e+000

1.37370469830040e+005,-3.35135469222272e+001,-1.15404765286636e+000

1.39288090127379e+005,-3.35136947599308e+001,-1.16992698858092e+000

1.41232479406504e+005,-3.35138462659057e+001,-1.18601905881554e+000

1.43204011348474e+005,-3.35140015182613e+001,-1.20232651051234e+000

1.45203064850745e+005,-3.35141605960976e+001,-1.21885201745366e+000

1.47230024099979e+005,-3.35143235794805e+001,-1.23559828042065e+000

1.49285278645888e+005,-3.35144905494157e+001,-1.25256802736026e+000

1.51369223476094e+005,-3.35146615878197e+001,-1.26976401355399e+000

1.53482259092041e+005,-3.35148367774875e+001,-1.28718902179574e+000

1.55624791585964e+005,-3.35150162020588e+001,-1.30484586257575e+000

1.57797232718936e+005,-3.35151999459807e+001,-1.32273737427219e+000

1.59999999999999e+005,-3.35153880944674e+001,-1.34086642335129e+000

1.62233516766403e+005,-3.35155807334573e+001,-1.35923590457871e+000

1.64498212264969e+005,-3.35157779495672e+001,-1.37784874123983e+000

1.66794521734578e+005,-3.35159798300428e+001,-1.39670788537285e+000

1.69122886489819e+005,-3.35161864627066e+001,-1.41581631801459e+000

1.71483754005805e+005,-3.35163979359025e+001,-1.43517704946087e+000

1.73877578004168e+005,-3.35166143384365e+001,-1.45479311954157e+000

1.76304818540256e+005,-3.35168357595151e+001,-1.47466759791328e+000

1.78765942091554e+005,-3.35170622886791e+001,-1.49480358436940e+000

1.81261421647326e+005,-3.35172940157353e+001,-1.51520420916969e+000

1.83791736799524e+005,-3.35175310306831e+001,-1.53587263339235e+000

1.86357373834951e+005,-3.35177734236394e+001,-1.55681204930590e+000

1.88958825828723e+005,-3.35180212847587e+001,-1.57802568076797e+000

1.91596592739027e+005,-3.35182747041501e+001,-1.59951678364885e+000

1.94271181503206e+005,-3.35185337717910e+001,-1.62128864628267e+000

1.96983106135185e+005,-3.35187985774370e+001,-1.64334458994771e+000

1.99732887824256e+005,-3.35190692105288e+001,-1.66568796937907e+000

2.02521055035243e+005,-3.35193457600953e+001,-1.68832217331283e+000

2.05348143610063e+005,-3.35196283146535e+001,-1.71125062506617e+000

2.08214696870707e+005,-3.35199169621053e+001,-1.73447678315532e+000

2.11121265723661e+005,-3.35202117896314e+001,-1.75800414195027e+000

2.14068408765776e+005,-3.35205128835815e+001,-1.78183623237255e+000

2.17056692391625e+005,-3.35208203293621e+001,-1.80597662263545e+000

2.20086690902357e+005,-3.35211342113218e+001,-1.83042891902857e+000

2.23158986616063e+005,-3.35214546126336e+001,-1.85519676674972e+000

2.26274169979693e+005,-3.35217816151750e+001,-1.88028385078843e+000

2.29432839682530e+005,-3.35221152994063e+001,-1.90569389685638e+000

2.32635602771247e+005,-3.35224557442464e+001,-1.93143067237474e+000

2.35883074766574e+005,-3.35228030269476e+001,-1.95749798751658e+000

2.39175879781588e+005,-3.35231572229688e+001,-1.98389969630392e+000

2.42514650641661e+005,-3.35235184058478e+001,-2.01063969776743e+000

2.45900029006080e+005,-3.35238866470727e+001,-2.03772193716413e+000

2.49332665491357e+005,-3.35242620159530e+001,-2.06515040726158e+000

2.52813219796278e+005,-3.35246445794917e+001,-2.09292914968261e+000

2.56342360828676e+005,-3.35250344022559e+001,-2.12106225632020e+000

2.59920766833993e+005,-3.35254315462507e+001,-2.14955387081733e+000

2.63549125525621e+005,-3.35258360707928e+001,-2.17840819011717e+000

2.67228134217075e+005,-3.35262480323862e+001,-2.20762946608374e+000

2.70958499956006e+005,-3.35266674846011e+001,-2.23722200719364e+000

2.74740939660078e+005,-3.35270944779548e+001,-2.26719018030103e+000

2.78576180254757e+005,-3.35275290597965e+001,-2.29753841247345e+000

2.82464958813007e+005,-3.35279712741957e+001,-2.32827119290543e+000

2.86408022696948e+005,-3.35284211618355e+001,-2.35939307490266e+000

2.90406129701488e+005,-3.35288787599115e+001,-2.39090867794083e+000

2.94460048199957e+005,-3.35293441020350e+001,-2.42282268980100e+000

2.98570557291775e+005,-3.35298172181444e+001,-2.45513986877629e+000

3.02738446952187e+005,-3.35302981344223e+001,-2.48786504595217e+000

3.06964518184081e+005,-3.35307868732209e+001,-2.52100312756105e+000

3.11249583171928e+005,-3.35312834529955e+001,-2.55455909740437e+000

3.15594465437872e+005,-3.35317878882471e+001,-2.58853801934825e+000

3.19999999999997e+005,-3.35323001894743e+001,-2.62294503988528e+000

3.24467033532806e+005,-3.35328203631355e+001,-2.65778539076257e+000

3.28996424529938e+005,-3.35333484116226e+001,-2.69306439167276e+000

3.33589043469155e+005,-3.35338843332448e+001,-2.72878745300903e+000

3.38245772979638e+005,-3.35344281222257e+001,-2.76496007867462e+000

3.42967508011610e+005,-3.35349797687126e+001,-2.80158786895050e+000

3.47755156008335e+005,-3.35355392587986e+001,-2.83867652341245e+000

3.52609637080511e+005,-3.35361065745593e+001,-2.87623184389743e+000

3.57531884183106e+005,-3.35366816941027e+001,-2.91425973751297e+000

3.62522843294651e+005,-3.35372645916344e+001,-2.95276621968584e+000

3.67583473599047e+005,-3.35378552375379e+001,-2.99175741724599e+000

3.72714747669902e+005,-3.35384535984702e+001,-3.03123957154005e+000

3.77917651657445e+005,-3.35390596374731e+001,-3.07121904157060e+000

3.83193185478053e+005,-3.35396733141009e+001,-3.11170230715376e+000

3.88542363006410e+005,-3.35402945845645e+001,-3.15269597209158e+000

3.93966212270369e+005,-3.35409234018916e+001,-3.19420676735469e+000

3.99465775648511e+005,-3.35415597161039e+001,-3.23624155426464e+000

4.05042110070485e+005,-3.35422034744111e+001,-3.27880732767609e+000

4.10696287220124e+005,-3.35428546214215e+001,-3.32191121914919e+000

4.16429393741414e+005,-3.35435130993691e+001,-3.36556050010700e+000

4.22242531447321e+005,-3.35441788483577e+001,-3.40976258497234e+000

4.28136817531551e+005,-3.35448518066211e+001,-3.45452503427798e+000

4.34113384783250e+005,-3.35455319107992e+001,-3.49985555774434e+000

4.40173381804713e+005,-3.35462190962308e+001,-3.54576201731828e+000

4.46317973232124e+005,-3.35469132972607e+001,-3.59225243016841e+000

4.52548339959385e+005,-3.35476144475624e+001,-3.63933497163129e+000

4.58865679365059e+005,-3.35483224804757e+001,-3.68701797810094e+000

4.65271205542494e+005,-3.35490373293574e+001,-3.73530994986037e+000

4.71766149533147e+005,-3.35497589279455e+001,-3.78421955384678e+000

4.78351759563174e+005,-3.35504872107371e+001,-3.83375562634855e+000

4.85029301283321e+005,-3.35512221133763e+001,-3.88392717562749e+000

4.91800058012158e+005,-3.35519635730549e+001,-3.93474338446514e+000

4.98665330982714e+005,-3.35527115289230e+001,-3.98621361262603e+000

5.05626439592555e+005,-3.35534659225082e+001,-4.03834739923969e+000

5.12684721657352e+005,-3.35542266981450e+001,-4.09115446509287e+000

5.19841533667984e+005,-3.35549938034102e+001,-4.14464471483607e+000

5.27098251051240e+005,-3.35557671895659e+001,-4.19882823909639e+000

5.34456268434150e+005,-3.35565468120086e+001,-4.25371531650129e+000

5.41916999912011e+005,-3.35573326307220e+001,-4.30931641560750e+000

