Freq.,VOut,OutRef

1.00000000000000e+004,-2.19668016605378e+001,-3.91315033195803e-001

1.01395947979003e+004,-2.19668044875283e+001,-3.96777416103257e-001

1.02811382665607e+004,-2.19668073939718e+001,-4.02316043759735e-001

1.04246576084112e+004,-2.19668103821006e+001,-4.07931980193449e-001

1.05701804056138e+004,-2.19668134542097e+001,-4.13626304272256e-001

1.07177346253629e+004,-2.19668166126586e+001,-4.19400109912260e-001

1.08673486252606e+004,-2.19668198598730e+001,-4.25254506284319e-001

1.10190511587661e+004,-2.19668231983467e+001,-4.31190618028952e-001

1.11728713807222e+004,-2.19668266306435e+001,-4.37209585470212e-001

1.13288388529580e+004,-2.19668301593991e+001,-4.43312564834568e-001

1.14869835499703e+004,-2.19668337873233e+001,-4.49500728471745e-001

1.16473358646846e+004,-2.19668375172021e+001,-4.55775265078779e-001

1.18099266142953e+004,-2.19668413518993e+001,-4.62137379929815e-001

1.19747870461893e+004,-2.19668452943595e+001,-4.68588295103611e-001

1.21419488439505e+004,-2.19668493476096e+001,-4.75129249719016e-001

1.23114441334492e+004,-2.19668535147617e+001,-4.81761500171036e-001

1.24833054890161e+004,-2.19668577990151e+001,-4.88486320372835e-001

1.26575659397028e+004,-2.19668622036591e+001,-4.95305001997756e-001

1.28342589756290e+004,-2.19668667320749e+001,-5.02218854726853e-001

1.30134185544193e+004,-2.19668713877389e+001,-5.09229206499189e-001

1.31950791077289e+004,-2.19668761742250e+001,-5.16337403765789e-001

1.33792755478611e+004,-2.19668810952072e+001,-5.23544811747537e-001

1.35660432744767e+004,-2.19668861544630e+001,-5.30852814693462e-001

1.37554181813974e+004,-2.19668913558752e+001,-5.38262816149823e-001

1.39474366635040e+004,-2.19668967034360e+001,-5.45776239224468e-001

1.41421356237309e+004,-2.19669022012497e+001,-5.53394526858347e-001

1.43395524801583e+004,-2.19669078535351e+001,-5.61119142105748e-001

1.45397251732031e+004,-2.19669136646300e+001,-5.68951568407356e-001

1.47426921729110e+004,-2.19669196389935e+001,-5.76893309877924e-001

1.49484924863494e+004,-2.19669257812098e+001,-5.84945891591951e-001

1.51571656651040e+004,-2.19669320959917e+001,-5.93110859874155e-001

1.53687518128801e+004,-2.19669385881840e+001,-6.01389782596019e-001

1.55832915932100e+004,-2.19669452627674e+001,-6.09784249472769e-001

1.58008262372675e+004,-2.19669521248623e+001,-6.18295872368302e-001

1.60213975517924e+004,-2.19669591797327e+001,-6.26926285601344e-001

1.62450479271247e+004,-2.19669664327899e+001,-6.35677146257864e-001

1.64718203453514e+004,-2.19669738895970e+001,-6.44550134506719e-001

1.67017583885674e+004,-2.19669815558731e+001,-6.53546953919573e-001

1.69349062472505e+004,-2.19669894374974e+001,-6.62669331794927e-001

1.71713087287550e+004,-2.19669975405140e+001,-6.71919019488115e-001

1.74110112659224e+004,-2.19670058711361e+001,-6.81297792744616e-001

1.76540599258131e+004,-2.19670144357513e+001,-6.90807452036161e-001

1.79005014185594e+004,-2.19670232409256e+001,-7.00449822907336e-001

1.81503831063432e+004,-2.19670322934097e+001,-7.10226756317648e-001

1.84037530124975e+004,-2.19670416001425e+001,-7.20140128999130e-001

1.86606598307361e+004,-2.19670511682579e+001,-7.30191843807591e-001

1.89211529345119e+004,-2.19670610050891e+001,-7.40383830090006e-001

1.91852823865052e+004,-2.19670711181747e+001,-7.50718044046118e-001

1.94530989482457e+004,-2.19670815152646e+001,-7.61196469102648e-001

1.97246540898671e+004,-2.19670922043253e+001,-7.71821116290043e-001

1.99999999999999e+004,-2.19671031935464e+001,-7.82594024622950e-001

2.02791895958005e+004,-2.19671144913466e+001,-7.93517261488917e-001

2.05622765331213e+004,-2.19671261063803e+001,-8.04592923037747e-001

2.08493152168224e+004,-2.19671380475438e+001,-8.15823134582353e-001

2.11403608112276e+004,-2.19671503239823e+001,-8.27210050999785e-001

2.14354692507258e+004,-2.19671629450970e+001,-8.38755857139710e-001

2.17346972505211e+004,-2.19671759205517e+001,-8.50462768237417e-001

2.20381023175322e+004,-2.19671892602805e+001,-8.62333030336502e-001

2.23457427614443e+004,-2.19672029744952e+001,-8.74368920709270e-001

2.26576777059159e+004,-2.19672170736932e+001,-8.86572748290962e-001

2.29739670999406e+004,-2.19672315686649e+001,-8.98946854116115e-001

2.32946717293690e+004,-2.19672464705025e+001,-9.11493611759461e-001

2.36198532285905e+004,-2.19672617906081e+001,-9.24215427784953e-001

2.39495740923785e+004,-2.19672775407020e+001,-9.37114742201121e-001

2.42838976879009e+004,-2.19672937328320e+001,-9.50194028921176e-001

2.46228882668982e+004,-2.19673103793824e+001,-9.63455796228400e-001

2.49666109780322e+004,-2.19673274930829e+001,-9.76902587251277e-001

2.53151318794055e+004,-2.19673450870188e+001,-9.90536980441385e-001

2.56685179512580e+004,-2.19673631746404e+001,-1.00436159005839e+000

2.60268371088386e+004,-2.19673817697733e+001,-1.01837906666416e+000

2.63901582154578e+004,-2.19674008866288e+001,-1.03259209762008e+000

2.67585510957221e+004,-2.19674205398142e+001,-1.04700340759309e+000

2.71320865489533e+004,-2.19674407443444e+001,-1.06161575906609e+000

2.75108363627948e+004,-2.19674615156528e+001,-1.07643195285890e+000

2.78948733270080e+004,-2.19674828696026e+001,-1.09145482865253e+000

2.82842712474618e+004,-2.19675048224993e+001,-1.10668726552159e+000

2.86791049603164e+004,-2.19675273911025e+001,-1.12213218247494e+000

2.90794503464061e+004,-2.19675505926382e+001,-1.13779253900224e+000

2.94853843458219e+004,-2.19675744448123e+001,-1.15367133562677e+000

2.98969849726987e+004,-2.19675989658233e+001,-1.16977161446750e+000

3.03143313302078e+004,-2.19676241743762e+001,-1.18609645980761e+000

3.07375036257601e+004,-2.19676500896959e+001,-1.20264899867030e+000

3.11665831864199e+004,-2.19676767315423e+001,-1.21943240140222e+000

3.16016524745350e+004,-2.19677041202246e+001,-1.23644988226402e+000

3.20427951035848e+004,-2.19677322766159e+001,-1.25370470003111e+000

3.24900958542493e+004,-2.19677612221696e+001,-1.27120015859752e+000

3.29436406907028e+004,-2.19677909789349e+001,-1.28893960759186e+000

3.34035167771346e+004,-2.19678215695729e+001,-1.30692644299981e+000

3.38698124945009e+004,-2.19678530173738e+001,-1.32516410779321e+000

3.43426174575100e+004,-2.19678853462736e+001,-1.34365609257050e+000

3.48220225318448e+004,-2.19679185808724e+001,-1.36240593620189e+000

3.53081198516260e+004,-2.19679527464522e+001,-1.38141722648383e+000

3.58010028371187e+004,-2.19679878689955e+001,-1.40069360080433e+000

3.63007662126863e+004,-2.19680239752044e+001,-1.42023874681395e+000

3.68075060249948e+004,-2.19680610925204e+001,-1.44005640310513e+000

3.73213196614721e+004,-2.19680992491446e+001,-1.46015035990154e+000

3.78423058690237e+004,-2.19681384740581e+001,-1.48052445975724e+000

3.83705647730104e+004,-2.19681787970433e+001,-1.50118259826165e+000

3.89061978964912e+004,-2.19682202487058e+001,-1.52212872475518e+000

3.94493081797342e+004,-2.19682628604968e+001,-1.54336684305359e+000

3.99999999999998e+004,-2.19683066647357e+001,-1.56490101218220e+000

4.05583791916010e+004,-2.19683516946341e+001,-1.58673534711746e+000

4.11245530662425e+004,-2.19683979843195e+001,-1.60887401953920e+000

4.16986304336447e+004,-2.19684455688604e+001,-1.63132125859103e+000

4.22807216224550e+004,-2.19684944842915e+001,-1.65408135165249e+000

4.28709385014515e+004,-2.19685447676398e+001,-1.67715864511735e+000

4.34693945010421e+004,-2.19685964569516e+001,-1.70055754518404e+000

4.40762046350642e+004,-2.19686495913194e+001,-1.72428251865465e+000

4.46914855228886e+004,-2.19687042109106e+001,-1.74833809374338e+000

4.53153554118317e+004,-2.19687603569960e+001,-1.77272886089645e+000

4.59479341998812e+004,-2.19688180719797e+001,-1.79745947361956e+000

4.65893434587380e+004,-2.19688773994289e+001,-1.82253464931752e+000

4.72397064571810e+004,-2.19689383841056e+001,-1.84795917014205e+000

4.78991481847569e+004,-2.19690010719983e+001,-1.87373788385052e+000

4.85677953758016e+004,-2.19690655103543e+001,-1.89987570467678e+000

4.92457765337964e+004,-2.19691317477141e+001,-1.92637761420756e+000

4.99332219560642e+004,-2.19691998339448e+001,-1.95324866227455e+000

5.06302637588109e+004,-2.19692698202761e+001,-1.98049396785357e+000

5.13370359025159e+004,-2.19693417593360e+001,-2.00811871997464e+000

5.20536742176771e+004,-2.19694157051878e+001,-2.03612817864454e+000

5.27803164309155e+004,-2.19694917133682e+001,-2.06452767577680e+000

5.35171021914442e+004,-2.19695698409260e+001,-2.09332261613654e+000

5.42641730979066e+004,-2.19696501464620e+001,-2.12251847829168e+000

5.50216727255895e+004,-2.19697326901697e+001,-2.15212081557801e+000

5.57897466540159e+004,-2.19698175338770e+001,-2.18213525707473e+000

5.65685424949235e+004,-2.19699047410892e+001,-2.21256750858963e+000

5.73582099206328e+004,-2.19699943770326e+001,-2.24342335365658e+000

5.81589006928121e+004,-2.19700865086994e+001,-2.27470865454411e+000

5.89707686916437e+004,-2.19701812048936e+001,-2.30642935327394e+000

5.97939699453972e+004,-2.19702785362782e+001,-2.33859147265217e+000

6.06286626604156e+004,-2.19703785754233e+001,-2.37120111731064e+000

6.14750072515201e+004,-2.19704813968549e+001,-2.40426447476054e+000

6.23331663728396e+004,-2.19705870771061e+001,-2.43778781645619e+000

6.32033049490698e+004,-2.19706956947680e+001,-2.47177749887167e+000

6.40855902071694e+004,-2.19708073305429e+001,-2.50623996458756e+000

6.49801917084985e+004,-2.19709220672982e+001,-2.54118174338925e+000

6.58872813814055e+004,-2.19710399901216e+001,-2.57660945337891e+000

6.68070335542691e+004,-2.19711611863776e+001,-2.61252980209506e+000

6.77396249890018e+004,-2.19712857457652e+001,-2.64894958764801e+000

6.86852349150199e+004,-2.19714137603773e+001,-2.68587569986390e+000

6.96440450636895e+004,-2.19715453247606e+001,-2.72331512144148e+000

7.06162397032520e+004,-2.19716805359777e+001,-2.76127492912101e+000

7.16020056742374e+004,-2.19718194936699e+001,-2.79976229486350e+000

7.26015324253724e+004,-2.19719623001218e+001,-2.83878448704359e+000

7.36150120499896e+004,-2.19721090603274e+001,-2.87834887165210e+000

7.46426393229441e+004,-2.19722598820568e+001,-2.91846291351221e+000

7.56846117380472e+004,-2.19724148759254e+001,-2.95913417750637e+000

7.67411295460207e+004,-2.19725741554636e+001,-3.00037032981509e+000

7.78123957929823e+004,-2.19727378371888e+001,-3.04217913916758e+000

7.88986163594682e+004,-2.19729060406784e+001,-3.08456847810449e+000

7.99999999999995e+004,-2.19730788886443e+001,-3.12754632425260e+000

8.11167583832018e+004,-2.19732565070090e+001,-3.17112076161070e+000

8.22491061324848e+004,-2.19734390249834e+001,-3.21529998184751e+000

8.33972608672892e+004,-2.19736265751458e+001,-3.26009228561241e+000

8.45614432449099e+004,-2.19738192935229e+001,-3.30550608385616e+000

8.57418770029029e+004,-2.19740173196719e+001,-3.35154989916597e+000

8.69387890020841e+004,-2.19742207967646e+001,-3.39823236710938e+000

8.81524092701283e+004,-2.19744298716727e+001,-3.44556223759322e+000

8.93829710457770e+004,-2.19746446950554e+001,-3.49354837623172e+000

9.06307108236633e+004,-2.19748654214474e+001,-3.54219976572923e+000

9.18958683997622e+004,-2.19750922093500e+001,-3.59152550727103e+000

9.31786869174758e+004,-2.19753252213228e+001,-3.64153482193086e+000

9.44794129143618e+004,-2.19755646240772e+001,-3.69223705208591e+000

9.57982963695136e+004,-2.19758105885721e+001,-3.74364166284680e+000

9.71355907516031e+004,-2.19760632901105e+001,-3.79575824349817e+000

9.84915530675926e+004,-2.19763229084383e+001,-3.84859650895135e+000

9.98664439121282e+004,-2.19765896278446e+001,-3.90216630120930e+000

1.01260527517622e+005,-2.19768636372634e+001,-3.95647759084348e+000

1.02674071805032e+005,-2.19771451303776e+001,-4.01154047848298e+000

1.04107348435354e+005,-2.19774343057237e+001,-4.06736519631587e+000

1.05560632861831e+005,-2.19777313667990e+001,-4.12396210960209e+000

1.07034204382888e+005,-2.19780365221704e+001,-4.18134171819952e+000

1.08528346195813e+005,-2.19783499855839e+001,-4.23951465810173e+000

1.10043345451179e+005,-2.19786719760771e+001,-4.29849170298877e+000

1.11579493308032e+005,-2.19790027180922e+001,-4.35828376579016e+000

1.13137084989847e+005,-2.19793424415912e+001,-4.41890190026012e+000

1.14716419841265e+005,-2.19796913821722e+001,-4.48035730256737e+000

1.16317801385624e+005,-2.19800497811886e+001,-4.54266131289478e+000

1.17941537383287e+005,-2.19804178858676e+001,-4.60582541705613e+000

1.19587939890794e+005,-2.19807959494325e+001,-4.66986124812233e+000

1.21257325320831e+005,-2.19811842312252e+001,-4.73478058806466e+000

1.22950014503040e+005,-2.19815829968307e+001,-4.80059536940851e+000

1.24666332745679e+005,-2.19819925182032e+001,-4.86731767690393e+000

1.26406609898139e+005,-2.19824130737931e+001,-4.93495974920883e+000

1.28171180414339e+005,-2.19828449486762e+001,-5.00353398058787e+000

1.29960383416997e+005,-2.19832884346840e+001,-5.07305292262526e+000

1.31774562762811e+005,-2.19837438305353e+001,-5.14352928595399e+000

1.33614067108538e+005,-2.19842114419692e+001,-5.21497594200043e+000

1.35479249978003e+005,-2.19846915818801e+001,-5.28740592474477e+000

1.37370469830040e+005,-2.19851845704531e+001,-5.36083243249905e+000

1.39288090127379e+005,-2.19856907353013e+001,-5.43526882970158e+000

1.41232479406504e+005,-2.19862104116047e+001,-5.51072864873002e+000

1.43204011348474e+005,-2.19867439422494e+001,-5.58722559173192e+000

1.45203064850745e+005,-2.19872916779693e+001,-5.66477353247514e+000

1.47230024099979e+005,-2.19878539774883e+001,-5.74338651821799e+000

1.49285278645888e+005,-2.19884312076637e+001,-5.82307877159932e+000

1.51369223476094e+005,-2.19890237436316e+001,-5.90386469255091e+000

1.53482259092041e+005,-2.19896319689528e+001,-5.98575886023049e+000

1.55624791585964e+005,-2.19902562757604e+001,-6.06877603498029e+000

1.57797232718936e+005,-2.19908970649080e+001,-6.15293116030738e+000

1.59999999999999e+005,-2.19915547461206e+001,-6.23823936489011e+000

1.62233516766403e+005,-2.19922297381450e+001,-6.32471596461061e+000

1.64498212264969e+005,-2.19929224689029e+001,-6.41237646461503e+000

1.66794521734578e+005,-2.19936333756445e+001,-6.50123656140162e+000

1.69122886489819e+005,-2.19943629051042e+001,-6.59131214493877e+000

1.71483754005805e+005,-2.19951115136572e+001,-6.68261930081421e+000

1.73877578004168e+005,-2.19958796674776e+001,-6.77517431241713e+000

1.76304818540256e+005,-2.19966678426987e+001,-6.86899366315304e+000

1.78765942091554e+005,-2.19974765255744e+001,-6.96409403869537e+000

1.81261421647326e+005,-2.19983062126421e+001,-7.06049232927292e+000

1.83791736799524e+005,-2.19991574108888e+001,-7.15820563199644e+000

1.86357373834951e+005,-2.20000306379175e+001,-7.25725125322519e+000

1.88958825828723e+005,-2.20009264221171e+001,-7.35764671097549e+000

1.91596592739027e+005,-2.20018453028338e+001,-7.45940973737275e+000

1.94271181503206e+005,-2.20027878305459e+001,-7.56255828114880e+000

1.96983106135185e+005,-2.20037545670401e+001,-7.66711051018680e+000

1.99732887824256e+005,-2.20047460855922e+001,-7.77308481411504e+000

2.02521055035243e+005,-2.20057629711497e+001,-7.88049980695175e+000

2.05348143610063e+005,-2.20068058205189e+001,-7.98937432980209e+000

2.08214696870707e+005,-2.20078752425549e+001,-8.09972745361168e+000

2.11121265723661e+005,-2.20089718583567e+001,-8.21157848197434e+000

2.14068408765776e+005,-2.20100963014661e+001,-8.32494695400018e+000

2.17056692391625e+005,-2.20112492180715e+001,-8.43985264724355e+000

2.20086690902357e+005,-2.20124312672172e+001,-8.55631558069256e+000

2.23158986616063e+005,-2.20136431210187e+001,-8.67435601782400e+000

2.26274169979693e+005,-2.20148854648834e+001,-8.79399446972238e+000

2.29432839682530e+005,-2.20161589977389e+001,-8.91525169826784e+000

2.32635602771247e+005,-2.20174644322681e+001,-9.03814871939162e+000

2.35883074766574e+005,-2.20188024951525e+001,-9.16270680640347e+000

2.39175879781588e+005,-2.20201739273233e+001,-9.28894749338962e+000

2.42514650641661e+005,-2.20215794842225e+001,-9.41689257868422e+000

2.45900029006080e+005,-2.20230199360736e+001,-9.54656412841486e+000

2.49332665491357e+005,-2.20244960681622e+001,-9.67798448012299e+000

2.52813219796278e+005,-2.20260086811288e+001,-9.81117624645957e+000

2.56342360828676e+005,-2.20275585912731e+001,-9.94616231895736e+000

2.59920766833993e+005,-2.20291466308720e+001,-1.00829658718789e+001

2.63549125525621e+005,-2.20307736485101e+001,-1.02216103661409e+001

2.67228134217075e+005,-2.20324405094260e+001,-1.03621195533146e+001

2.70958499956006e+005,-2.20341480958742e+001,-1.05045174797015e+001

2.74740939660078e+005,-2.20358973075029e+001,-1.06488284904821e+001

2.78576180254757e+005,-2.20376890617498e+001,-1.07950772339398e+001

2.82464958813007e+005,-2.20395242942566e+001,-1.09432886657543e+001

2.86408022696948e+005,-2.20414039593028e+001,-1.10934880533638e+001

2.90406129701488e+005,-2.20433290302600e+001,-1.12457009803962e+001

2.94460048199957e+005,-2.20453005000689e+001,-1.13999533511607e+001

2.98570557291775e+005,-2.20473193817376e+001,-1.15562713952023e+001

3.02738446952187e+005,-2.20493867088651e+001,-1.17146816719111e+001

3.06964518184081e+005,-2.20515035361889e+001,-1.18752110751844e+001

3.11249583171928e+005,-2.20536709401595e+001,-1.20378868381350e+001

3.15594465437872e+005,-2.20558900195409e+001,-1.22027365378413e+001

3.19999999999997e+005,-2.20581618960406e+001,-1.23697881001340e+001

3.24467033532806e+005,-2.20604877149681e+001,-1.25390698044097e+001

3.28996424529938e+005,-2.20628686459242e+001,-1.27106102884689e+001

3.33589043469155e+005,-2.20653058835208e+001,-1.28844385533659e+001

3.38245772979638e+005,-2.20678006481345e+001,-1.30605839682667e+001

3.42967508011610e+005,-2.20703541866921e+001,-1.32390762753027e+001

3.47755156008335e+005,-2.20729677734911e+001,-1.34199455944133e+001

3.52609637080511e+005,-2.20756427110551e+001,-1.36032224281647e+001

3.57531884183106e+005,-2.20783803310247e+001,-1.37889376665388e+001

3.62522843294651e+005,-2.20811819950856e+001,-1.39771225916757e+001

3.67583473599047e+005,-2.20840490959333e+001,-1.41678088825617e+001

3.72714747669902e+005,-2.20869830582758e+001,-1.43610286196521e+001

3.77917651657445e+005,-2.20899853398753e+001,-1.45568142894100e+001

3.83193185478053e+005,-2.20930574326273e+001,-1.47551987887567e+001

3.88542363006410e+005,-2.20962008636799e+001,-1.49562154294119e+001

3.93966212270369e+005,-2.20994171965921e+001,-1.51598979421162e+001

3.99465775648511e+005,-2.21027080325309e+001,-1.53662804807178e+001

4.05042110070485e+005,-2.21060750115087e+001,-1.55753976261103e+001

4.10696287220124e+005,-2.21095198136591e+001,-1.57872843900074e+001

4.16429393741414e+005,-2.21130441605526e+001,-1.60019762185372e+001

4.22242531447321e+005,-2.21166498165500e+001,-1.62195089956438e+001

4.28136817531551e+005,-2.21203385901951e+001,-1.64399190462778e+001

4.34113384783250e+005,-2.21241123356443e+001,-1.66632431393617e+001

4.40173381804713e+005,-2.21279729541331e+001,-1.68895184905154e+001

4.46317973232124e+005,-2.21319223954792e+001,-1.71187827645234e+001

4.52548339959385e+005,-2.21359626596197e+001,-1.73510740775316e+001

4.58865679365059e+005,-2.21400957981833e+001,-1.75864309989548e+001

4.65271205542494e+005,-2.21443239160942e+001,-1.78248925530824e+001

4.71766149533147e+005,-2.21486491732076e+001,-1.80664982203651e+001

4.78351759563174e+005,-2.21530737859755e+001,-1.83112879383690e+001

4.85029301283321e+005,-2.21576000291394e+001,-1.85593021023820e+001

4.91800058012158e+005,-2.21622302374505e+001,-1.88105815656573e+001

4.98665330982714e+005,-2.21669668074138e+001,-1.90651676392825e+001

5.05626439592555e+005,-2.21718121990545e+001,-1.93231020916571e+001

5.12684721657352e+005,-2.21767689377052e+001,-1.95844271475705e+001

5.19841533667984e+005,-2.21818396158109e+001,-1.98491854868618e+001

5.27098251051240e+005,-2.21870268947496e+001,-2.01174202426544e+001

5.34456268434150e+005,-2.21923335066668e+001,-2.03891749991524e+001

5.41916999912011e+005,-2.21977622563200e+001,-2.06644937889858e+001

