Freq.,VOut,OutRef

1.00000000000000e+004,-6.85078843513704e+000,-3.15793831924938e-002

1.01395947979003e+004,-6.85078981931256e+000,-3.20200394439444e-002

1.02811382665607e+004,-6.85079124237292e+000,-3.24668395814150e-002

1.04246576084112e+004,-6.85079270541097e+000,-3.29198690457879e-002

1.05701804056138e+004,-6.85079420954761e+000,-3.33792144742062e-002

1.07177346253629e+004,-6.85079575593706e+000,-3.38449636862404e-002

1.08673486252606e+004,-6.85079734576488e+000,-3.43172057201416e-002

1.10190511587661e+004,-6.85079898025076e+000,-3.47960308354667e-002

1.11728713807222e+004,-6.85080066064742e+000,-3.52815305435224e-002

1.13288388529580e+004,-6.85080238824365e+000,-3.57737976101244e-002

1.14869835499703e+004,-6.85080416436420e+000,-3.62729260798089e-002

1.16473358646846e+004,-6.85080599036979e+000,-3.67790112997615e-002

1.18099266142953e+004,-6.85080786766132e+000,-3.72921499152816e-002

1.19747870461893e+004,-6.85080979767673e+000,-3.78124399162211e-002

1.21419488439505e+004,-6.85081178189577e+000,-3.83399806296776e-002

1.23114441334492e+004,-6.85081382183859e+000,-3.88748727545327e-002

1.24833054890161e+004,-6.85081591906929e+000,-3.94172183649533e-002

1.26575659397028e+004,-6.85081807519453e+000,-3.99671209444435e-002

1.28342589756290e+004,-6.85082029186544e+000,-4.05246854003670e-002

1.30134185544193e+004,-6.85082257078092e+000,-4.10900180695834e-002

1.31950791077289e+004,-6.85082491368648e+000,-4.16632267530300e-002

1.33792755478611e+004,-6.85082732237694e+000,-4.22444207266416e-002

1.35660432744767e+004,-6.85082979869671e+000,-4.28337107674296e-002

1.37554181813974e+004,-6.85083234454174e+000,-4.34312091691729e-002

1.39474366635040e+004,-6.85083496186200e+000,-4.40370297566051e-002

1.41421356237309e+004,-6.85083765266101e+000,-4.46512879172208e-002

1.43395524801583e+004,-6.85084041899870e+000,-4.52741006133242e-002

1.45397251732031e+004,-6.85084326299247e+000,-4.59055864062707e-002

1.47426921729110e+004,-6.85084618681873e+000,-4.65458654767074e-002

1.49484924863494e+004,-6.85084919271512e+000,-4.71950596426519e-002

1.51571656651040e+004,-6.85085228298095e+000,-4.78532923891292e-002

1.53687518128801e+004,-6.85085545998127e+000,-4.85206888734206e-002

1.55832915932100e+004,-6.85085872614557e+000,-4.91973759680458e-002

1.58008262372675e+004,-6.85086208397254e+000,-4.98834822627733e-002

1.60213975517924e+004,-6.85086553602907e+000,-5.05791381061989e-002

1.62450479271247e+004,-6.85086908495492e+000,-5.12844756102962e-002

1.64718203453514e+004,-6.85087273346323e+000,-5.19996286823256e-002

1.67017583885674e+004,-6.85087648434278e+000,-5.27247330465597e-002

1.69349062472505e+004,-6.85088034046000e+000,-5.34599262683185e-002

1.71713087287550e+004,-6.85088430476156e+000,-5.42053477734452e-002

1.74110112659224e+004,-6.85088838027545e+000,-5.49611388805582e-002

1.76540599258131e+004,-6.85089257011528e+000,-5.57274428109383e-002

1.79005014185594e+004,-6.85089687748103e+000,-5.65044047226821e-002

1.81503831063432e+004,-6.85090130566069e+000,-5.72921717402348e-002

1.84037530124975e+004,-6.85090585803551e+000,-5.80908929613217e-002

1.86606598307361e+004,-6.85091053807946e+000,-5.89007195000535e-002

1.89211529345119e+004,-6.85091534936483e+000,-5.97218044939035e-002

1.91852823865052e+004,-6.85092029556183e+000,-6.05543031482226e-002

1.94530989482457e+004,-6.85092538044262e+000,-6.13983727527794e-002

1.97246540898671e+004,-6.85093060788652e+000,-6.22541726922013e-002

1.99999999999999e+004,-6.85093598187802e+000,-6.31218645036374e-002

2.02791895958005e+004,-6.85094150651338e+000,-6.40016118788016e-002

2.05622765331213e+004,-6.85094718600334e+000,-6.48935806922488e-002

2.08493152168224e+004,-6.85095302467499e+000,-6.57979390365665e-002

2.11403608112276e+004,-6.85095902697530e+000,-6.67148572463909e-002

2.14354692507258e+004,-6.85096519747532e+000,-6.76445079190228e-002

2.17346972505211e+004,-6.85097154087254e+000,-6.85870659486353e-002

2.20381023175322e+004,-6.85097806199477e+000,-6.95427085508664e-002

2.23457427614443e+004,-6.85098476580364e+000,-7.05116152902338e-002

2.26576777059159e+004,-6.85099165739853e+000,-7.14939681061895e-002

2.29739670999406e+004,-6.85099874202019e+000,-7.24899513405924e-002

2.32946717293690e+004,-6.85100602505349e+000,-7.34997517748885e-002

2.36198532285905e+004,-6.85101351203388e+000,-7.45235586397604e-002

2.39495740923785e+004,-6.85102120864907e+000,-7.55615636598117e-002

2.42838976879009e+004,-6.85102912074392e+000,-7.66139610769229e-002

2.46228882668982e+004,-6.85103725432511e+000,-7.76809476762890e-002

2.49666109780322e+004,-6.85104561556574e+000,-7.87627228130319e-002

2.53151318794055e+004,-6.85105421080871e+000,-7.98594884482800e-002

2.56685179512580e+004,-6.85106304657210e+000,-8.09714491737538e-002

2.60268371088386e+004,-6.85107212955472e+000,-8.20988122342922e-002

2.63901582154578e+004,-6.85108146663840e+000,-8.32417875739491e-002

2.67585510957221e+004,-6.85109106489601e+000,-8.44005878451139e-002

2.71320865489533e+004,-6.85110093159444e+000,-8.55754284512748e-002

2.75108363627948e+004,-6.85111107420150e+000,-8.67665275662207e-002

2.78948733270080e+004,-6.85112150038946e+000,-8.79741061736893e-002

2.82842712474618e+004,-6.85113221804235e+000,-8.91983880856094e-002

2.86791049603164e+004,-6.85114323525971e+000,-9.04395999838806e-002

2.90794503464061e+004,-6.85115456036454e+000,-9.16979714350538e-002

2.94853843458219e+004,-6.85116620190780e+000,-9.29737349286664e-002

2.98969849726987e+004,-6.85117816867477e+000,-9.42671259048326e-002

3.03143313302078e+004,-6.85119046969172e+000,-9.55783827800856e-002

3.07375036257601e+004,-6.85120311423175e+000,-9.69077469804031e-002

3.11665831864199e+004,-6.85121611182228e+000,-9.82554629630871e-002

3.16016524745350e+004,-6.85122947225046e+000,-9.96217782546913e-002

3.20427951035848e+004,-6.85124320557088e+000,-1.01006943473250e-001

3.24900958542493e+004,-6.85125732211273e+000,-1.02411212356664e-001

3.29436406907028e+004,-6.85127183248711e+000,-1.03834841789745e-001

3.34035167771346e+004,-6.85128674759412e+000,-1.05278091834007e-001

3.38698124945009e+004,-6.85130207862993e+000,-1.06741225758631e-001

3.43426174575100e+004,-6.85131783709602e+000,-1.08224510058472e-001

3.48220225318448e+004,-6.85133403480600e+000,-1.09728214487161e-001

3.53081198516260e+004,-6.85135068389434e+000,-1.11252612081881e-001

3.58010028371187e+004,-6.85136779682432e+000,-1.12797979189737e-001

3.63007662126863e+004,-6.85138538639647e+000,-1.14364595495490e-001

3.68075060249948e+004,-6.85140346575896e+000,-1.15952744035912e-001

3.73213196614721e+004,-6.85142204841377e+000,-1.17562711242213e-001

3.78423058690237e+004,-6.85144114822876e+000,-1.19194786945020e-001

3.83705647730104e+004,-6.85146077944448e+000,-1.20849264415535e-001

3.89061978964912e+004,-6.85148095668618e+000,-1.22526440371440e-001

3.94493081797342e+004,-6.85150169497195e+000,-1.24226615010663e-001

3.99999999999998e+004,-6.85152300972357e+000,-1.25950092027638e-001

4.05583791916010e+004,-6.85154491677653e+000,-1.27697178634624e-001

4.11245530662425e+004,-6.85156743239044e+000,-1.29468185583114e-001

4.16986304336447e+004,-6.85159057326008e+000,-1.31263427180271e-001

4.22807216224550e+004,-6.85161435652670e+000,-1.33083221303929e-001

4.28709385014515e+004,-6.85163879978842e+000,-1.34927889426005e-001

4.34693945010421e+004,-6.85166392111217e+000,-1.36797756624348e-001

4.40762046350642e+004,-6.85168973904578e+000,-1.38693151594837e-001

4.46914855228886e+004,-6.85171627262927e+000,-1.40614406669657e-001

4.53153554118317e+004,-6.85174354140743e+000,-1.42561857826616e-001

4.59479341998812e+004,-6.85177156544228e+000,-1.44535844699722e-001

4.65893434587380e+004,-6.85180036532620e+000,-1.46536710586819e-001

4.72397064571810e+004,-6.85182996219422e+000,-1.48564802460687e-001

4.78991481847569e+004,-6.85186037773739e+000,-1.50620470975704e-001

4.85677953758016e+004,-6.85189163421757e+000,-1.52704070463112e-001

4.92457765337964e+004,-6.85192375447895e+000,-1.54815958948847e-001

4.99332219560642e+004,-6.85195676196440e+000,-1.56956498139889e-001

5.06302637588109e+004,-6.85199068072826e+000,-1.59126053432467e-001

5.13370359025159e+004,-6.85202553545189e+000,-1.61324993903322e-001

5.20536742176771e+004,-6.85206135145786e+000,-1.63553692308590e-001

5.27803164309155e+004,-6.85209815472575e+000,-1.65812525071554e-001

5.35171021914442e+004,-6.85213597190648e+000,-1.68101872280664e-001

5.42641730979066e+004,-6.85217483033965e+000,-1.70422117665912e-001

5.50216727255895e+004,-6.85221475806787e+000,-1.72773648594025e-001

5.57897466540159e+004,-6.85225578385393e+000,-1.75156856045042e-001

5.65685424949235e+004,-6.85229793719691e+000,-1.77572134594570e-001

5.73582099206328e+004,-6.85234124834931e+000,-1.80019882386838e-001

5.81589006928121e+004,-6.85238574833348e+000,-1.82500501113254e-001

5.89707686916437e+004,-6.85243146895910e+000,-1.85014395979742e-001

5.97939699453972e+004,-6.85247844284102e+000,-1.87561975673006e-001

6.06286626604156e+004,-6.85252670341665e+000,-1.90143652325391e-001

6.14750072515201e+004,-6.85257628496374e+000,-1.92759841476496e-001

6.23331663728396e+004,-6.85262722261895e+000,-1.95410962026487e-001

6.32033049490698e+004,-6.85267955239708e+000,-1.98097436184078e-001

6.40855902071694e+004,-6.85273331120723e+000,-2.00819689430105e-001

6.49801917084985e+004,-6.85278853687479e+000,-2.03578150441319e-001

6.58872813814055e+004,-6.85284526815857e+000,-2.06373251042447e-001

6.68070335542691e+004,-6.85290354476997e+000,-2.09205426141432e-001

6.77396249890018e+004,-6.85296340739356e+000,-2.12075113651997e-001

6.86852349150199e+004,-6.85302489770586e+000,-2.14982754424111e-001

6.96440450636895e+004,-6.85308805839531e+000,-2.17928792162763e-001

7.06162397032520e+004,-6.85315293318203e+000,-2.20913673342322e-001

7.16020056742374e+004,-6.85321956683741e+000,-2.23937847119689e-001

7.26015324253724e+004,-6.85328800520533e+000,-2.27001765229004e-001

7.36150120499896e+004,-6.85335829522108e+000,-2.30105881888140e-001

7.46426393229441e+004,-6.85343048493206e+000,-2.33250653686569e-001

7.56846117380472e+004,-6.85350462351800e+000,-2.36436539471024e-001

7.67411295460207e+004,-6.85358076131128e+000,-2.39664000223208e-001

7.78123957929823e+004,-6.85365894981656e+000,-2.42933498935623e-001

7.88986163594682e+004,-6.85373924173196e+000,-2.46245500471139e-001

7.99999999999995e+004,-6.85382169096806e+000,-2.49600471426234e-001

8.11167583832018e+004,-6.85390635266850e+000,-2.52998879978985e-001

8.22491061324848e+004,-6.85399328322907e+000,-2.56441195736151e-001

8.33972608672892e+004,-6.85408254031869e+000,-2.59927889560180e-001

8.45614432449099e+004,-6.85417418289699e+000,-2.63459433407992e-001

8.57418770029029e+004,-6.85426827123473e+000,-2.67036300141669e-001

8.69387890020841e+004,-6.85436486693221e+000,-2.70658963342923e-001

8.81524092701283e+004,-6.85446403293730e+000,-2.74327897116275e-001

8.93829710457770e+004,-6.85456583356426e+000,-2.78043575878819e-001

9.06307108236633e+004,-6.85467033451070e+000,-2.81806474147773e-001

9.18958683997622e+004,-6.85477760287434e+000,-2.85617066317112e-001

9.31786869174758e+004,-6.85488770717058e+000,-2.89475826417468e-001

9.44794129143618e+004,-6.85500071734648e+000,-2.93383227882364e-001

9.57982963695136e+004,-6.85511670479858e+000,-2.97339743278513e-001

9.71355907516031e+004,-6.85523574238388e+000,-3.01345844062049e-001

9.84915530675926e+004,-6.85535790443650e+000,-3.05402000285828e-001

9.98664439121282e+004,-6.85548326677781e+000,-3.09508680330087e-001

1.01260527517622e+005,-6.85561190672961e+000,-3.13666350596978e-001

1.02674071805032e+005,-6.85574390312374e+000,-3.17875475211365e-001

1.04107348435354e+005,-6.85587933631186e+000,-3.22136515700974e-001

1.05560632861831e+005,-6.85601828817318e+000,-3.26449930672062e-001

1.07034204382888e+005,-6.85616084212115e+000,-3.30816175471413e-001

1.08528346195813e+005,-6.85630708310934e+000,-3.35235701832041e-001

1.10043345451179e+005,-6.85645709763427e+000,-3.39708957519998e-001

1.11579493308032e+005,-6.85661097373799e+000,-3.44236385958700e-001

1.13137084989847e+005,-6.85676880100863e+000,-3.48818425844372e-001

1.14716419841265e+005,-6.85693067057813e+000,-3.53455510756647e-001

1.16317801385624e+005,-6.85709667511900e+000,-3.58148068751902e-001

1.17941537383287e+005,-6.85726690883884e+000,-3.62896521944280e-001

1.19587939890794e+005,-6.85744146747193e+000,-3.67701286082365e-001

1.21257325320831e+005,-6.85762044826936e+000,-3.72562770108460e-001

1.22950014503040e+005,-6.85780394998611e+000,-3.77481375709566e-001

1.24666332745679e+005,-6.85799207286503e+000,-3.82457496862075e-001

1.26406609898139e+005,-6.85818491861985e+000,-3.87491519354281e-001

1.28171180414339e+005,-6.85838259041228e+000,-3.92583820317112e-001

1.29960383416997e+005,-6.85858519282920e+000,-3.97734767726668e-001

1.31774562762811e+005,-6.85879283185475e+000,-4.02944719907729e-001

1.33614067108538e+005,-6.85900561483875e+000,-4.08214025031497e-001

1.35479249978003e+005,-6.85922365046343e+000,-4.13543020592582e-001

1.37370469830040e+005,-6.85944704870459e+000,-4.18932032890757e-001

1.39288090127379e+005,-6.85967592078945e+000,-4.24381376501142e-001

1.41232479406504e+005,-6.85991037915121e+000,-4.29891353734270e-001

1.43204011348474e+005,-6.86015053737838e+000,-4.35462254096927e-001

1.45203064850745e+005,-6.86039651016079e+000,-4.41094353740656e-001

1.47230024099979e+005,-6.86064841322950e+000,-4.46787914917401e-001

1.49285278645888e+005,-6.86090636329391e+000,-4.52543185419812e-001

1.51369223476094e+005,-6.86117047797269e+000,-4.58360398027695e-001

1.53482259092041e+005,-6.86144087572020e+000,-4.64239769950622e-001

1.55624791585964e+005,-6.86171767574740e+000,-4.70181502274035e-001

1.57797232718936e+005,-6.86200099793793e+000,-4.76185779401525e-001

1.59999999999999e+005,-6.86229096275806e+000,-4.82252768507593e-001

1.62233516766403e+005,-6.86258769116180e+000,-4.88382618986195e-001

1.64498212264969e+005,-6.86289130448894e+000,-4.94575461917217e-001

1.66794521734578e+005,-6.86320192435825e+000,-5.00831409530811e-001

1.69122886489819e+005,-6.86351967255464e+000,-5.07150554684300e-001

1.71483754005805e+005,-6.86384467090871e+000,-5.13532970356664e-001

1.73877578004168e+005,-6.86417704117174e+000,-5.19978709147574e-001

1.76304818540256e+005,-6.86451690488320e+000,-5.26487802798673e-001

1.78765942091554e+005,-6.86486438323185e+000,-5.33060261730829e-001

1.81261421647326e+005,-6.86521959691008e+000,-5.39696074604572e-001

1.83791736799524e+005,-6.86558266596254e+000,-5.46395207896034e-001

1.86357373834951e+005,-6.86595370962665e+000,-5.53157605506506e-001

1.88958825828723e+005,-6.86633284616687e+000,-5.59983188397962e-001

1.91596592739027e+005,-6.86672019270263e+000,-5.66871854254274e-001

1.94271181503206e+005,-6.86711586502896e+000,-5.73823477182002e-001

1.96983106135185e+005,-6.86751997743030e+000,-5.80837907445040e-001

1.99732887824256e+005,-6.86793264248785e+000,-5.87914971238464e-001

2.02521055035243e+005,-6.86835397088038e+000,-5.95054470503387e-001

2.05348143610063e+005,-6.86878407117743e+000,-6.02256182794622e-001

2.08214696870707e+005,-6.86922304962800e+000,-6.09519861183843e-001

2.11121265723661e+005,-6.86967100994069e+000,-6.16845234230688e-001

2.14068408765776e+005,-6.87012805305991e+000,-6.24232005993032e-001

2.17056692391625e+005,-6.87059427693427e+000,-6.31679856111034e-001

2.20086690902357e+005,-6.87106977628075e+000,-6.39188439940327e-001

2.23158986616063e+005,-6.87155464234262e+000,-6.46757388760812e-001

2.26274169979693e+005,-6.87204896264284e+000,-6.54386310045765e-001

2.29432839682530e+005,-6.87255282073273e+000,-6.62074787807635e-001

2.32635602771247e+005,-6.87306629593575e+000,-6.69822383020208e-001

2.35883074766574e+005,-6.87358946308844e+000,-6.77628634113661e-001

2.39175879781588e+005,-6.87412239227704e+000,-6.85493057557727e-001

2.42514650641661e+005,-6.87466514857162e+000,-6.93415148526188e-001

2.45900029006080e+005,-6.87521779175795e+000,-7.01394381650090e-001

2.49332665491357e+005,-6.87578037606762e+000,-7.09430211860326e-001

2.52813219796278e+005,-6.87635294990710e+000,-7.17522075324533e-001

2.56342360828676e+005,-6.87693555558598e+000,-7.25669390482795e-001

2.59920766833993e+005,-6.87752822904609e+000,-7.33871559175537e-001

2.63549125525621e+005,-6.87813099959143e+000,-7.42127967876478e-001

2.67228134217075e+005,-6.87874388961991e+000,-7.50437989025710e-001

2.70958499956006e+005,-6.87936691435752e+000,-7.58800982469707e-001

2.74740939660078e+005,-6.88000008159691e+000,-7.67216297000144e-001

2.78576180254757e+005,-6.88064339143955e+000,-7.75683272004334e-001

2.82464958813007e+005,-6.88129683604317e+000,-7.84201239223746e-001

2.86408022696948e+005,-6.88196039937659e+000,-7.92769524612503e-001

2.90406129701488e+005,-6.88263405698081e+000,-8.01387450309945e-001

2.94460048199957e+005,-6.88331777573875e+000,-8.10054336717125e-001

2.98570557291775e+005,-6.88401151365470e+000,-8.18769504677459e-001

3.02738446952187e+005,-6.88471521964358e+000,-8.27532277764275e-001

3.06964518184081e+005,-6.88542883333181e+000,-8.36341984671083e-001

3.11249583171928e+005,-6.88615228487112e+000,-8.45197961697432e-001

3.15594465437872e+005,-6.88688549476479e+000,-8.54099555341087e-001

3.19999999999997e+005,-6.88762837370989e+000,-8.63046124973086e-001

3.24467033532806e+005,-6.88838082245387e+000,-8.72037045613077e-001

3.28996424529938e+005,-6.88914273166828e+000,-8.81071710786364e-001

3.33589043469155e+005,-6.88991398184051e+000,-8.90149535460056e-001

3.38245772979638e+005,-6.89069444318298e+000,-8.99269959061610e-001

3.42967508011610e+005,-6.89148397556280e+000,-9.08432448561772e-001

3.47755156008335e+005,-6.89228242845165e+000,-9.17636501622496e-001

3.52609637080511e+005,-6.89308964089637e+000,-9.26881649803679e-001

3.57531884183106e+005,-6.89390544151182e+000,-9.36167461818505e-001

3.62522843294651e+005,-6.89472964849665e+000,-9.45493546829645e-001

3.67583473599047e+005,-6.89556206967207e+000,-9.54859557780347e-001

3.72714747669902e+005,-6.89640250254470e+000,-9.64265194748183e-001

3.77917651657445e+005,-6.89725073439357e+000,-9.73710208319937e-001

3.83193185478053e+005,-6.89810654238232e+000,-9.83194402967231e-001

3.88542363006410e+005,-6.89896969369610e+000,-9.92717640421785e-001

3.93966212270369e+005,-6.89983994570424e+000,-1.00227984303748e+000

3.99465775648511e+005,-6.90071704614782e+000,-1.01188099713002e+000

4.05042110070485e+005,-6.90160073335325e+000,-1.02152115628094e+000

4.10696287220124e+005,-6.90249073647068e+000,-1.03120044460084e+000

4.16429393741414e+005,-6.90338677573810e+000,-1.04091905993499e+000

4.22242531447321e+005,-6.90428856276966e+000,-1.05067727700628e+000

4.28136817531551e+005,-6.90519580086902e+000,-1.06047545048163e+000

4.34113384783250e+005,-6.90610818536587e+000,-1.07031401795444e+000

4.40173381804713e+005,-6.90702540397624e+000,-1.08019350282858e+000

4.46317973232124e+005,-6.90794713718467e+000,-1.09011451709904e+000

4.52548339959385e+005,-6.90887305864843e+000,-1.10007776401425e+000

4.58865679365059e+005,-6.90980283562172e+000,-1.11008404061699e+000

4.65271205542494e+005,-6.91073612939955e+000,-1.12013424014948e+000

4.71766149533147e+005,-6.91167259577985e+000,-1.13022935431607e+000

4.78351759563174e+005,-6.91261188554225e+000,-1.14037047539774e+000

4.85029301283321e+005,-6.91355364494270e+000,-1.15055879820654e+000

4.91800058012158e+005,-6.91449751622183e+000,-1.16079562187847e+000

4.98665330982714e+005,-6.91544313812564e+000,-1.17108235149591e+000

5.05626439592555e+005,-6.91639014643788e+000,-1.18142049953121e+000

5.12684721657352e+005,-6.91733817452037e+000,-1.19181168711564e+000

5.19841533667984e+005,-6.91828685386179e+000,-1.20225764511995e+000

5.27098251051240e+005,-6.91923581463174e+000,-1.21276021504957e+000

5.34456268434150e+005,-6.92018468623860e+000,-1.22332134975143e+000

5.41916999912011e+005,-6.92113309788954e+000,-1.23394311392951e+000

