Freq.,VOut,OutRef

1.00000000000000e+004,-2.65435304002441e+001,-3.91311885378528e-002

1.01395947979003e+004,-2.65435307767557e+001,-3.96773941217582e-002

1.02811382665607e+004,-2.65435311638445e+001,-4.02312225250510e-002

1.04246576084112e+004,-2.65435315618080e+001,-4.07927800733636e-002

1.05701804056138e+004,-2.65435319709518e+001,-4.13621745746806e-002

1.07177346253629e+004,-2.65435323915893e+001,-4.19395153416213e-002

1.08673486252606e+004,-2.65435328240428e+001,-4.25249132094127e-002

1.10190511587661e+004,-2.65435332686443e+001,-4.31184805526234e-002

1.11728713807222e+004,-2.65435337257349e+001,-4.37203313106395e-002

1.13288388529580e+004,-2.65435341956651e+001,-4.43305810118211e-002

1.14869835499703e+004,-2.65435346787949e+001,-4.49493467926932e-002

1.16473358646846e+004,-2.65435351754955e+001,-4.55767474146748e-002

1.18099266142953e+004,-2.65435356861466e+001,-4.62129033042029e-002

1.19747870461893e+004,-2.65435362111404e+001,-4.68579365505089e-002

1.21419488439505e+004,-2.65435367508793e+001,-4.75119709495685e-002

1.23114441334492e+004,-2.65435373057770e+001,-4.81751320165104e-002

1.24833054890161e+004,-2.65435378762584e+001,-4.88475470174705e-002

1.26575659397028e+004,-2.65435384627611e+001,-4.95293449835098e-002

1.28342589756290e+004,-2.65435390657346e+001,-5.02206567434095e-002

1.30134185544193e+004,-2.65435396856403e+001,-5.09216149493287e-002

1.31950791077289e+004,-2.65435403229542e+001,-5.16323540884520e-002

1.33792755478611e+004,-2.65435409781633e+001,-5.23530105321907e-002

1.35660432744767e+004,-2.65435416517703e+001,-5.30837225353628e-002

1.37554181813974e+004,-2.65435423442910e+001,-5.38246302817749e-002

1.39474366635040e+004,-2.65435430562557e+001,-5.45758759042851e-002

1.41421356237309e+004,-2.65435437882097e+001,-5.53376035080132e-002

1.43395524801583e+004,-2.65435445407132e+001,-5.61099592059109e-002

1.45397251732031e+004,-2.65435453143423e+001,-5.68930911390644e-002

1.47426921729110e+004,-2.65435461096898e+001,-5.76871495029333e-002

1.49484924863494e+004,-2.65435469273636e+001,-5.84922865897167e-002

1.51571656651040e+004,-2.65435477679901e+001,-5.93086567974825e-002

1.53687518128801e+004,-2.65435486322124e+001,-6.01364166739774e-002

1.55832915932100e+004,-2.65435495206918e+001,-6.09757249410361e-002

1.58008262372675e+004,-2.65435504341077e+001,-6.18267425250070e-002

1.60213975517924e+004,-2.65435513731592e+001,-6.26896325826153e-002

1.62450479271247e+004,-2.65435523385643e+001,-6.35645605405698e-002

1.64718203453514e+004,-2.65435533310610e+001,-6.44516941208331e-002

1.67017583885674e+004,-2.65435543514087e+001,-6.53512033689631e-002

1.69349062472505e+004,-2.65435554003870e+001,-6.62632606951872e-002

1.71713087287550e+004,-2.65435564787978e+001,-6.71880408987542e-002

1.74110112659224e+004,-2.65435575874652e+001,-6.81257212055068e-002

1.76540599258131e+004,-2.65435587272363e+001,-6.90764812972977e-002

1.79005014185594e+004,-2.65435598989821e+001,-7.00405033477076e-002

1.81503831063432e+004,-2.65435611035972e+001,-7.10179720585524e-002

1.84037530124975e+004,-2.65435623420017e+001,-7.20090746888969e-002

1.86606598307361e+004,-2.65435636151412e+001,-7.30140010937656e-002

1.89211529345119e+004,-2.65435649239877e+001,-7.40329437584594e-002

1.91852823865052e+004,-2.65435662695401e+001,-7.50660978340298e-002

1.94530989482457e+004,-2.65435676528253e+001,-7.61136611765964e-002

1.97246540898671e+004,-2.65435690748982e+001,-7.71758343813710e-002

1.99999999999999e+004,-2.65435705368442e+001,-7.82528208164523e-002

2.02791895958005e+004,-2.65435720397775e+001,-7.93448266717484e-002

2.05622765331213e+004,-2.65435735848443e+001,-8.04520609835613e-002

2.08493152168224e+004,-2.65435751732224e+001,-8.15747356822259e-002

2.11403608112276e+004,-2.65435768061220e+001,-8.27130656310556e-002

2.14354692507258e+004,-2.65435784847876e+001,-8.38672686594679e-002

2.17346972505211e+004,-2.65435802104971e+001,-8.50375656146139e-002

2.20381023175322e+004,-2.65435819845654e+001,-8.62241803870412e-002

2.23457427614443e+004,-2.65435838083424e+001,-8.74273399688967e-002

2.26576777059159e+004,-2.65435856832166e+001,-8.86472744800749e-002

2.29739670999406e+004,-2.65435876106142e+001,-8.98842172226124e-002

2.32946717293690e+004,-2.65435895920014e+001,-9.11384047154007e-002

2.36198532285905e+004,-2.65435916288846e+001,-9.24100767434784e-002

2.39495740923785e+004,-2.65435937228126e+001,-9.36994763968721e-002

2.42838976879009e+004,-2.65435958753764e+001,-9.50068501186487e-002

2.46228882668982e+004,-2.65435980882111e+001,-9.63324477505843e-002

2.49666109780322e+004,-2.65436003629974e+001,-9.76765225744039e-002

2.53151318794055e+004,-2.65436027014622e+001,-9.90393313613631e-002

2.56685179512580e+004,-2.65436051053803e+001,-1.00421134417825e-001

2.60268371088386e+004,-2.65436075765751e+001,-1.01822195636164e-001

2.63901582154578e+004,-2.65436101169205e+001,-1.03242782536301e-001

2.67585510957221e+004,-2.65436127283426e+001,-1.04683166316773e-001

2.71320865489533e+004,-2.65436154128199e+001,-1.06143621906543e-001

2.75108363627948e+004,-2.65436181723857e+001,-1.07624428012339e-001

2.78948733270080e+004,-2.65436210091295e+001,-1.09125867166933e-001

2.82842712474618e+004,-2.65436239251981e+001,-1.10648225783531e-001

2.86791049603164e+004,-2.65436269227972e+001,-1.12191794206658e-001

2.90794503464061e+004,-2.65436300041936e+001,-1.13756866761063e-001

2.94853843458219e+004,-2.65436331717157e+001,-1.15343741808631e-001

2.98969849726987e+004,-2.65436364277565e+001,-1.16952721798273e-001

3.03143313302078e+004,-2.65436397747745e+001,-1.18584113320645e-001

3.07375036257601e+004,-2.65436432152952e+001,-1.20238227164529e-001

3.11665831864199e+004,-2.65436467519137e+001,-1.21915378369642e-001

3.16016524745350e+004,-2.65436503872962e+001,-1.23615886283160e-001

3.20427951035848e+004,-2.65436541241815e+001,-1.25340074616687e-001

3.24900958542493e+004,-2.65436579653833e+001,-1.27088271503534e-001

3.29436406907028e+004,-2.65436619137925e+001,-1.28860809554992e-001

3.34035167771346e+004,-2.65436659723787e+001,-1.30658025917215e-001

3.38698124945009e+004,-2.65436701441924e+001,-1.32480262335307e-001

3.43426174575100e+004,-2.65436744323675e+001,-1.34327865206941e-001

3.48220225318448e+004,-2.65436788401228e+001,-1.36201185649299e-001

3.53081198516260e+004,-2.65436833707647e+001,-1.38100579552596e-001

3.58010028371187e+004,-2.65436880276898e+001,-1.40026407646509e-001

3.63007662126863e+004,-2.65436928143865e+001,-1.41979035560719e-001

3.68075060249948e+004,-2.65436977344379e+001,-1.43958833888687e-001

3.73213196614721e+004,-2.65437027915245e+001,-1.45966178247417e-001

3.78423058690237e+004,-2.65437079894257e+001,-1.48001449349189e-001

3.83705647730104e+004,-2.65437133320236e+001,-1.50065033057749e-001

3.89061978964912e+004,-2.65437188233051e+001,-1.52157320458876e-001

3.94493081797342e+004,-2.65437244673641e+001,-1.54278707926543e-001

3.99999999999998e+004,-2.65437302684054e+001,-1.56429597186725e-001

4.05583791916010e+004,-2.65437362307465e+001,-1.58610395387200e-001

4.11245530662425e+004,-2.65437423588209e+001,-1.60821515164717e-001

4.16986304336447e+004,-2.65437486571815e+001,-1.63063374711858e-001

4.22807216224550e+004,-2.65437551305025e+001,-1.65336397851911e-001

4.28709385014515e+004,-2.65437617835839e+001,-1.67641014100728e-001

4.34693945010421e+004,-2.65437686213531e+001,-1.69977658746727e-001

4.40762046350642e+004,-2.65437756488699e+001,-1.72346772911701e-001

4.46914855228886e+004,-2.65437828713284e+001,-1.74748803630403e-001

4.53153554118317e+004,-2.65437902940605e+001,-1.77184203923042e-001

4.59479341998812e+004,-2.65437979225402e+001,-1.79653432862275e-001

4.65893434587380e+004,-2.65438057623866e+001,-1.82156955651045e-001

4.72397064571810e+004,-2.65438138193675e+001,-1.84695243696917e-001

4.78991481847569e+004,-2.65438220994026e+001,-1.87268774688685e-001

4.85677953758016e+004,-2.65438306085683e+001,-1.89878032665370e-001

4.92457765337964e+004,-2.65438393531007e+001,-1.92523508099517e-001

4.99332219560642e+004,-2.65438483393996e+001,-1.95205697970022e-001

5.06302637588109e+004,-2.65438575740327e+001,-1.97925105839526e-001

5.13370359025159e+004,-2.65438670637398e+001,-2.00682241932903e-001

5.20536742176771e+004,-2.65438768154359e+001,-2.03477623216694e-001

5.27803164309155e+004,-2.65438868362171e+001,-2.06311773474626e-001

5.35171021914442e+004,-2.65438971333633e+001,-2.09185223390163e-001

5.42641730979066e+004,-2.65439077143434e+001,-2.12098510624375e-001

5.50216727255895e+004,-2.65439185868197e+001,-2.15052179897359e-001

5.57897466540159e+004,-2.65439297586518e+001,-2.18046783070107e-001

5.65685424949235e+004,-2.65439412379021e+001,-2.21082879220865e-001

5.73582099206328e+004,-2.65439530328398e+001,-2.24161034734246e-001

5.81589006928121e+004,-2.65439651519456e+001,-2.27281823377492e-001

5.89707686916437e+004,-2.65439776039171e+001,-2.30445826385131e-001

5.97939699453972e+004,-2.65439903976734e+001,-2.33653632541488e-001

6.06286626604156e+004,-2.65440035423597e+001,-2.36905838265169e-001

6.14750072515201e+004,-2.65440170473527e+001,-2.40203047692128e-001

6.23331663728396e+004,-2.65440309222659e+001,-2.43545872758295e-001

6.32033049490698e+004,-2.65440451769544e+001,-2.46934933285728e-001

6.40855902071694e+004,-2.65440598215202e+001,-2.50370857066917e-001

6.49801917084985e+004,-2.65440748663176e+001,-2.53854279949080e-001

6.58872813814055e+004,-2.65440903219589e+001,-2.57385845918964e-001

6.68070335542691e+004,-2.65441061993191e+001,-2.60966207188766e-001

6.77396249890018e+004,-2.65441225095418e+001,-2.64596024283227e-001

6.86852349150199e+004,-2.65441392640450e+001,-2.68275966122449e-001

6.96440450636895e+004,-2.65441564745265e+001,-2.72006710108412e-001

7.06162397032520e+004,-2.65441741529691e+001,-2.75788942212492e-001

7.16020056742374e+004,-2.65441923116470e+001,-2.79623357060597e-001

7.26015324253724e+004,-2.65442109631312e+001,-2.83510658018461e-001

7.36150120499896e+004,-2.65442301202952e+001,-2.87451557278964e-001

7.46426393229441e+004,-2.65442497963207e+001,-2.91446775947679e-001

7.56846117380472e+004,-2.65442700047039e+001,-2.95497044128894e-001

7.67411295460207e+004,-2.65442907592608e+001,-2.99603101011792e-001

7.78123957929823e+004,-2.65443120741333e+001,-3.03765694955952e-001

7.88986163594682e+004,-2.65443339637951e+001,-3.07985583577410e-001

7.99999999999995e+004,-2.65443564430576e+001,-3.12263533833326e-001

8.11167583832018e+004,-2.65443795270749e+001,-3.16600322111084e-001

8.22491061324848e+004,-2.65444032313511e+001,-3.20996734307171e-001

8.33972608672892e+004,-2.65444275717449e+001,-3.25453565917589e-001

8.45614432449099e+004,-2.65444525644757e+001,-3.29971622120028e-001

8.57418770029029e+004,-2.65444782261296e+001,-3.34551717856979e-001

8.69387890020841e+004,-2.65445045736643e+001,-3.39194677923635e-001

8.81524092701283e+004,-2.65445316244154e+001,-3.43901337047440e-001

8.93829710457770e+004,-2.65445593961017e+001,-3.48672539972728e-001

9.06307108236633e+004,-2.65445879068302e+001,-3.53509141543812e-001

9.18958683997622e+004,-2.65446171751019e+001,-3.58412006786471e-001

9.31786869174758e+004,-2.65446472198165e+001,-3.63382010989490e-001

9.44794129143618e+004,-2.65446780602776e+001,-3.68420039788167e-001

9.57982963695136e+004,-2.65447097161977e+001,-3.73526989239940e-001

9.71355907516031e+004,-2.65447422077026e+001,-3.78703765909307e-001

9.84915530675926e+004,-2.65447755553360e+001,-3.83951286946324e-001

9.98664439121282e+004,-2.65448097800638e+001,-3.89270480163247e-001

1.01260527517622e+005,-2.65448449032782e+001,-3.94662284113676e-001

1.02674071805032e+005,-2.65448809468012e+001,-4.00127648172317e-001

1.04107348435354e+005,-2.65449179328883e+001,-4.05667532609587e-001

1.05560632861831e+005,-2.65449558842321e+001,-4.11282908668350e-001

1.07034204382888e+005,-2.65449948239646e+001,-4.16974758639946e-001

1.08528346195813e+005,-2.65450347756599e+001,-4.22744075941290e-001

1.10043345451179e+005,-2.65450757633366e+001,-4.28591865185827e-001

1.11579493308032e+005,-2.65451178114597e+001,-4.34519142258703e-001

1.13137084989847e+005,-2.65451609449414e+001,-4.40526934392766e-001

1.14716419841265e+005,-2.65452051891430e+001,-4.46616280237109e-001

1.16317801385624e+005,-2.65452505698743e+001,-4.52788229933162e-001

1.17941537383287e+005,-2.65452971133940e+001,-4.59043845184666e-001

1.19587939890794e+005,-2.65453448464094e+001,-4.65384199329510e-001

1.21257325320831e+005,-2.65453937960747e+001,-4.71810377412084e-001

1.22950014503040e+005,-2.65454439899894e+001,-4.78323476253048e-001

1.24666332745679e+005,-2.65454954561962e+001,-4.84924604519838e-001

1.26406609898139e+005,-2.65455482231774e+001,-4.91614882799229e-001

1.28171180414339e+005,-2.65456023198511e+001,-4.98395443667873e-001

1.29960383416997e+005,-2.65456577755673e+001,-5.05267431760941e-001

1.31774562762811e+005,-2.65457146201013e+001,-5.12232003847691e-001

1.33614067108538e+005,-2.65457728836488e+001,-5.19290328900276e-001

1.35479249978003e+005,-2.65458325968183e+001,-5.26443588166091e-001

1.37370469830040e+005,-2.65458937906226e+001,-5.33692975243839e-001

1.39288090127379e+005,-2.65459564964708e+001,-5.41039696154933e-001

1.41232479406504e+005,-2.65460207461576e+001,-5.48484969421811e-001

1.43204011348474e+005,-2.65460865718530e+001,-5.56030026142240e-001

1.45203064850745e+005,-2.65461540060896e+001,-5.63676110071596e-001

1.47230024099979e+005,-2.65462230817500e+001,-5.71424477698541e-001

1.49285278645888e+005,-2.65462938320523e+001,-5.79276398334210e-001

1.51369223476094e+005,-2.65463662905343e+001,-5.87233154193974e-001

1.53482259092041e+005,-2.65464404910373e+001,-5.95296040486000e-001

1.55624791585964e+005,-2.65465164676876e+001,-6.03466365506364e-001

1.57797232718936e+005,-2.65465942548773e+001,-6.11745450730286e-001

1.59999999999999e+005,-2.65466738872435e+001,-6.20134630916679e-001

1.62233516766403e+005,-2.65467553996463e+001,-6.28635254208420e-001

1.64498212264969e+005,-2.65468388271450e+001,-6.37248682243988e-001

1.66794521734578e+005,-2.65469242049732e+001,-6.45976290271612e-001

1.69122886489819e+005,-2.65470115685122e+001,-6.54819467269780e-001

1.71483754005805e+005,-2.65471009532629e+001,-6.63779616074741e-001

1.73877578004168e+005,-2.65471923948159e+001,-6.72858153515494e-001

1.76304818540256e+005,-2.65472859288204e+001,-6.82056510554843e-001

1.78765942091554e+005,-2.65473815909515e+001,-6.91376132441285e-001

1.81261421647326e+005,-2.65474794168750e+001,-7.00818478866887e-001

1.83791736799524e+005,-2.65475794422118e+001,-7.10385024138047e-001

1.86357373834951e+005,-2.65476817025000e+001,-7.20077257352967e-001

1.88958825828723e+005,-2.65477862331547e+001,-7.29896682593471e-001

1.91596592739027e+005,-2.65478930694273e+001,-7.39844819128656e-001

1.94271181503206e+005,-2.65480022463626e+001,-7.49923201626795e-001

1.96983106135185e+005,-2.65481137987534e+001,-7.60133380387313e-001

1.99732887824256e+005,-2.65482277610955e+001,-7.70476921579565e-001

2.02521055035243e+005,-2.65483441675386e+001,-7.80955407505142e-001

2.05348143610063e+005,-2.65484630518373e+001,-7.91570436868446e-001

2.08214696870707e+005,-2.65485844472999e+001,-8.02323625068910e-001

2.11121265723661e+005,-2.65487083867358e+001,-8.13216604509175e-001

2.14068408765776e+005,-2.65488349024011e+001,-8.24251024922085e-001

2.17056692391625e+005,-2.65489640259430e+001,-8.35428553719202e-001

2.20086690902357e+005,-2.65490957883432e+001,-8.46750876354834e-001

2.23158986616063e+005,-2.65492302198593e+001,-8.58219696719033e-001

2.26274169979693e+005,-2.65493673499652e+001,-8.69836737547035e-001

2.29432839682530e+005,-2.65495072072910e+001,-8.81603740852804e-001

2.32635602771247e+005,-2.65496498195607e+001,-8.93522468391582e-001

2.35883074766574e+005,-2.65497952135303e+001,-9.05594702140207e-001

2.39175879781588e+005,-2.65499434149242e+001,-9.17822244812206e-001

2.42514650641661e+005,-2.65500944483713e+001,-9.30206920391080e-001

2.45900029006080e+005,-2.65502483373408e+001,-9.42750574697999e-001

2.49332665491357e+005,-2.65504051040770e+001,-9.55455075986347e-001

2.52813219796278e+005,-2.65505647695348e+001,-9.68322315563833e-001

2.56342360828676e+005,-2.65507273533148e+001,-9.81354208447554e-001

2.59920766833993e+005,-2.65508928735982e+001,-9.94552694048278e-001

2.63549125525621e+005,-2.65510613470829e+001,-1.00791973688806e+000

2.67228134217075e+005,-2.65512327889197e+001,-1.02145732734624e+000

2.70958499956006e+005,-2.65514072126493e+001,-1.03516748244368e+000

2.74740939660078e+005,-2.65515846301408e+001,-1.04905224665586e+000

2.78576180254757e+005,-2.65517650515309e+001,-1.06311369275964e+000

2.82464958813007e+005,-2.65519484851651e+001,-1.07735392271743e+000

2.86408022696948e+005,-2.65521349375404e+001,-1.09177506859059e+000

2.90406129701488e+005,-2.65523244132506e+001,-1.10637929349002e+000

2.94460048199957e+005,-2.65525169149332e+001,-1.12116879255924e+000

2.98570557291775e+005,-2.65527124432191e+001,-1.13614579399310e+000

3.02738446952187e+005,-2.65529109966858e+001,-1.15131256008752e+000

3.06964518184081e+005,-2.65531125718131e+001,-1.16667138832384e+000

3.11249583171928e+005,-2.65533171629419e+001,-1.18222461248833e+000

3.15594465437872e+005,-2.65535247622381e+001,-1.19797460381885e+000

3.19999999999997e+005,-2.65537353596591e+001,-1.21392377218650e+000

3.24467033532806e+005,-2.65539489429250e+001,-1.23007456730845e+000

3.28996424529938e+005,-2.65541654974950e+001,-1.24642947998761e+000

3.33589043469155e+005,-2.65543850065475e+001,-1.26299104338267e+000

3.38245772979638e+005,-2.65546074509663e+001,-1.27976183430487e+000

3.42967508011610e+005,-2.65548328093312e+001,-1.29674447454048e+000

3.47755156008335e+005,-2.65550610579155e+001,-1.31394163219659e+000

3.52609637080511e+005,-2.65552921706875e+001,-1.33135602307237e+000

3.57531884183106e+005,-2.65555261193195e+001,-1.34899041204801e+000

3.62522843294651e+005,-2.65557628732028e+001,-1.36684761449326e+000

3.67583473599047e+005,-2.65560023994682e+001,-1.38493049769414e+000

3.72714747669902e+005,-2.65562446630139e+001,-1.40324198229352e+000

3.77917651657445e+005,-2.65564896265402e+001,-1.42178504374389e+000

3.83193185478053e+005,-2.65567372505903e+001,-1.44056271377072e+000

3.88542363006410e+005,-2.65569874935986e+001,-1.45957808184370e+000

3.93966212270369e+005,-2.65572403119461e+001,-1.47883429665195e+000

3.99465775648511e+005,-2.65574956600224e+001,-1.49833456758523e+000

4.05042110070485e+005,-2.65577534902947e+001,-1.51808216621172e+000

4.10696287220124e+005,-2.65580137533847e+001,-1.53808042775481e+000

4.16429393741414e+005,-2.65582763981516e+001,-1.55833275256511e+000

4.22242531447321e+005,-2.65585413717826e+001,-1.57884260758470e+000

4.28136817531551e+005,-2.65588086198900e+001,-1.59961352780084e+000

4.34113384783250e+005,-2.65590780866152e+001,-1.62064911768663e+000

4.40173381804713e+005,-2.65593497147393e+001,-1.64195305262575e+000

4.46317973232124e+005,-2.65596234458001e+001,-1.66352908032044e+000

4.52548339959385e+005,-2.65598992202150e+001,-1.68538102217734e+000

4.58865679365059e+005,-2.65601769774105e+001,-1.70751277467289e+000

4.65271205542494e+005,-2.65604566559565e+001,-1.72992831069143e+000

4.71766149533147e+005,-2.65607381937071e+001,-1.75263168083650e+000

4.78351759563174e+005,-2.65610215279457e+001,-1.77562701471442e+000

4.85029301283321e+005,-2.65613065955345e+001,-1.79891852218597e+000

4.91800058012158e+005,-2.65615933330698e+001,-1.82251049458557e+000

4.98665330982714e+005,-2.65618816770397e+001,-1.84640730590494e+000

5.05626439592555e+005,-2.65621715639864e+001,-1.87061341394455e+000

5.12684721657352e+005,-2.65624629306710e+001,-1.89513336142559e+000

5.19841533667984e+005,-2.65627557142421e+001,-1.91997177706438e+000

5.27098251051240e+005,-2.65630498524052e+001,-1.94513337661149e+000

5.34456268434150e+005,-2.65633452835952e+001,-1.97062296384903e+000

5.41916999912011e+005,-2.65636419471496e+001,-1.99644543154990e+000

