Freq.,VOut,OutRef

1.00000000000000e+004,-1.60439048666851e+001,-1.57129825426698e-001

1.01395947979003e+004,-1.60439055773048e+001,-1.59323201681554e-001

1.02811382665607e+004,-1.60439063078906e+001,-1.61547193171147e-001

1.04246576084112e+004,-1.60439070590030e+001,-1.63802227134884e-001

1.05701804056138e+004,-1.60439078312184e+001,-1.66088736769494e-001

1.07177346253629e+004,-1.60439086251293e+001,-1.68407161313994e-001

1.08673486252606e+004,-1.60439094413450e+001,-1.70757946131092e-001

1.10190511587661e+004,-1.60439102804915e+001,-1.73141542796628e-001

1.11728713807222e+004,-1.60439111432126e+001,-1.75558409180616e-001

1.13288388529580e+004,-1.60439120301701e+001,-1.78009009540692e-001

1.14869835499703e+004,-1.60439129420445e+001,-1.80493814605032e-001

1.16473358646846e+004,-1.60439138795351e+001,-1.83013301667711e-001

1.18099266142953e+004,-1.60439148433608e+001,-1.85567954676942e-001

1.19747870461893e+004,-1.60439158342609e+001,-1.88158264328232e-001

1.21419488439505e+004,-1.60439168529954e+001,-1.90784728156864e-001

1.23114441334492e+004,-1.60439179003453e+001,-1.93447850637811e-001

1.24833054890161e+004,-1.60439189771138e+001,-1.96148143275096e-001

1.26575659397028e+004,-1.60439200841263e+001,-1.98886124707173e-001

1.28342589756290e+004,-1.60439212222317e+001,-2.01662320799213e-001

1.30134185544193e+004,-1.60439223923022e+001,-2.04477264748080e-001

1.31950791077289e+004,-1.60439235952349e+001,-2.07331497181964e-001

1.33792755478611e+004,-1.60439248319517e+001,-2.10225566265503e-001

1.35660432744767e+004,-1.60439261034004e+001,-2.13160027802910e-001

1.37554181813974e+004,-1.60439274105553e+001,-2.16135445344545e-001

1.39474366635040e+004,-1.60439287544182e+001,-2.19152390293685e-001

1.41421356237309e+004,-1.60439301360186e+001,-2.22211442018898e-001

1.43395524801583e+004,-1.60439315564149e+001,-2.25313187959979e-001

1.45397251732031e+004,-1.60439330166954e+001,-2.28458223743846e-001

1.47426921729110e+004,-1.60439345179783e+001,-2.31647153296463e-001

1.49484924863494e+004,-1.60439360614138e+001,-2.34880588956947e-001

1.51571656651040e+004,-1.60439376481836e+001,-2.38159151596887e-001

1.53687518128801e+004,-1.60439392795027e+001,-2.41483470738443e-001

1.55832915932100e+004,-1.60439409566203e+001,-2.44854184670978e-001

1.58008262372675e+004,-1.60439426808201e+001,-2.48271940576872e-001

1.60213975517924e+004,-1.60439444534221e+001,-2.51737394652785e-001

1.62450479271247e+004,-1.60439462757828e+001,-2.55251212235520e-001

1.64718203453514e+004,-1.60439481492969e+001,-2.58814067926951e-001

1.67017583885674e+004,-1.60439500753977e+001,-2.62426645725923e-001

1.69349062472505e+004,-1.60439520555592e+001,-2.66089639153283e-001

1.71713087287550e+004,-1.60439540912960e+001,-2.69803751388575e-001

1.74110112659224e+004,-1.60439561841650e+001,-2.73569695403224e-001

1.76540599258131e+004,-1.60439583357668e+001,-2.77388194093097e-001

1.79005014185594e+004,-1.60439605477466e+001,-2.81259980419448e-001

1.81503831063432e+004,-1.60439628217954e+001,-2.85185797545606e-001

1.84037530124975e+004,-1.60439651596517e+001,-2.89166398978614e-001

1.86606598307361e+004,-1.60439675631021e+001,-2.93202548716035e-001

1.89211529345119e+004,-1.60439700339831e+001,-2.97295021385343e-001

1.91852823865052e+004,-1.60439725741828e+001,-3.01444602393940e-001

1.94530989482457e+004,-1.60439751856413e+001,-3.05652088079216e-001

1.97246540898671e+004,-1.60439778703534e+001,-3.09918285858103e-001

1.99999999999999e+004,-1.60439806303688e+001,-3.14244014380795e-001

2.02791895958005e+004,-1.60439834677949e+001,-3.18630103683950e-001

2.05622765331213e+004,-1.60439863847975e+001,-3.23077395351719e-001

2.08493152168224e+004,-1.60439893836029e+001,-3.27586742671172e-001

2.11403608112276e+004,-1.60439924664989e+001,-3.32159010798862e-001

2.14354692507258e+004,-1.60439956358374e+001,-3.36795076918687e-001

2.17346972505211e+004,-1.60439988940358e+001,-3.41495830411558e-001

2.20381023175322e+004,-1.60440022435781e+001,-3.46262173024298e-001

2.23457427614443e+004,-1.60440056870180e+001,-3.51095019036264e-001

2.26576777059159e+004,-1.60440092269798e+001,-3.55995295436730e-001

2.29739670999406e+004,-1.60440128661610e+001,-3.60963942095599e-001

2.32946717293690e+004,-1.60440166073336e+001,-3.66001911944370e-001

2.36198532285905e+004,-1.60440204533469e+001,-3.71110171153714e-001

2.39495740923785e+004,-1.60440244071291e+001,-3.76289699317550e-001

2.42838976879009e+004,-1.60440284716898e+001,-3.81541489633965e-001

2.46228882668982e+004,-1.60440326501219e+001,-3.86866549097983e-001

2.49666109780322e+004,-1.60440369456041e+001,-3.92265898685726e-001

2.53151318794055e+004,-1.60440413614031e+001,-3.97740573550961e-001

2.56685179512580e+004,-1.60440459008763e+001,-4.03291623215439e-001

2.60268371088386e+004,-1.60440505674737e+001,-4.08920111770213e-001

2.63901582154578e+004,-1.60440553647411e+001,-4.14627118072789e-001

2.67585510957221e+004,-1.60440602963222e+001,-4.20413735950889e-001

2.71320865489533e+004,-1.60440653659617e+001,-4.26281074406274e-001

2.75108363627948e+004,-1.60440705775073e+001,-4.32230257825655e-001

2.78948733270080e+004,-1.60440759349134e+001,-4.38262426187308e-001

2.82842712474618e+004,-1.60440814422434e+001,-4.44378735278220e-001

2.86791049603164e+004,-1.60440871036730e+001,-4.50580356906676e-001

2.90794503464061e+004,-1.60440929234928e+001,-4.56868479125375e-001

2.94853843458219e+004,-1.60440989061120e+001,-4.63244306448796e-001

2.98969849726987e+004,-1.60441050560610e+001,-4.69709060082809e-001

3.03143313302078e+004,-1.60441113779949e+001,-4.76263978148594e-001

3.07375036257601e+004,-1.60441178766972e+001,-4.82910315914503e-001

3.11665831864199e+004,-1.60441245570826e+001,-4.89649346031310e-001

3.16016524745350e+004,-1.60441314242012e+001,-4.96482358766064e-001

3.20427951035848e+004,-1.60441384832416e+001,-5.03410662245276e-001

3.24900958542493e+004,-1.60441457395347e+001,-5.10435582695033e-001

3.29436406907028e+004,-1.60441531985582e+001,-5.17558464686792e-001

3.34035167771346e+004,-1.60441608659390e+001,-5.24780671390649e-001

3.38698124945009e+004,-1.60441687474589e+001,-5.32103584823141e-001

3.43426174575100e+004,-1.60441768490578e+001,-5.39528606103759e-001

3.48220225318448e+004,-1.60441851768378e+001,-5.47057155716279e-001

3.53081198516260e+004,-1.60441937370678e+001,-5.54690673769197e-001

3.58010028371187e+004,-1.60442025361882e+001,-5.62430620260025e-001

3.63007662126863e+004,-1.60442115808146e+001,-5.70278475346682e-001

3.68075060249948e+004,-1.60442208777434e+001,-5.78235739618341e-001

3.73213196614721e+004,-1.60442304339558e+001,-5.86303934371664e-001

3.78423058690237e+004,-1.60442402566230e+001,-5.94484601888605e-001

3.83705647730104e+004,-1.60442503531114e+001,-6.02779305720777e-001

3.89061978964912e+004,-1.60442607309871e+001,-6.11189630975703e-001

3.94493081797342e+004,-1.60442713980218e+001,-6.19717184604131e-001

3.99999999999998e+004,-1.60442823621975e+001,-6.28363595697519e-001

4.05583791916010e+004,-1.60442936317126e+001,-6.37130515780193e-001

4.11245530662425e+004,-1.60443052149873e+001,-6.46019619113793e-001

4.16986304336447e+004,-1.60443171206690e+001,-6.55032603000179e-001

4.22807216224550e+004,-1.60443293576386e+001,-6.64171188089768e-001

4.28709385014515e+004,-1.60443419350166e+001,-6.73437118691697e-001

4.34693945010421e+004,-1.60443548621685e+001,-6.82832163093421e-001

4.40762046350642e+004,-1.60443681487121e+001,-6.92358113875663e-001

4.46914855228886e+004,-1.60443818045234e+001,-7.02016788238915e-001

4.53153554118317e+004,-1.60443958397432e+001,-7.11810028328866e-001

4.59479341998812e+004,-1.60444102647839e+001,-7.21739701568302e-001

4.65893434587380e+004,-1.60444250903361e+001,-7.31807700993113e-001

4.72397064571810e+004,-1.60444403273766e+001,-7.42015945588290e-001

4.78991481847569e+004,-1.60444559871741e+001,-7.52366380634774e-001

4.85677953758016e+004,-1.60444720812981e+001,-7.62860978054179e-001

4.92457765337964e+004,-1.60444886216250e+001,-7.73501736760520e-001

4.99332219560642e+004,-1.60445056203470e+001,-7.84290683015495e-001

5.06302637588109e+004,-1.60445230899789e+001,-7.95229870788510e-001

5.13370359025159e+004,-1.60445410433670e+001,-8.06321382119207e-001

5.20536742176771e+004,-1.60445594936963e+001,-8.17567327486205e-001

5.27803164309155e+004,-1.60445784544998e+001,-8.28969846177998e-001

5.35171021914442e+004,-1.60445979396663e+001,-8.40531106670787e-001

5.42641730979066e+004,-1.60446179634493e+001,-8.52253307006643e-001

5.50216727255895e+004,-1.60446385404759e+001,-8.64138675180573e-001

5.57897466540159e+004,-1.60446596857558e+001,-8.76189469528133e-001

5.65685424949235e+004,-1.60446814146901e+001,-8.88407979119728e-001

5.73582099206328e+004,-1.60447037430814e+001,-9.00796524157036e-001

5.81589006928121e+004,-1.60447266871425e+001,-9.13357456377262e-001

5.89707686916437e+004,-1.60447502635068e+001,-9.26093159457345e-001

5.97939699453972e+004,-1.60447744892378e+001,-9.39006049426510e-001

6.06286626604156e+004,-1.60447993818390e+001,-9.52098575082374e-001

6.14750072515201e+004,-1.60448249592647e+001,-9.65373218407983e-001

6.23331663728396e+004,-1.60448512399296e+001,-9.78832494999492e-001

6.32033049490698e+004,-1.60448782427203e+001,-9.92478954492831e-001

6.40855902071694e+004,-1.60449059870050e+001,-1.00631518099817e+000

6.49801917084985e+004,-1.60449344926454e+001,-1.02034379353794e+000

6.58872813814055e+004,-1.60449637800071e+001,-1.03456744648858e+000

6.68070335542691e+004,-1.60449938699710e+001,-1.04898883002931e+000

6.77396249890018e+004,-1.60450247839449e+001,-1.06361067059159e+000

6.86852349150199e+004,-1.60450565438747e+001,-1.07843573131766e+000

6.96440450636895e+004,-1.60450891722565e+001,-1.09346681251972e+000

7.06162397032520e+004,-1.60451226921483e+001,-1.10870675214692e+000

7.16020056742374e+004,-1.60451571271817e+001,-1.12415842625559e+000

7.26015324253724e+004,-1.60451925015747e+001,-1.13982474948295e+000

7.36150120499896e+004,-1.60452288401434e+001,-1.15570867552846e+000

7.46426393229441e+004,-1.60452661683147e+001,-1.17181319763653e+000

7.56846117380472e+004,-1.60453045121388e+001,-1.18814134908649e+000

7.67411295460207e+004,-1.60453438983018e+001,-1.20469620368771e+000

7.78123957929823e+004,-1.60453843541385e+001,-1.22148087627497e+000

7.88986163594682e+004,-1.60454259076452e+001,-1.23849852321532e+000

7.99999999999995e+004,-1.60454685874927e+001,-1.25575234291338e+000

8.11167583832018e+004,-1.60455124230395e+001,-1.27324557632619e+000

8.22491061324848e+004,-1.60455574443444e+001,-1.29098150748058e+000

8.33972608672892e+004,-1.60456036821803e+001,-1.30896346399429e+000

8.45614432449099e+004,-1.60456511680469e+001,-1.32719481760559e+000

8.57418770029029e+004,-1.60456999341839e+001,-1.34567898470411e+000

8.69387890020841e+004,-1.60457500135847e+001,-1.36441942686863e+000

8.81524092701283e+004,-1.60458014400092e+001,-1.38341965140961e+000

8.93829710457770e+004,-1.60458542479972e+001,-1.40268321191516e+000

9.06307108236633e+004,-1.60459084728815e+001,-1.42221370880364e+000

9.18958683997622e+004,-1.60459641508010e+001,-1.44201478988146e+000

9.31786869174758e+004,-1.60460213187140e+001,-1.46209015090499e+000

9.44794129143618e+004,-1.60460800144107e+001,-1.48244353614595e+000

9.57982963695136e+004,-1.60461402765265e+001,-1.50307873896711e+000

9.71355907516031e+004,-1.60462021445544e+001,-1.52399960239655e+000

9.84915530675926e+004,-1.60462656588576e+001,-1.54521001971339e+000

9.98664439121282e+004,-1.60463308606817e+001,-1.56671393503301e+000

1.01260527517622e+005,-1.60463977921671e+001,-1.58851534390316e+000

1.02674071805032e+005,-1.60464664963608e+001,-1.61061829390094e+000

1.04107348435354e+005,-1.60465370172276e+001,-1.63302688523786e+000

1.05560632861831e+005,-1.60466093996617e+001,-1.65574527137027e+000

1.07034204382888e+005,-1.60466836894977e+001,-1.67877765961456e+000

1.08528346195813e+005,-1.60467599335208e+001,-1.70212831176848e+000

1.10043345451179e+005,-1.60468381794773e+001,-1.72580154473914e+000

1.11579493308032e+005,-1.60469184760838e+001,-1.74980173117581e+000

1.13137084989847e+005,-1.60470008730368e+001,-1.77413330010997e+000

1.14716419841265e+005,-1.60470854210212e+001,-1.79880073760135e+000

1.16317801385624e+005,-1.60471721717181e+001,-1.82380858738957e+000

1.17941537383287e+005,-1.60472611778127e+001,-1.84916145155411e+000

1.19587939890794e+005,-1.60473524930007e+001,-1.87486399117971e+000

1.21257325320831e+005,-1.60474461719942e+001,-1.90092092702974e+000

1.22950014503040e+005,-1.60475422705277e+001,-1.92733704022578e+000

1.24666332745679e+005,-1.60476408453616e+001,-1.95411717293641e+000

1.26406609898139e+005,-1.60477419542867e+001,-1.98126622907196e+000

1.28171180414339e+005,-1.60478456561263e+001,-2.00878917498833e+000

1.29960383416997e+005,-1.60479520107381e+001,-2.03669104019959e+000

1.31774562762811e+005,-1.60480610790149e+001,-2.06497691809796e+000

1.33614067108538e+005,-1.60481729228842e+001,-2.09365196668349e+000

1.35479249978003e+005,-1.60482876053068e+001,-2.12272140930501e+000

1.37370469830040e+005,-1.60484051902736e+001,-2.15219053540673e+000

1.39288090127379e+005,-1.60485257428023e+001,-2.18206470128959e+000

1.41232479406504e+005,-1.60486493289316e+001,-2.21234933088010e+000

1.43204011348474e+005,-1.60487760157146e+001,-2.24304991651275e+000

1.45203064850745e+005,-1.60489058712109e+001,-2.27417201972229e+000

1.47230024099979e+005,-1.60490389644768e+001,-2.30572127204924e+000

1.49285278645888e+005,-1.60491753655541e+001,-2.33770337585841e+000

1.51369223476094e+005,-1.60493151454576e+001,-2.37012410517125e+000

1.53482259092041e+005,-1.60494583761605e+001,-2.40298930651088e+000

1.55624791585964e+005,-1.60496051305781e+001,-2.43630489976442e+000

1.57797232718936e+005,-1.60497554825502e+001,-2.47007687905795e+000

1.59999999999999e+005,-1.60499095068208e+001,-2.50431131365164e+000

1.62233516766403e+005,-1.60500672790171e+001,-2.53901434884906e+000

1.64498212264969e+005,-1.60502288756253e+001,-2.57419220692539e+000

1.66794521734578e+005,-1.60503943739652e+001,-2.60985118807638e+000

1.69122886489819e+005,-1.60505638521628e+001,-2.64599767138476e+000

1.71483754005805e+005,-1.60507373891204e+001,-2.68263811581008e+000

1.73877578004168e+005,-1.60509150644846e+001,-2.71977906119848e+000

1.76304818540256e+005,-1.60510969586128e+001,-2.75742712931807e+000

1.78765942091554e+005,-1.60512831525369e+001,-2.79558902491597e+000

1.81261421647326e+005,-1.60514737279249e+001,-2.83427153680314e+000

1.83791736799524e+005,-1.60516687670408e+001,-2.87348153896474e+000

1.86357373834951e+005,-1.60518683527016e+001,-2.91322599169866e+000

1.88958825828723e+005,-1.60520725682324e+001,-2.95351194278425e+000

1.91596592739027e+005,-1.60522814974198e+001,-2.99434652868026e+000

1.94271181503206e+005,-1.60524952244622e+001,-3.03573697575658e+000

1.96983106135185e+005,-1.60527138339186e+001,-3.07769060155864e+000

1.99732887824256e+005,-1.60529374106553e+001,-3.12021481610644e+000

2.02521055035243e+005,-1.60531660397899e+001,-3.16331712323178e+000

2.05348143610063e+005,-1.60533998066345e+001,-3.20700512195190e+000

2.08214696870707e+005,-1.60536387966355e+001,-3.25128650788384e+000

2.11121265723661e+005,-1.60538830953126e+001,-3.29616907470045e+000

2.14068408765776e+005,-1.60541327881959e+001,-3.34166071562828e+000

2.17056692391625e+005,-1.60543879607611e+001,-3.38776942499035e+000

2.20086690902357e+005,-1.60546486983631e+001,-3.43450329979688e+000

2.23158986616063e+005,-1.60549150861687e+001,-3.48187054138131e+000

2.26274169979693e+005,-1.60551872090880e+001,-3.52987945708841e+000

2.29432839682530e+005,-1.60554651517039e+001,-3.57853846201215e+000

2.32635602771247e+005,-1.60557489982024e+001,-3.62785608078673e+000

2.35883074766574e+005,-1.60560388323004e+001,-3.67784094943355e+000

2.39175879781588e+005,-1.60563347371749e+001,-3.72850181726164e+000

2.42514650641661e+005,-1.60566367953903e+001,-3.77984754882986e+000

2.45900029006080e+005,-1.60569450888274e+001,-3.83188712596405e+000

2.49332665491357e+005,-1.60572596986113e+001,-3.88462964983879e+000

2.52813219796278e+005,-1.60575807050412e+001,-3.93808434311871e+000

2.56342360828676e+005,-1.60579081875204e+001,-3.99226055216529e+000

2.59920766833993e+005,-1.60582422244880e+001,-4.04716774930694e+000

2.63549125525621e+005,-1.60585828933521e+001,-4.10281553517617e+000

2.67228134217075e+005,-1.60589302704252e+001,-4.15921364111447e+000

2.70958499956006e+005,-1.60592844308614e+001,-4.21637193164354e+000

2.74740939660078e+005,-1.60596454485977e+001,-4.27430040700678e+000

2.78576180254757e+005,-1.60600133962970e+001,-4.33300920578082e+000

2.82464958813007e+005,-1.60603883452963e+001,-4.39250860755635e+000

2.86408022696948e+005,-1.60607703655573e+001,-4.45280903569035e+000

2.90406129701488e+005,-1.60611595256235e+001,-4.51392106012905e+000

2.94460048199957e+005,-1.60615558925805e+001,-4.57585540030268e+000

2.98570557291775e+005,-1.60619595320230e+001,-4.63862292809058e+000

3.02738446952187e+005,-1.60623705080274e+001,-4.70223467085762e+000

3.06964518184081e+005,-1.60627888831309e+001,-4.76670181456074e+000

3.11249583171928e+005,-1.60632147183173e+001,-4.83203570692576e+000

3.15594465437872e+005,-1.60636480730110e+001,-4.89824786069244e+000

3.19999999999997e+005,-1.60640890050779e+001,-4.96534995692766e+000

3.24467033532806e+005,-1.60645375708355e+001,-5.03335384840615e+000

3.28996424529938e+005,-1.60649938250719e+001,-5.10227156305438e+000

3.33589043469155e+005,-1.60654578210737e+001,-5.17211530745945e+000

3.38245772979638e+005,-1.60659296106641e+001,-5.24289747043894e+000

3.42967508011610e+005,-1.60664092442513e+001,-5.31463062667017e+000

3.47755156008335e+005,-1.60668967708876e+001,-5.38732754037603e+000

3.52609637080511e+005,-1.60673922383395e+001,-5.46100116906541e+000

3.57531884183106e+005,-1.60678956931697e+001,-5.53566466732557e+000

3.62522843294651e+005,-1.60684071808307e+001,-5.61133139066274e+000

3.67583473599047e+005,-1.60689267457704e+001,-5.68801489938784e+000

3.72714747669902e+005,-1.60694544315513e+001,-5.76572896254549e+000

3.77917651657445e+005,-1.60699902809813e+001,-5.84448756188019e+000

3.83193185478053e+005,-1.60705343362584e+001,-5.92430489583799e+000

3.88542363006410e+005,-1.60710866391286e+001,-6.00519538359972e+000

3.93966212270369e+005,-1.60716472310567e+001,-6.08717366914119e+000

3.99465775648511e+005,-1.60722161534117e+001,-6.17025462531587e+000

4.05042110070485e+005,-1.60727934476650e+001,-6.25445335795751e+000

4.10696287220124e+005,-1.60733791556027e+001,-6.33978520999731e+000

4.16429393741414e+005,-1.60739733195519e+001,-6.42626576559237e+000

4.22242531447321e+005,-1.60745759826200e+001,-6.51391085425936e+000

4.28136817531551e+005,-1.60751871889485e+001,-6.60273655501168e+000

4.34113384783250e+005,-1.60758069839791e+001,-6.69275920049502e+000

4.40173381804713e+005,-1.60764354147345e+001,-6.78399538111552e+000

4.46317973232124e+005,-1.60770725301109e+001,-6.87646194915928e+000

4.52548339959385e+005,-1.60777183811841e+001,-6.97017602289748e+000

4.58865679365059e+005,-1.60783730215279e+001,-7.06515499067380e+000

4.65271205542494e+005,-1.60790365075438e+001,-7.16141651497116e+000

4.71766149533147e+005,-1.60797088988039e+001,-7.25897853645225e+000

4.78351759563174e+005,-1.60803902584036e+001,-7.35785927797437e+000

4.85029301283321e+005,-1.60810806533257e+001,-7.45807724857149e+000

4.91800058012158e+005,-1.60817801548144e+001,-7.55965124740329e+000

4.98665330982714e+005,-1.60824888387598e+001,-7.66260036766819e+000

5.05626439592555e+005,-1.60832067860900e+001,-7.76694400047810e+000

5.12684721657352e+005,-1.60839340831734e+001,-7.87270183869239e+000

5.19841533667984e+005,-1.60846708222277e+001,-7.97989388071086e+000

5.27098251051240e+005,-1.60854171017366e+001,-8.08854043422244e+000

5.34456268434150e+005,-1.60861730268729e+001,-8.19866211991113e+000

5.41916999912011e+005,-1.60869387099282e+001,-8.31027987511680e+000

