Freq.,VOut,OutRef

1.00000000000000e+004,-4.55679685272502e+000,-1.95438170809182e-002

1.01395947979003e+004,-4.55679753635868e+000,-1.98165520815154e-002

1.02811382665607e+004,-4.55679823919838e+000,-2.00930906430573e-002

1.04246576084112e+004,-4.55679896178217e+000,-2.03734857129226e-002

1.05701804056138e+004,-4.55679970466452e+000,-2.06577909616948e-002

1.07177346253629e+004,-4.55680046841533e+000,-2.09460608031662e-002

1.08673486252606e+004,-4.55680125361994e+000,-2.12383504070381e-002

1.10190511587661e+004,-4.55680206088086e+000,-2.15347157006896e-002

1.11728713807222e+004,-4.55680289081711e+000,-2.18352133868022e-002

1.13288388529580e+004,-4.55680374406518e+000,-2.21399009503868e-002

1.14869835499703e+004,-4.55680462127873e+000,-2.24488366754009e-002

1.16473358646846e+004,-4.55680552313042e+000,-2.27620796453966e-002

1.18099266142953e+004,-4.55680645031201e+000,-2.30796897579275e-002

1.19747870461893e+004,-4.55680740353349e+000,-2.34017277448592e-002

1.21419488439505e+004,-4.55680838352582e+000,-2.37282551684229e-002

1.23114441334492e+004,-4.55680939104022e+000,-2.40593344412166e-002

1.24833054890161e+004,-4.55681042684865e+000,-2.43950288381250e-002

1.26575659397028e+004,-4.55681149174481e+000,-2.47354025049243e-002

1.28342589756290e+004,-4.55681258654453e+000,-2.50805204721679e-002

1.30134185544193e+004,-4.55681371208619e+000,-2.54304486667559e-002

1.31950791077289e+004,-4.55681486923253e+000,-2.57852539182243e-002

1.33792755478611e+004,-4.55681605886960e+000,-2.61450039802475e-002

1.35660432744767e+004,-4.55681728190850e+000,-2.65097675370146e-002

1.37554181813974e+004,-4.55681853928611e+000,-2.68796142148418e-002

1.39474366635040e+004,-4.55681983196461e+000,-2.72546146027389e-002

1.41421356237309e+004,-4.55682116093396e+000,-2.76348402539095e-002

1.43395524801583e+004,-4.55682252721173e+000,-2.80203637039185e-002

1.45397251732031e+004,-4.55682393184384e+000,-2.84112584846641e-002

1.47426921729110e+004,-4.55682537590483e+000,-2.88075991402523e-002

1.49484924863494e+004,-4.55682686050000e+000,-2.92094612324654e-002

1.51571656651040e+004,-4.55682838676509e+000,-2.96169213610128e-002

1.53687518128801e+004,-4.55682995586842e+000,-3.00300571692599e-002

1.55832915932100e+004,-4.55683156900921e+000,-3.04489473743169e-002

1.58008262372675e+004,-4.55683322742214e+000,-3.08736717576083e-002

1.60213975517924e+004,-4.55683493237473e+000,-3.13043112013448e-002

1.62450479271247e+004,-4.55683668517122e+000,-3.17409476852114e-002

1.64718203453514e+004,-4.55683848715136e+000,-3.21836643134948e-002

1.67017583885674e+004,-4.55684033969232e+000,-3.26325453243567e-002

1.69349062472505e+004,-4.55684224420997e+000,-3.30876761030857e-002

1.71713087287550e+004,-4.55684420216018e+000,-3.35491431955289e-002

1.74110112659224e+004,-4.55684621503767e+000,-3.40170343373029e-002

1.76540599258131e+004,-4.55684828438082e+000,-3.44914384456404e-002

1.79005014185594e+004,-4.55685041177000e+000,-3.49724456520679e-002

1.81503831063432e+004,-4.55685259882921e+000,-3.54601473168833e-002

1.84037530124975e+004,-4.55685484722853e+000,-3.59546360340515e-002

1.86606598307361e+004,-4.55685715868417e+000,-3.64560056578626e-002

1.89211529345119e+004,-4.55685953495914e+000,-3.69643513207387e-002

1.91852823865052e+004,-4.55686197786751e+000,-3.74797694310936e-002

1.94530989482457e+004,-4.55686448927237e+000,-3.80023577116831e-002

1.97246540898671e+004,-4.55686707108878e+000,-3.85322152059120e-002

1.99999999999999e+004,-4.55686972528585e+000,-3.90694422899469e-002

2.02791895958005e+004,-4.55687245388601e+000,-3.96141407048250e-002

2.05622765331213e+004,-4.55687525896941e+000,-4.01664135530729e-002

2.08493152168224e+004,-4.55687814267299e+000,-4.07263653329971e-002

2.11403608112276e+004,-4.55688110719355e+000,-4.12941019459799e-002

2.14354692507258e+004,-4.55688415478852e+000,-4.18697307192415e-002

2.17346972505211e+004,-4.55688728777787e+000,-4.24533604226608e-002

2.20381023175322e+004,-4.55689050854645e+000,-4.30451012810086e-002

2.23457427614443e+004,-4.55689381954500e+000,-4.36450649985654e-002

2.26576777059159e+004,-4.55689722329171e+000,-4.42533647771449e-002

2.29739670999406e+004,-4.55690072237540e+000,-4.48701153262009e-002

2.32946717293690e+004,-4.55690431945594e+000,-4.54954328914811e-002

2.36198532285905e+004,-4.55690801726727e+000,-4.61294352652560e-002

2.39495740923785e+004,-4.55691181861837e+000,-4.67722418124210e-002

2.42838976879009e+004,-4.55691572639653e+000,-4.74239734817527e-002

2.46228882668982e+004,-4.55691974356865e+000,-4.80847528290227e-002

2.49666109780322e+004,-4.55692387318343e+000,-4.87547040360910e-002

2.53151318794055e+004,-4.55692811837388e+000,-4.94339529290580e-002

2.56685179512580e+004,-4.55693248235998e+000,-5.01226269937875e-002

2.60268371088386e+004,-4.55693696844917e+000,-5.08208554075397e-002

2.63901582154578e+004,-4.55694158004210e+000,-5.15287690378938e-002

2.67585510957221e+004,-4.55694632063133e+000,-5.22465004848386e-002

2.71320865489533e+004,-4.55695119380641e+000,-5.29741840850514e-002

2.75108363627948e+004,-4.55695620325619e+000,-5.37119559332898e-002

2.78948733270080e+004,-4.55696135276955e+000,-5.44599539140924e-002

2.82842712474618e+004,-4.55696664624149e+000,-5.52183177012938e-002

2.86791049603164e+004,-4.55697208767239e+000,-5.59871887986574e-002

2.90794503464061e+004,-4.55697768117295e+000,-5.67667105494174e-002

2.94853843458219e+004,-4.55698343096720e+000,-5.75570281529603e-002

2.98969849726987e+004,-4.55698934139457e+000,-5.83582886930125e-002

3.03143313302078e+004,-4.55699541691297e+000,-5.91706411573017e-002

3.07375036257601e+004,-4.55700166210344e+000,-5.99942364483202e-002

3.11665831864199e+004,-4.55700808167144e+000,-6.08292274158250e-002

3.16016524745350e+004,-4.55701468045174e+000,-6.16757688678886e-002

3.20427951035848e+004,-4.55702146341013e+000,-6.25340176006416e-002

3.24900958542493e+004,-4.55702843564958e+000,-6.34041324030515e-002

3.29436406907028e+004,-4.55703560241042e+000,-6.42862740979326e-002

3.34035167771346e+004,-4.55704296907769e+000,-6.51806055389925e-002

3.38698124945009e+004,-4.55705054118126e+000,-6.60872916537746e-002

3.43426174575100e+004,-4.55705832440232e+000,-6.70064994476752e-002

3.48220225318448e+004,-4.55706632457634e+000,-6.79383980291148e-002

3.53081198516260e+004,-4.55707454769726e+000,-6.88831586301095e-002

3.58010028371187e+004,-4.55708299992168e+000,-6.98409546241392e-002

3.63007662126863e+004,-4.55709168757216e+000,-7.08119615528022e-002

3.68075060249948e+004,-4.55710061714363e+000,-7.17963571315160e-002

3.73213196614721e+004,-4.55710979530544e+000,-7.27943212848532e-002

3.78423058690237e+004,-4.55711922890806e+000,-7.38060361514791e-002

3.83705647730104e+004,-4.55712892498596e+000,-7.48316861142848e-002

3.89061978964912e+004,-4.55713889076320e+000,-7.58714578146131e-002

3.94493081797342e+004,-4.55714913365890e+000,-7.69255401664284e-002

3.99999999999998e+004,-4.55715966129051e+000,-7.79941243855620e-002

4.05583791916010e+004,-4.55717048148038e+000,-7.90774039982821e-002

4.11245530662425e+004,-4.55718160226104e+000,-8.01755748590246e-002

4.16986304336447e+004,-4.55719303187919e+000,-8.12888351753923e-002

4.22807216224550e+004,-4.55720477880226e+000,-8.24173855189031e-002

4.28709385014515e+004,-4.55721685172374e+000,-8.35614288427384e-002

4.34693945010421e+004,-4.55722925956818e+000,-8.47211705013837e-002

4.40762046350642e+004,-4.55724201149831e+000,-8.58968182601512e-002

4.46914855228886e+004,-4.55725511691992e+000,-8.70885823151212e-002

4.53153554118317e+004,-4.55726858548834e+000,-8.82966753056557e-002

4.59479341998812e+004,-4.55728242711380e+000,-8.95213123348938e-002

4.65893434587380e+004,-4.55729665196942e+000,-9.07627109713325e-002

4.72397064571810e+004,-4.55731127049607e+000,-9.20210912726931e-002

4.78991481847569e+004,-4.55732629340940e+000,-9.32966757949730e-002

4.85677953758016e+004,-4.55734173170740e+000,-9.45896895987716e-002

4.92457765337964e+004,-4.55735759667511e+000,-9.59003602740402e-002

4.99332219560642e+004,-4.55737389989419e+000,-9.72289179329699e-002

5.06302637588109e+004,-4.55739065324802e+000,-9.85755952323383e-002

5.13370359025159e+004,-4.55740786893025e+000,-9.99406273740259e-002

5.20536742176771e+004,-4.55742555945083e+000,-1.01324252120052e-001

5.27803164309155e+004,-4.55744373764461e+000,-1.02726709793361e-001

5.35171021914442e+004,-4.55746241667898e+000,-1.04148243281965e-001

5.42641730979066e+004,-4.55748161006052e+000,-1.05589098051974e-001

5.50216727255895e+004,-4.55750133164382e+000,-1.07049522143832e-001

5.57897466540159e+004,-4.55752159563936e+000,-1.08529766176055e-001

5.65685424949235e+004,-4.55754241662189e+000,-1.10030083345127e-001

5.73582099206328e+004,-4.55756380953775e+000,-1.11550729430204e-001

5.81589006928121e+004,-4.55758578971444e+000,-1.13091962785422e-001

5.89707686916437e+004,-4.55760837286824e+000,-1.14654044341715e-001

5.97939699453972e+004,-4.55763157511405e+000,-1.16237237595504e-001

6.06286626604156e+004,-4.55765541297261e+000,-1.17841808611576e-001

6.14750072515201e+004,-4.55767990338023e+000,-1.19468026010778e-001

6.23331663728396e+004,-4.55770506369815e+000,-1.21116160958317e-001

6.32033049490698e+004,-4.55773091172142e+000,-1.22786487153796e-001

6.40855902071694e+004,-4.55775746568728e+000,-1.24479280824527e-001

6.49801917084985e+004,-4.55778474428594e+000,-1.26194820699805e-001

6.58872813814055e+004,-4.55781276666929e+000,-1.27933388000596e-001

6.68070335542691e+004,-4.55784155245974e+000,-1.29695266422718e-001

6.77396249890018e+004,-4.55787112176142e+000,-1.31480742107548e-001

6.86852349150199e+004,-4.55790149516855e+000,-1.33290103625567e-001

6.96440450636895e+004,-4.55793269377536e+000,-1.35123641950488e-001

7.06162397032520e+004,-4.55796473918682e+000,-1.36981650425048e-001

7.16020056742374e+004,-4.55799765352766e+000,-1.38864424735507e-001

7.26015324253724e+004,-4.55803145945294e+000,-1.40772262874848e-001

7.36150120499896e+004,-4.55806618015703e+000,-1.42705465112648e-001

7.46426393229441e+004,-4.55810183938493e+000,-1.44664333948303e-001

7.56846117380472e+004,-4.55813846144125e+000,-1.46649174074989e-001

7.67411295460207e+004,-4.55817607120054e+000,-1.48660292333946e-001

7.78123957929823e+004,-4.55821469411810e+000,-1.50697997661414e-001

7.88986163594682e+004,-4.55825435623798e+000,-1.52762601049567e-001

7.99999999999995e+004,-4.55829508420574e+000,-1.54854415475114e-001

8.11167583832018e+004,-4.55833690527536e+000,-1.56973755859418e-001

8.22491061324848e+004,-4.55837984732194e+000,-1.59120938990664e-001

8.33972608672892e+004,-4.55842393884843e+000,-1.61296283476376e-001

8.45614432449099e+004,-4.55846920899829e+000,-1.63500109656067e-001

8.57418770029029e+004,-4.55851568756262e+000,-1.65732739544720e-001

8.69387890020841e+004,-4.55856340499083e+000,-1.67994496746254e-001

8.81524092701283e+004,-4.55861239239921e+000,-1.70285706379180e-001

8.93829710457770e+004,-4.55866268157984e+000,-1.72606694989657e-001

9.06307108236633e+004,-4.55871430500979e+000,-1.74957790462695e-001

9.18958683997622e+004,-4.55876729585960e+000,-1.77339321927029e-001

9.31786869174758e+004,-4.55882168800089e+000,-1.79751619662304e-001

9.44794129143618e+004,-4.55887751601418e+000,-1.82195014997621e-001

9.57982963695136e+004,-4.55893481519784e+000,-1.84669840195248e-001

9.71355907516031e+004,-4.55899362157347e+000,-1.87176428351541e-001

9.84915530675926e+004,-4.55905397189330e+000,-1.89715113276167e-001

9.98664439121282e+004,-4.55911590364745e+000,-1.92286229365070e-001

1.01260527517622e+005,-4.55917945506788e+000,-1.94890111487078e-001

1.02674071805032e+005,-4.55924466513540e+000,-1.97527094840998e-001

1.04107348435354e+005,-4.55931157358332e+000,-2.00197514827236e-001

1.05560632861831e+005,-4.55938022090213e+000,-2.02901706902167e-001

1.07034204382888e+005,-4.55945064834197e+000,-2.05640006439194e-001

1.08528346195813e+005,-4.55952289791671e+000,-2.08412748567485e-001

1.10043345451179e+005,-4.55959701240526e+000,-2.11220268019596e-001

1.11579493308032e+005,-4.55967303535207e+000,-2.14062898974580e-001

1.13137084989847e+005,-4.55975101106835e+000,-2.16940974883494e-001

1.14716419841265e+005,-4.55983098463122e+000,-2.19854828298933e-001

1.16317801385624e+005,-4.55991300188152e+000,-2.22804790701174e-001

1.17941537383287e+005,-4.55999710942189e+000,-2.25791192309837e-001

1.19587939890794e+005,-4.56008335461223e+000,-2.28814361901301e-001

1.21257325320831e+005,-4.56017178556560e+000,-2.31874626609479e-001

1.22950014503040e+005,-4.56026245114109e+000,-2.34972311735356e-001

1.24666332745679e+005,-4.56035540093730e+000,-2.38107740535955e-001

1.26406609898139e+005,-4.56045068528268e+000,-2.41281234023054e-001

1.28171180414339e+005,-4.56054835522565e+000,-2.44493110747672e-001

1.29960383416997e+005,-4.56064846252267e+000,-2.47743686584420e-001

1.31774562762811e+005,-4.56075105962500e+000,-2.51033274508867e-001

1.33614067108538e+005,-4.56085619966312e+000,-2.54362184375710e-001

1.35479249978003e+005,-4.56096393643068e+000,-2.57730722685424e-001

1.37370469830040e+005,-4.56107432436522e+000,-2.61139192355779e-001

1.39288090127379e+005,-4.56118741852768e+000,-2.64587892485563e-001

1.41232479406504e+005,-4.56130327458029e+000,-2.68077118113793e-001

1.43204011348474e+005,-4.56142194876145e+000,-2.71607159981784e-001

1.45203064850745e+005,-4.56154349785939e+000,-2.75178304288068e-001

1.47230024099979e+005,-4.56166797918270e+000,-2.78790832445795e-001

1.49285278645888e+005,-4.56179545052973e+000,-2.82445020833550e-001

1.51369223476094e+005,-4.56192597015392e+000,-2.86141140554852e-001

1.53482259092041e+005,-4.56205959672838e+000,-2.89879457186186e-001

1.55624791585964e+005,-4.56219638930702e+000,-2.93660230533112e-001

1.57797232718936e+005,-4.56233640728281e+000,-2.97483714386645e-001

1.59999999999999e+005,-4.56247971034373e+000,-3.01350156280838e-001

1.62233516766403e+005,-4.56262635842628e+000,-3.05259797250535e-001

1.64498212264969e+005,-4.56277641166488e+000,-3.09212871598666e-001

1.66794521734578e+005,-4.56292993034030e+000,-3.13209606657469e-001

1.69122886489819e+005,-4.56308697482261e+000,-3.17250222570480e-001

1.71483754005805e+005,-4.56324760551310e+000,-3.21334932065453e-001

1.73877578004168e+005,-4.56341188278248e+000,-3.25463940240961e-001

1.76304818540256e+005,-4.56357986690516e+000,-3.29637444363664e-001

1.78765942091554e+005,-4.56375161799100e+000,-3.33855633672117e-001

1.81261421647326e+005,-4.56392719591393e+000,-3.38118689188358e-001

1.83791736799524e+005,-4.56410666023703e+000,-3.42426783543945e-001

1.86357373834951e+005,-4.56429007013345e+000,-3.46780080823510e-001

1.88958825828723e+005,-4.56447748430561e+000,-3.51178736411913e-001

1.91596592739027e+005,-4.56466896089957e+000,-3.55622896866725e-001

1.94271181503206e+005,-4.56486455741680e+000,-3.60112699801467e-001

1.96983106135185e+005,-4.56506433062249e+000,-3.64648273789794e-001

1.99732887824256e+005,-4.56526833644991e+000,-3.69229738291498e-001

2.02521055035243e+005,-4.56547662990264e+000,-3.73857203593855e-001

2.05348143610063e+005,-4.56568926495219e+000,-3.78530770783119e-001

2.08214696870707e+005,-4.56590629443343e+000,-3.83250531734625e-001

2.11121265723661e+005,-4.56612776993660e+000,-3.88016569131394e-001

2.14068408765776e+005,-4.56635374169574e+000,-3.92828956513320e-001

2.17056692391625e+005,-4.56658425847498e+000,-3.97687758350190e-001

2.20086690902357e+005,-4.56681936745180e+000,-4.02593030148103e-001

2.23158986616063e+005,-4.56705911409724e+000,-4.07544818590477e-001

2.26274169979693e+005,-4.56730354205377e+000,-4.12543161712213e-001

2.29432839682530e+005,-4.56755269301067e+000,-4.17588089111315e-001

2.32635602771247e+005,-4.56780660657838e+000,-4.22679622190051e-001

2.35883074766574e+005,-4.56806532015847e+000,-4.27817774452098e-001

2.39175879781588e+005,-4.56832886881484e+000,-4.33002551821045e-001

2.42514650641661e+005,-4.56859728514094e+000,-4.38233953018349e-001

2.45900029006080e+005,-4.56887059912725e+000,-4.43511969974007e-001

2.49332665491357e+005,-4.56914883802791e+000,-4.48836588285607e-001

2.52813219796278e+005,-4.56943202622517e+000,-4.54207787731231e-001

2.56342360828676e+005,-4.56972018509589e+000,-4.59625542816690e-001

2.59920766833993e+005,-4.57001333287640e+000,-4.65089823384018e-001

2.63549125525621e+005,-4.57031148452827e+000,-4.70600595266950e-001

2.67228134217075e+005,-4.57061465160538e+000,-4.76157820993281e-001

2.70958499956006e+005,-4.57092284212193e+000,-4.81761460544713e-001

2.74740939660078e+005,-4.57123606042200e+000,-4.87411472167356e-001

2.78576180254757e+005,-4.57155430705119e+000,-4.93107813237167e-001

2.82464958813007e+005,-4.57187757863186e+000,-4.98850441173260e-001

2.86408022696948e+005,-4.57220586773945e+000,-5.04639314416757e-001

2.90406129701488e+005,-4.57253916278494e+000,-5.10474393447574e-001

2.94460048199957e+005,-4.57287744789875e+000,-5.16355641871345e-001

2.98570557291775e+005,-4.57322070282093e+000,-5.22283027549201e-001

3.02738446952187e+005,-4.57356890279622e+000,-5.28256523780858e-001

3.06964518184081e+005,-4.57392201847400e+000,-5.34276110543799e-001

3.11249583171928e+005,-4.57428001581449e+000,-5.40341775782673e-001

3.15594465437872e+005,-4.57464285600271e+000,-5.46453516741782e-001

3.19999999999997e+005,-4.57501049536760e+000,-5.52611341355706e-001

3.24467033532806e+005,-4.57538288531079e+000,-5.58815269675858e-001

3.28996424529938e+005,-4.57575997224240e+000,-5.65065335346393e-001

3.33589043469155e+005,-4.57614169752527e+000,-5.71361587123710e-001

3.38245772979638e+005,-4.57652799742961e+000,-5.77704090426912e-001

3.42967508011610e+005,-4.57691880309575e+000,-5.84092928933840e-001

3.47755156008335e+005,-4.57731404050798e+000,-5.90528206203380e-001

3.52609637080511e+005,-4.57771363047821e+000,-5.97010047330848e-001

3.57531884183106e+005,-4.57811748864117e+000,-6.03538600627161e-001

3.62522843294651e+005,-4.57852552546000e+000,-6.10114039322051e-001

3.67583473599047e+005,-4.57893764624370e+000,-6.16736563286819e-001

3.72714747669902e+005,-4.57935375117671e+000,-6.23406400766358e-001

3.77917651657445e+005,-4.57977373536016e+000,-6.30123810125945e-001

3.83193185478053e+005,-4.58019748886566e+000,-6.36889081598298e-001

3.88542363006410e+005,-4.58062489680107e+000,-6.43702539036657e-001

3.93966212270369e+005,-4.58105583938945e+000,-6.50564541656670e-001

3.99465775648511e+005,-4.58149019206009e+000,-6.57475485773741e-001

4.05042110070485e+005,-4.58192782555243e+000,-6.64435806523488e-001

4.10696287220124e+005,-4.58236860603255e+000,-6.71445979561122e-001

4.16429393741414e+005,-4.58281239522210e+000,-6.78506522738557e-001

4.22242531447321e+005,-4.58325905053976e+000,-6.85617997747356e-001

4.28136817531551e+005,-4.58370842525410e+000,-6.92781011732166e-001

4.34113384783250e+005,-4.58416036864926e+000,-6.99996218857956e-001

4.40173381804713e+005,-4.58461472620209e+000,-7.07264321830468e-001

4.46317973232124e+005,-4.58507133976909e+000,-7.14586073376200e-001

4.52548339959385e+005,-4.58553004778618e+000,-7.21962277653040e-001

4.58865679365059e+005,-4.58599068547716e+000,-7.29393791611192e-001

4.65271205542494e+005,-4.58645308507212e+000,-7.36881526286706e-001

4.71766149533147e+005,-4.58691707603593e+000,-7.44426448022648e-001

4.78351759563174e+005,-4.58738248530345e+000,-7.52029579626023e-001

4.85029301283321e+005,-4.58784913752460e+000,-7.59692001437490e-001

4.91800058012158e+005,-4.58831685531478e+000,-7.67414852331283e-001

4.98665330982714e+005,-4.58878545951243e+000,-7.75199330626811e-001

5.05626439592555e+005,-4.58925476944175e+000,-7.83046694918125e-001

5.12684721657352e+005,-4.58972460318065e+000,-7.90958264811363e-001

5.19841533667984e+005,-4.59019477783184e+000,-7.98935421577161e-001

5.27098251051240e+005,-4.59066510979701e+000,-8.06979608710345e-001

5.34456268434150e+005,-4.59113541505345e+000,-8.15092332397001e-001

5.41916999912011e+005,-4.59160550943137e+000,-8.23275161887755e-001

