Freq.,VOut,OutRef

1.00000000000000e+004,-3.30504883877040e+000,-2.60560914800455e-002

1.01395947979003e+004,-3.30504956427489e+000,-2.64197290154855e-002

1.02811382665607e+004,-3.30505031016118e+000,-2.67884388368790e-002

1.04246576084112e+004,-3.30505107700080e+000,-2.71622915893761e-002

1.05701804056138e+004,-3.30505186538194e+000,-2.75413588925757e-002

1.07177346253629e+004,-3.30505267591006e+000,-2.79257133538951e-002

1.08673486252606e+004,-3.30505350920575e+000,-2.83154285982439e-002

1.10190511587661e+004,-3.30505436590873e+000,-2.87105792593102e-002

1.11728713807222e+004,-3.30505524667566e+000,-2.91112410104150e-002

1.13288388529580e+004,-3.30505615218163e+000,-2.95174905728759e-002

1.14869835499703e+004,-3.30505708312145e+000,-2.99294057239750e-002

1.16473358646846e+004,-3.30505804020826e+000,-3.03470653255883e-002

1.18099266142953e+004,-3.30505902417613e+000,-3.07705493236411e-002

1.19747870461893e+004,-3.30506003577887e+000,-3.11999387755492e-002

1.21419488439505e+004,-3.30506107579234e+000,-3.16353158538564e-002

1.23114441334492e+004,-3.30506214501321e+000,-3.20767638721673e-002

1.24833054890161e+004,-3.30506324426067e+000,-3.25243672948358e-002

1.26575659397028e+004,-3.30506437437719e+000,-3.29782117507262e-002

1.28342589756290e+004,-3.30506553622889e+000,-3.34383840508044e-002

1.30134185544193e+004,-3.30506673070563e+000,-3.39049722085867e-002

1.31950791077289e+004,-3.30506795872249e+000,-3.43780654499343e-002

1.33792755478611e+004,-3.30506922121984e+000,-3.48577542341538e-002

1.35660432744767e+004,-3.30507051916435e+000,-3.53441302689788e-002

1.37554181813974e+004,-3.30507185355091e+000,-3.58372865186692e-002

1.39474366635040e+004,-3.30507322540027e+000,-3.63373172420541e-002

1.41421356237309e+004,-3.30507463576329e+000,-3.68443179869241e-002

1.43395524801583e+004,-3.30507608571971e+000,-3.73583856201285e-002

1.45397251732031e+004,-3.30507757637879e+000,-3.78796183474514e-002

1.47426921729110e+004,-3.30507910888192e+000,-3.84081157189975e-002

1.49484924863494e+004,-3.30508068440129e+000,-3.89439786616738e-002

1.51571656651040e+004,-3.30508230414293e+000,-3.94873094835108e-002

1.53687518128801e+004,-3.30508396934587e+000,-4.00382119040628e-002

1.55832915932100e+004,-3.30508568128373e+000,-4.05967910679410e-002

1.58008262372675e+004,-3.30508744126591e+000,-4.11631535631733e-002

1.60213975517924e+004,-3.30508925063819e+000,-4.17374074420328e-002

1.62450479271247e+004,-3.30509111078424e+000,-4.23196622378857e-002

1.64718203453514e+004,-3.30509302312573e+000,-4.29100289909188e-002

1.67017583885674e+004,-3.30509498912485e+000,-4.35086202575284e-002

1.69349062472505e+004,-3.30509701028401e+000,-4.41155501410657e-002

1.71713087287550e+004,-3.30509908814754e+000,-4.47309343071883e-002

1.74110112659224e+004,-3.30510122430238e+000,-4.53548900076755e-002

1.76540599258131e+004,-3.30510342038091e+000,-4.59875360912772e-002

1.79005014185594e+004,-3.30510567805976e+000,-4.66289930397244e-002

1.81503831063432e+004,-3.30510799906319e+000,-4.72793829753303e-002

1.84037530124975e+004,-3.30511038516350e+000,-4.79388296879957e-002

1.86606598307361e+004,-3.30511283818091e+000,-4.86074586669156e-002

1.89211529345119e+004,-3.30511535998798e+000,-4.92853971022254e-002

1.91852823865052e+004,-3.30511795250839e+000,-4.99727739242027e-002

1.94530989482457e+004,-3.30512061772000e+000,-5.06697198152776e-002

1.97246540898671e+004,-3.30512335765557e+000,-5.13763672377398e-002

1.99999999999999e+004,-3.30512617440332e+000,-5.20928504624938e-002

2.02791895958005e+004,-3.30512907011154e+000,-5.28193055725849e-002

2.05622765331213e+004,-3.30513204698613e+000,-5.35558705133940e-002

2.08493152168224e+004,-3.30513510729521e+000,-5.43026850958488e-002

2.11403608112276e+004,-3.30513825337068e+000,-5.50598910223265e-002

2.14354692507258e+004,-3.30514148760732e+000,-5.58276319268347e-002

2.17346972505211e+004,-3.30514481246791e+000,-5.66060533787039e-002

2.20381023175322e+004,-3.30514823048318e+000,-5.73953029183825e-002

2.23457427614443e+004,-3.30515174425325e+000,-5.81955300851397e-002

2.26576777059159e+004,-3.30515535645155e+000,-5.90068864298666e-002

2.29739670999406e+004,-3.30515906982471e+000,-5.98295255536471e-002

2.32946717293690e+004,-3.30516288719524e+000,-6.06636031280733e-002

2.36198532285905e+004,-3.30516681146500e+000,-6.15092769132114e-002

2.39495740923785e+004,-3.30517084561471e+000,-6.23667067998896e-002

2.42838976879009e+004,-3.30517499270808e+000,-6.32360548237285e-002

2.46228882668982e+004,-3.30517925589427e+000,-6.41174851897984e-002

2.49666109780322e+004,-3.30518363840820e+000,-6.50111643126974e-002

2.53151318794055e+004,-3.30518814357501e+000,-6.59172608291888e-002

2.56685179512580e+004,-3.30519277481121e+000,-6.68359456343488e-002

2.60268371088386e+004,-3.30519753562736e+000,-6.77673919065779e-002

2.63901582154578e+004,-3.30520242963169e+000,-6.87117751292224e-002

2.67585510957221e+004,-3.30520746053118e+000,-6.96692731286755e-002

2.71320865489533e+004,-3.30521263213479e+000,-7.06400660966023e-002

2.75108363627948e+004,-3.30521794835699e+000,-7.16243366153011e-002

2.78948733270080e+004,-3.30522341321916e+000,-7.26222696945333e-002

2.82842712474618e+004,-3.30522903085368e+000,-7.36340527921834e-002

2.86791049603164e+004,-3.30523480550681e+000,-7.46598758431668e-002

2.90794503464061e+004,-3.30524074154023e+000,-7.56999312991558e-002

2.94853843458219e+004,-3.30524684343700e+000,-7.67544141377429e-002

2.98969849726987e+004,-3.30525311580166e+000,-7.78235219132588e-002

3.03143313302078e+004,-3.30525956336542e+000,-7.89074547731727e-002

3.07375036257601e+004,-3.30526619098934e+000,-8.00064154881551e-002

3.11665831864199e+004,-3.30527300366705e+000,-8.11206094871472e-002

3.16016524745350e+004,-3.30528000652886e+000,-8.22502448838289e-002

3.20427951035848e+004,-3.30528720484520e+000,-8.33955325063870e-002

3.24900958542493e+004,-3.30529460403030e+000,-8.45566859288272e-002

3.29436406907028e+004,-3.30530220964632e+000,-8.57339214983223e-002

3.34035167771346e+004,-3.30531002740684e+000,-8.69274583686347e-002

3.38698124945009e+004,-3.30531806318066e+000,-8.81375185311152e-002

3.43426174575100e+004,-3.30532632299654e+000,-8.93643268407439e-002

3.48220225318448e+004,-3.30533481304695e+000,-9.06081110497524e-002

3.53081198516260e+004,-3.30534353969265e+000,-9.18691018354319e-002

3.58010028371187e+004,-3.30535250946668e+000,-9.31475328342465e-002

3.63007662126863e+004,-3.30536172907894e+000,-9.44436406705584e-002

3.68075060249948e+004,-3.30537120542114e+000,-9.57576649852838e-002

3.73213196614721e+004,-3.30538094557116e+000,-9.70898484684761e-002

3.78423058690237e+004,-3.30539095679848e+000,-9.84404368861865e-002

3.83705647730104e+004,-3.30540124656761e+000,-9.98096791193270e-002

3.89061978964912e+004,-3.30541182254500e+000,-1.01197827182662e-001

3.94493081797342e+004,-3.30542269260315e+000,-1.02605136261565e-001

3.99999999999998e+004,-3.30543386482573e+000,-1.04031864742545e-001

4.05583791916010e+004,-3.30544534751395e+000,-1.05478274237085e-001

4.11245530662425e+004,-3.30545714919095e+000,-1.06944629618776e-001

4.16986304336447e+004,-3.30546927860805e+000,-1.08431199047912e-001

4.22807216224550e+004,-3.30548174475075e+000,-1.09938254000507e-001

4.28709385014515e+004,-3.30549455684392e+000,-1.11466069300091e-001

4.34693945010421e+004,-3.30550772435830e+000,-1.13014923144867e-001

4.40762046350642e+004,-3.30552125701675e+000,-1.14585097134058e-001

4.46914855228886e+004,-3.30553516480034e+000,-1.16176876298372e-001

4.53153554118317e+004,-3.30554945795444e+000,-1.17790549128047e-001

4.59479341998812e+004,-3.30556414699579e+000,-1.19426407599050e-001

4.65893434587380e+004,-3.30557924271912e+000,-1.21084747197256e-001

4.72397064571810e+004,-3.30559475620363e+000,-1.22765866949123e-001

4.78991481847569e+004,-3.30561069882060e+000,-1.24470069442802e-001

4.85677953758016e+004,-3.30562708223936e+000,-1.26197660860055e-001

4.92457765337964e+004,-3.30564391843597e+000,-1.27948950991422e-001

4.99332219560642e+004,-3.30566121969928e+000,-1.29724253269217e-001

5.06302637588109e+004,-3.30567899863918e+000,-1.31523884785629e-001

5.13370359025159e+004,-3.30569726819458e+000,-1.33348166313354e-001

5.20536742176771e+004,-3.30571604164011e+000,-1.35197422334143e-001

5.27803164309155e+004,-3.30573533259505e+000,-1.37071981053141e-001

5.35171021914442e+004,-3.30575515503081e+000,-1.38972174423405e-001

5.42641730979066e+004,-3.30577552327989e+000,-1.40898338159589e-001

5.50216727255895e+004,-3.30579645204331e+000,-1.42850811762294e-001

5.57897466540159e+004,-3.30581795639981e+000,-1.44829938530097e-001

5.65685424949235e+004,-3.30584005181383e+000,-1.46836065580927e-001

5.73582099206328e+004,-3.30586275414548e+000,-1.48869543857141e-001

5.81589006928121e+004,-3.30588607965812e+000,-1.50930728149783e-001

5.89707686916437e+004,-3.30591004502827e+000,-1.53019977103577e-001

5.97939699453972e+004,-3.30593466735435e+000,-1.55137653231201e-001

6.06286626604156e+004,-3.30595996416631e+000,-1.57284122920844e-001

6.14750072515201e+004,-3.30598595343474e+000,-1.59459756445406e-001

6.23331663728396e+004,-3.30601265358064e+000,-1.61664927968717e-001

6.32033049490698e+004,-3.30604008348548e+000,-1.63900015546211e-001

6.40855902071694e+004,-3.30606826250002e+000,-1.66165401135005e-001

6.49801917084985e+004,-3.30609721045483e+000,-1.68461470591120e-001

6.58872813814055e+004,-3.30612694767073e+000,-1.70788613665132e-001

6.68070335542691e+004,-3.30615749496783e+000,-1.73147224006849e-001

6.77396249890018e+004,-3.30618887367678e+000,-1.75537699153915e-001

6.86852349150199e+004,-3.30622110564804e+000,-1.77960440530193e-001

6.96440450636895e+004,-3.30625421326315e+000,-1.80415853432264e-001

7.06162397032520e+004,-3.30628821944476e+000,-1.82904347019369e-001

7.16020056742374e+004,-3.30632314766704e+000,-1.85426334299973e-001

7.26015324253724e+004,-3.30635902196606e+000,-1.87982232116773e-001

7.36150120499896e+004,-3.30639586695085e+000,-1.90572461124480e-001

7.46426393229441e+004,-3.30643370781385e+000,-1.93197445768512e-001

7.56846117380472e+004,-3.30647257034132e+000,-1.95857614262046e-001

7.67411295460207e+004,-3.30651248092380e+000,-1.98553398559873e-001

7.78123957929823e+004,-3.30655346656758e+000,-2.01285234321746e-001

7.88986163594682e+004,-3.30659555490412e+000,-2.04053560886952e-001

7.99999999999995e+004,-3.30663877420124e+000,-2.06858821232190e-001

8.11167583832018e+004,-3.30668315337389e+000,-2.09701461930938e-001

8.22491061324848e+004,-3.30672872199382e+000,-2.12581933113402e-001

8.33972608672892e+004,-3.30677551030022e+000,-2.15500688418208e-001

8.45614432449099e+004,-3.30682354921023e+000,-2.18458184938289e-001

8.57418770029029e+004,-3.30687287032824e+000,-2.21454883172712e-001

8.69387890020841e+004,-3.30692350595669e+000,-2.24491246960910e-001

8.81524092701283e+004,-3.30697548910473e+000,-2.27567743428225e-001

8.93829710457770e+004,-3.30702885349885e+000,-2.30684842911337e-001

9.06307108236633e+004,-3.30708363359082e+000,-2.33843018896162e-001

9.18958683997622e+004,-3.30713986456771e+000,-2.37042747936789e-001

9.31786869174758e+004,-3.30719758236041e+000,-2.40284509576183e-001

9.44794129143618e+004,-3.30725682365117e+000,-2.43568786269068e-001

9.57982963695136e+004,-3.30731762588250e+000,-2.46896063286642e-001

9.71355907516031e+004,-3.30738002726417e+000,-2.50266828626815e-001

9.84915530675926e+004,-3.30744406678035e+000,-2.53681572918467e-001

9.98664439121282e+004,-3.30750978419690e+000,-2.57140789312756e-001

1.01260527517622e+005,-3.30757722006635e+000,-2.60644973384727e-001

1.02674071805032e+005,-3.30764641573429e+000,-2.64194623014935e-001

1.04107348435354e+005,-3.30771741334412e+000,-2.67790238273442e-001

1.05560632861831e+005,-3.30779025584124e+000,-2.71432321299062e-001

1.07034204382888e+005,-3.30786498697665e+000,-2.75121376170192e-001

1.08528346195813e+005,-3.30794165130961e+000,-2.78857908775020e-001

1.10043345451179e+005,-3.30802029421007e+000,-2.82642426670476e-001

1.11579493308032e+005,-3.30810096185925e+000,-2.86475438942707e-001

1.13137084989847e+005,-3.30818370125043e+000,-2.90357456056131e-001

1.14716419841265e+005,-3.30826856018766e+000,-2.94288989703020e-001

1.16317801385624e+005,-3.30835558728422e+000,-2.98270552643423e-001

1.17941537383287e+005,-3.30844483195956e+000,-3.02302658543722e-001

1.19587939890794e+005,-3.30853634443540e+000,-3.06385821805525e-001

1.21257325320831e+005,-3.30863017573038e+000,-3.10520557393616e-001

1.22950014503040e+005,-3.30872637765295e+000,-3.14707380659777e-001

1.24666332745679e+005,-3.30882500279398e+000,-3.18946807155625e-001

1.26406609898139e+005,-3.30892610451665e+000,-3.23239352450171e-001

1.28171180414339e+005,-3.30902973694611e+000,-3.27585531932325e-001

1.29960383416997e+005,-3.30913595495575e+000,-3.31985860620787e-001

1.31774562762811e+005,-3.30924481415444e+000,-3.36440852955911e-001

1.33614067108538e+005,-3.30935637086845e+000,-3.40951022605792e-001

1.35479249978003e+005,-3.30947068212536e+000,-3.45516882248169e-001

1.37370469830040e+005,-3.30958780563300e+000,-3.50138943366007e-001

1.39288090127379e+005,-3.30970779975744e+000,-3.54817716034686e-001

1.41232479406504e+005,-3.30983072349968e+000,-3.59553708700786e-001

1.43204011348474e+005,-3.30995663646864e+000,-3.64347427968243e-001

1.45203064850745e+005,-3.31008559885346e+000,-3.69199378373425e-001

1.47230024099979e+005,-3.31021767139148e+000,-3.74110062170299e-001

1.49285278645888e+005,-3.31035291533559e+000,-3.79079979104697e-001

1.51369223476094e+005,-3.31049139241825e+000,-3.84109626191882e-001

1.53482259092041e+005,-3.31063316481250e+000,-3.89199497497915e-001

1.55624791585964e+005,-3.31077829509112e+000,-3.94350083916503e-001

1.57797232718936e+005,-3.31092684618192e+000,-3.99561872954021e-001

1.59999999999999e+005,-3.31107888132151e+000,-4.04835348509908e-001

1.62233516766403e+005,-3.31123446400452e+000,-4.10170990667806e-001

1.64498212264969e+005,-3.31139365793094e+000,-4.15569275485900e-001

1.66794521734578e+005,-3.31155652694993e+000,-4.21030674794776e-001

1.69122886489819e+005,-3.31172313500034e+000,-4.26555656000347e-001

1.71483754005805e+005,-3.31189354604799e+000,-4.32144681895185e-001

1.73877578004168e+005,-3.31206782401983e+000,-4.37798210477138e-001

1.76304818540256e+005,-3.31224603273448e+000,-4.43516694776596e-001

1.78765942091554e+005,-3.31242823582937e+000,-4.49300582696789e-001

1.81261421647326e+005,-3.31261449668450e+000,-4.55150316862808e-001

1.83791736799524e+005,-3.31280487834229e+000,-4.61066334487581e-001

1.86357373834951e+005,-3.31299944342493e+000,-4.67049067244894e-001

1.88958825828723e+005,-3.31319825404627e+000,-4.73098941170472e-001

1.91596592739027e+005,-3.31340137172241e+000,-4.79216376565237e-001

1.94271181503206e+005,-3.31360885727670e+000,-4.85401787930762e-001

1.96983106135185e+005,-3.31382077074256e+000,-4.91655583915590e-001

1.99732887824256e+005,-3.31403717126177e+000,-4.97978167288872e-001

2.02521055035243e+005,-3.31425811697985e+000,-5.04369934935367e-001

2.05348143610063e+005,-3.31448366493797e+000,-5.10831277874307e-001

2.08214696870707e+005,-3.31471387096082e+000,-5.17362581308580e-001

2.11121265723661e+005,-3.31494878954200e+000,-5.23964224698468e-001

2.14068408765776e+005,-3.31518847372559e+000,-5.30636581868150e-001

2.17056692391625e+005,-3.31543297498463e+000,-5.37380021144761e-001

2.20086690902357e+005,-3.31568234309707e+000,-5.44194905527738e-001

2.23158986616063e+005,-3.31593662601806e+000,-5.51081592899896e-001

2.26274169979693e+005,-3.31619586975062e+000,-5.58040436267384e-001

2.29432839682530e+005,-3.31646011821271e+000,-5.65071784047844e-001

2.32635602771247e+005,-3.31672941310274e+000,-5.72175980392995e-001

2.35883074766574e+005,-3.31700379376287e+000,-5.79353365556438e-001

2.39175879781588e+005,-3.31728329704011e+000,-5.86604276306911e-001

2.42514650641661e+005,-3.31756795714634e+000,-5.93929046385121e-001

2.45900029006080e+005,-3.31785780551669e+000,-6.01328007010163e-001

2.49332665491357e+005,-3.31815287066780e+000,-6.08801487431066e-001

2.52813219796278e+005,-3.31845317805352e+000,-6.16349815539360e-001

2.56342360828676e+005,-3.31875874992298e+000,-6.23973318517836e-001

2.59920766833993e+005,-3.31906960517646e+000,-6.31672323557334e-001

2.63549125525621e+005,-3.31938575922283e+000,-6.39447158621175e-001

2.67228134217075e+005,-3.31970722383841e+000,-6.47298153260966e-001

2.70958499956006e+005,-3.32003400702541e+000,-6.55225639500918e-001

2.74740939660078e+005,-3.32036611287412e+000,-6.63229952765886e-001

2.78576180254757e+005,-3.32070354142636e+000,-6.71311432874999e-001

2.82464958813007e+005,-3.32104628854156e+000,-6.79470425092143e-001

2.86408022696948e+005,-3.32139434576671e+000,-6.87707281232489e-001

2.90406129701488e+005,-3.32174770020950e+000,-6.96022360830573e-001

2.94460048199957e+005,-3.32210633441624e+000,-7.04416032362481e-001

2.98570557291775e+005,-3.32247022625419e+000,-7.12888674529978e-001

3.02738446952187e+005,-3.32283934879978e+000,-7.21440677597383e-001

3.06964518184081e+005,-3.32321367023209e+000,-7.30072444789113e-001

3.11249583171928e+005,-3.32359315373343e+000,-7.38784393738057e-001

3.15594465437872e+005,-3.32397775739675e+000,-7.47576957989623e-001

3.19999999999997e+005,-3.32436743414047e+000,-7.56450588557716e-001

3.24467033532806e+005,-3.32476213163147e+000,-7.65405755531023e-001

3.28996424529938e+005,-3.32516179221735e+000,-7.74442949724063e-001

3.33589043469155e+005,-3.32556635286657e+000,-7.83562684379414e-001

3.38245772979638e+005,-3.32597574511983e+000,-7.92765496906631e-001

3.42967508011610e+005,-3.32638989505062e+000,-8.02051950662071e-001

3.47755156008335e+005,-3.32680872323646e+000,-8.11422636769971e-001

3.52609637080511e+005,-3.32723214474193e+000,-8.20878175967904e-001

3.57531884183106e+005,-3.32766006911232e+000,-8.30419220489393e-001

3.62522843294651e+005,-3.32809240037994e+000,-8.40046455964345e-001

3.67583473599047e+005,-3.32852903708202e+000,-8.49760603345717e-001

3.72714747669902e+005,-3.32896987229157e+000,-8.59562420849547e-001

3.77917651657445e+005,-3.32941479366108e+000,-8.69452705905129e-001

3.83193185478053e+005,-3.32986368347852e+000,-8.79432297117553e-001

3.88542363006410e+005,-3.33031641873786e+000,-8.89502076222568e-001

3.93966212270369e+005,-3.33077287122143e+000,-8.99662970047261e-001

3.99465775648511e+005,-3.33123290759649e+000,-9.09915952456708e-001

4.05042110070485e+005,-3.33169638952544e+000,-9.20262046285008e-001

4.10696287220124e+005,-3.33216317378835e+000,-9.30702325251820e-001

4.16429393741414e+005,-3.33263311241973e+000,-9.41237915848816e-001

4.22242531447321e+005,-3.33310605285790e+000,-9.51869999197624e-001

4.28136817531551e+005,-3.33358183810716e+000,-9.62599812871606e-001

4.34113384783250e+005,-3.33406030691291e+000,-9.73428652674657e-001

4.40173381804713e+005,-3.33454129394856e+000,-9.84357874373705e-001

4.46317973232124e+005,-3.33502463001434e+000,-9.95388895382101e-001

4.52548339959385e+005,-3.33551014224807e+000,-1.00652319637763e+000

4.58865679365059e+005,-3.33599765434559e+000,-1.01776232286897e+000

4.65271205542494e+005,-3.33648698679277e+000,-1.02910788668609e+000

4.71766149533147e+005,-3.33697795710622e+000,-1.04056156740538e+000

4.78351759563174e+005,-3.33747038008331e+000,-1.05212511369598e+000

4.85029301283321e+005,-3.33796406806052e+000,-1.06380034458884e+000

4.91800058012158e+005,-3.33845883117887e+000,-1.07558915066198e+000

4.98665330982714e+005,-3.33895447765644e+000,-1.08749349513978e+000

5.05626439592555e+005,-3.33945081406647e+000,-1.09951541490314e+000

5.12684721657352e+005,-3.33994764562025e+000,-1.11165702140998e+000

5.19841533667984e+005,-3.34044477645422e+000,-1.12392050152057e+000

5.27098251051240e+005,-3.34094200992008e+000,-1.13630811822814e+000

5.34456268434150e+005,-3.34143914887703e+000,-1.14882221129525e+000

5.41916999912011e+005,-3.34193599598509e+000,-1.16146519779131e+000

