Freq.,VOut,OutRef

1.00000000000000e+004,-4.31361500188369e+001,-5.01256171086765e-001

1.01395947979003e+004,-4.31361548166616e+001,-5.08253203938413e-001

1.02811382665607e+004,-4.31361597493412e+001,-5.15347901432653e-001

1.04246576084112e+004,-4.31361648206652e+001,-5.22541626480494e-001

1.05701804056138e+004,-4.31361700345296e+001,-5.29835760999560e-001

1.07177346253629e+004,-4.31361753949400e+001,-5.37231706178147e-001

1.08673486252606e+004,-4.31361809060140e+001,-5.44730882746696e-001

1.10190511587661e+004,-4.31361865719854e+001,-5.52334731244058e-001

1.11728713807222e+004,-4.31361923972067e+001,-5.60044712299278e-001

1.13288388529580e+004,-4.31361983861526e+001,-5.67862306906341e-001

1.14869835499703e+004,-4.31362045434232e+001,-5.75789016710659e-001

1.16473358646846e+004,-4.31362108737485e+001,-5.83826364293783e-001

1.18099266142953e+004,-4.31362173819906e+001,-5.91975893466437e-001

1.19747870461893e+004,-4.31362240731485e+001,-6.00239169563446e-001

1.21419488439505e+004,-4.31362309523615e+001,-6.08617779742861e-001

1.23114441334492e+004,-4.31362380249130e+001,-6.17113333289004e-001

1.24833054890161e+004,-4.31362452962352e+001,-6.25727461920534e-001

1.26575659397028e+004,-4.31362527719125e+001,-6.34461820102121e-001

1.28342589756290e+004,-4.31362604576860e+001,-6.43318085361305e-001

1.30134185544193e+004,-4.31362683594582e+001,-6.52297958607480e-001

1.31950791077289e+004,-4.31362764832972e+001,-6.61403164459588e-001

1.33792755478611e+004,-4.31362848354415e+001,-6.70635451571635e-001

1.35660432744767e+004,-4.31362934223046e+001,-6.79996592970776e-001

1.37554181813974e+004,-4.31363022504801e+001,-6.89488386392557e-001

1.39474366635040e+004,-4.31363113267468e+001,-6.99112654626172e-001

1.41421356237309e+004,-4.31363206580736e+001,-7.08871245861204e-001

1.43395524801583e+004,-4.31363302516251e+001,-7.18766034040872e-001

1.45397251732031e+004,-4.31363401147667e+001,-7.28798919220545e-001

1.47426921729110e+004,-4.31363502550709e+001,-7.38971827927984e-001

1.49484924863494e+004,-4.31363606803225e+001,-7.49286713531664e-001

1.51571656651040e+004,-4.31363713985245e+001,-7.59745556615428e-001

1.53687518128801e+004,-4.31363824179050e+001,-7.70350365352681e-001

1.55832915932100e+004,-4.31363937469226e+001,-7.81103175890624e-001

1.58008262372675e+004,-4.31364053942732e+001,-7.92006052739278e-001

1.60213975517924e+004,-4.31364173688967e+001,-8.03061089162796e-001

1.62450479271247e+004,-4.31364296799840e+001,-8.14270407579784e-001

1.64718203453514e+004,-4.31364423369835e+001,-8.25636159966488e-001

1.67017583885674e+004,-4.31364553496087e+001,-8.37160528266959e-001

1.69349062472505e+004,-4.31364687278457e+001,-8.48845724807872e-001

1.71713087287550e+004,-4.31364824819606e+001,-8.60693992719819e-001

1.74110112659224e+004,-4.31364966225072e+001,-8.72707606364263e-001

1.76540599258131e+004,-4.31365111603355e+001,-8.84888871764664e-001

1.79005014185594e+004,-4.31365261065996e+001,-8.97240127046666e-001

1.81503831063432e+004,-4.31365414727663e+001,-9.09763742881062e-001

1.84037530124975e+004,-4.31365572706241e+001,-9.22462122934116e-001

1.86606598307361e+004,-4.31365735122916e+001,-9.35337704325737e-001

1.89211529345119e+004,-4.31365902102275e+001,-9.48392958090197e-001

1.91852823865052e+004,-4.31366073772392e+001,-9.61630389646582e-001

1.94530989482457e+004,-4.31366250264936e+001,-9.75052539272293e-001

1.97246540898671e+004,-4.31366431715262e+001,-9.88661982586979e-001

1.99999999999999e+004,-4.31366618262519e+001,-1.00246133103940e+000

2.02791895958005e+004,-4.31366810049755e+001,-1.01645323240308e+000

2.05622765331213e+004,-4.31367007224026e+001,-1.03064037127727e+000

2.08493152168224e+004,-4.31367209936506e+001,-1.04502546959520e+000

2.11403608112276e+004,-4.31367418342605e+001,-1.05961128714073e+000

2.14354692507258e+004,-4.31367632602084e+001,-1.07440062206861e+000

2.17346972505211e+004,-4.31367852879178e+001,-1.08939631143500e+000

2.20381023175322e+004,-4.31368079342725e+001,-1.10460123173243e+000

2.23457427614443e+004,-4.31368312166284e+001,-1.12001829943492e+000

2.26576777059159e+004,-4.31368551528277e+001,-1.13565047154810e+000

2.29739670999406e+004,-4.31368797612119e+001,-1.15150074616669e+000

2.32946717293690e+004,-4.31369050606358e+001,-1.16757216304094e+000

2.36198532285905e+004,-4.31369310704820e+001,-1.18386780414967e+000

2.39495740923785e+004,-4.31369578106752e+001,-1.20039079428129e+000

2.42838976879009e+004,-4.31369853016979e+001,-1.21714430162161e+000

2.46228882668982e+004,-4.31370135646051e+001,-1.23413153835159e+000

2.49666109780322e+004,-4.31370426210412e+001,-1.25135576125063e+000

2.53151318794055e+004,-4.31370724932555e+001,-1.26882027230980e+000

2.56685179512580e+004,-4.31371032041198e+001,-1.28652841935136e+000

2.60268371088386e+004,-4.31371347771450e+001,-1.30448359665825e+000

2.63901582154578e+004,-4.31371672364992e+001,-1.32268924561195e+000

2.67585510957221e+004,-4.31372006070264e+001,-1.34114885533592e+000

2.71320865489533e+004,-4.31372349142643e+001,-1.35986596335126e+000

2.75108363627948e+004,-4.31372701844645e+001,-1.37884415623890e+000

2.78948733270080e+004,-4.31373064446117e+001,-1.39808707031063e+000

2.82842712474618e+004,-4.31373437224444e+001,-1.41759839228996e+000

2.86791049603164e+004,-4.31373820464754e+001,-1.43738186000009e+000

2.90794503464061e+004,-4.31374214460140e+001,-1.45744126306289e+000

2.94853843458219e+004,-4.31374619511873e+001,-1.47778044360527e+000

2.98969849726987e+004,-4.31375035929633e+001,-1.49840329697641e+000

3.03143313302078e+004,-4.31375464031739e+001,-1.51931377247304e+000

3.07375036257601e+004,-4.31375904145394e+001,-1.54051587407390e+000

3.11665831864199e+004,-4.31376356606923e+001,-1.56201366118607e+000

3.16016524745350e+004,-4.31376821762031e+001,-1.58381124939641e+000

3.20427951035848e+004,-4.31377299966059e+001,-1.60591281123875e+000

3.24900958542493e+004,-4.31377791584254e+001,-1.62832257696543e+000

3.29436406907028e+004,-4.31378296992038e+001,-1.65104483533193e+000

3.34035167771346e+004,-4.31378816575294e+001,-1.67408393438965e+000

3.38698124945009e+004,-4.31379350730649e+001,-1.69744428229119e+000

3.43426174575100e+004,-4.31379899865777e+001,-1.72113034810337e+000

3.48220225318448e+004,-4.31380464399697e+001,-1.74514666263192e+000

3.53081198516260e+004,-4.31381044763090e+001,-1.76949781925702e+000

3.58010028371187e+004,-4.31381641398618e+001,-1.79418847477751e+000

3.63007662126863e+004,-4.31382254761254e+001,-1.81922335026780e+000

3.68075060249948e+004,-4.31382885318622e+001,-1.84460723194473e+000

3.73213196614721e+004,-4.31383533551343e+001,-1.87034497204480e+000

3.78423058690237e+004,-4.31384199953394e+001,-1.89644148971292e+000

3.83705647730104e+004,-4.31384885032470e+001,-1.92290177190277e+000

3.89061978964912e+004,-4.31385589310368e+001,-1.94973087428682e+000

3.94493081797342e+004,-4.31386313323367e+001,-1.97693392217772e+000

3.99999999999998e+004,-4.31387057622627e+001,-2.00451611146435e+000

4.05583791916010e+004,-4.31387822774598e+001,-2.03248270955386e+000

4.11245530662425e+004,-4.31388609361434e+001,-2.06083905632996e+000

4.16986304336447e+004,-4.31389417981429e+001,-2.08959056512023e+000

4.22807216224550e+004,-4.31390249249451e+001,-2.11874272367610e+000

4.28709385014515e+004,-4.31391103797398e+001,-2.14830109516469e+000

4.34693945010421e+004,-4.31391982274663e+001,-2.17827131917190e+000

4.40762046350642e+004,-4.31392885348606e+001,-2.20865911271940e+000

4.46914855228886e+004,-4.31393813705050e+001,-2.23947027129034e+000

4.53153554118317e+004,-4.31394768048779e+001,-2.27071066987130e+000

4.59479341998812e+004,-4.31395749104053e+001,-2.30238626400240e+000

4.65893434587380e+004,-4.31396757615138e+001,-2.33450309084451e+000

4.72397064571810e+004,-4.31397794346849e+001,-2.36706727025397e+000

4.78991481847569e+004,-4.31398860085106e+001,-2.40008500587334e+000

4.85677953758016e+004,-4.31399955637506e+001,-2.43356258623365e+000

4.92457765337964e+004,-4.31401081833906e+001,-2.46750638586847e+000

4.99332219560642e+004,-4.31402239527032e+001,-2.50192286644239e+000

5.06302637588109e+004,-4.31403429593085e+001,-2.53681857789197e+000

5.13370359025159e+004,-4.31404652932384e+001,-2.57220015957730e+000

5.20536742176771e+004,-4.31405910470010e+001,-2.60807434145033e+000

5.27803164309155e+004,-4.31407203156472e+001,-2.64444794523361e+000

5.35171021914442e+004,-4.31408531968390e+001,-2.68132788561255e+000

5.42641730979066e+004,-4.31409897909198e+001,-2.71872117144115e+000

5.50216727255895e+004,-4.31411302009859e+001,-2.75663490696139e+000

5.57897466540159e+004,-4.31412745329603e+001,-2.79507629303518e+000

5.65685424949235e+004,-4.31414228956680e+001,-2.83405262838933e+000

5.73582099206328e+004,-4.31415754009141e+001,-2.87357131087505e+000

5.81589006928121e+004,-4.31417321635620e+001,-2.91363983873999e+000

5.89707686916437e+004,-4.31418933016160e+001,-2.95426581191344e+000

5.97939699453972e+004,-4.31420589363040e+001,-2.99545693330612e+000

6.06286626604156e+004,-4.31422291921631e+001,-3.03722101012200e+000

6.14750072515201e+004,-4.31424041971273e+001,-3.07956595518533e+000

6.23331663728396e+004,-4.31425840826173e+001,-3.12249978827891e+000

6.32033049490698e+004,-4.31427689836325e+001,-3.16603063749867e+000

6.40855902071694e+004,-4.31429590388452e+001,-3.21016674061895e+000

6.49801917084985e+004,-4.31431543906974e+001,-3.25491644647388e+000

6.58872813814055e+004,-4.31433551854995e+001,-3.30028821635019e+000

6.68070335542691e+004,-4.31435615735318e+001,-3.34629062539497e+000

6.77396249890018e+004,-4.31437737091483e+001,-3.39293236403644e+000

6.86852349150199e+004,-4.31439917508832e+001,-3.44022223941787e+000

6.96440450636895e+004,-4.31442158615593e+001,-3.48816917684560e+000

7.06162397032520e+004,-4.31444462084001e+001,-3.53678222124997e+000

7.16020056742374e+004,-4.31446829631438e+001,-3.58607053865979e+000

7.26015324253724e+004,-4.31449263021596e+001,-3.63604341769081e+000

7.36150120499896e+004,-4.31451764065682e+001,-3.68671027104600e+000

7.46426393229441e+004,-4.31454334623637e+001,-3.73808063703052e+000

7.56846117380472e+004,-4.31456976605390e+001,-3.79016418107896e+000

7.67411295460207e+004,-4.31459691972140e+001,-3.84297069729687e+000

7.78123957929823e+004,-4.31462482737671e+001,-3.89651011001295e+000

7.88986163594682e+004,-4.31465350969687e+001,-3.95079247534713e+000

7.99999999999995e+004,-4.31468298791195e+001,-4.00582798278912e+000

8.11167583832018e+004,-4.31471328381899e+001,-4.06162695679112e+000

8.22491061324848e+004,-4.31474441979644e+001,-4.11819985837232e+000

8.33972608672892e+004,-4.31477641881880e+001,-4.17555728673671e+000

8.45614432449099e+004,-4.31480930447165e+001,-4.23370998090273e+000

8.57418770029029e+004,-4.31484310096697e+001,-4.29266882134530e+000

8.69387890020841e+004,-4.31487783315886e+001,-4.35244483165031e+000

8.81524092701283e+004,-4.31491352655956e+001,-4.41304918018023e+000

8.93829710457770e+004,-4.31495020735582e+001,-4.47449318175375e+000

9.06307108236633e+004,-4.31498790242564e+001,-4.53678829933405e+000

9.18958683997622e+004,-4.31502663935538e+001,-4.59994614573137e+000

9.31786869174758e+004,-4.31506644645718e+001,-4.66397848531575e+000

9.44794129143618e+004,-4.31510735278685e+001,-4.72889723574092e+000

9.57982963695136e+004,-4.31514938816203e+001,-4.79471446967985e+000

9.71355907516031e+004,-4.31519258318082e+001,-4.86144241657095e+000

9.84915530675926e+004,-4.31523696924069e+001,-4.92909346437513e+000

9.98664439121282e+004,-4.31528257855793e+001,-4.99768016134267e+000

1.01260527517622e+005,-4.31532944418733e+001,-5.06721521779218e+000

1.02674071805032e+005,-4.31537760004241e+001,-5.13771150789777e+000

1.04107348435354e+005,-4.31542708091594e+001,-5.20918207148764e+000

1.05560632861831e+005,-4.31547792250093e+001,-5.28164011585206e+000

1.07034204382888e+005,-4.31553016141203e+001,-5.35509901756044e+000

1.08528346195813e+005,-4.31558383520733e+001,-5.42957232428907e+000

1.10043345451179e+005,-4.31563898241060e+001,-5.50507375665685e+000

1.11579493308032e+005,-4.31569564253396e+001,-5.58161721007087e+000

1.13137084989847e+005,-4.31575385610097e+001,-5.65921675658108e+000

1.14716419841265e+005,-4.31581366467014e+001,-5.73788664674251e+000

1.16317801385624e+005,-4.31587511085896e+001,-5.81764131148766e+000

1.17941537383287e+005,-4.31593823836825e+001,-5.89849536400648e+000

1.19587939890794e+005,-4.31600309200710e+001,-5.98046360163366e+000

1.21257325320831e+005,-4.31606971771815e+001,-6.06356100774623e+000

1.22950014503040e+005,-4.31613816260337e+001,-6.14780275366731e+000

1.24666332745679e+005,-4.31620847495033e+001,-6.23320420057831e+000

1.26406609898139e+005,-4.31628070425890e+001,-6.31978090143874e+000

1.28171180414339e+005,-4.31635490126842e+001,-6.40754860291409e+000

1.29960383416997e+005,-4.31643111798539e+001,-6.49652324731098e+000

1.31774562762811e+005,-4.31650940771154e+001,-6.58672097451966e+000

1.33614067108538e+005,-4.31658982507256e+001,-6.67815812396342e+000

1.35479249978003e+005,-4.31667242604706e+001,-6.77085123655739e+000

1.37370469830040e+005,-4.31675726799631e+001,-6.86481705667284e+000

1.39288090127379e+005,-4.31684440969423e+001,-6.96007253410913e+000

1.41232479406504e+005,-4.31693391135808e+001,-7.05663482607408e+000

1.43204011348474e+005,-4.31702583467947e+001,-7.15452129917160e+000

1.45203064850745e+005,-4.31712024285606e+001,-7.25374953139619e+000

1.47230024099979e+005,-4.31721720062364e+001,-7.35433731413627e+000

1.49285278645888e+005,-4.31731677428882e+001,-7.45630265418441e+000

1.51369223476094e+005,-4.31741903176221e+001,-7.55966377575713e+000

1.53482259092041e+005,-4.31752404259216e+001,-7.66443912252122e+000

1.55624791585964e+005,-4.31763187799902e+001,-7.77064735963002e+000

1.57797232718936e+005,-4.31774261090997e+001,-7.87830737576820e+000

1.59999999999999e+005,-4.31785631599441e+001,-7.98743828520555e+000

1.62233516766403e+005,-4.31797306969995e+001,-8.09805942985970e+000

1.64498212264969e+005,-4.31809295028891e+001,-8.21019038137068e+000

1.66794521734578e+005,-4.31821603787546e+001,-8.32385094318359e+000

1.69122886489819e+005,-4.31834241446342e+001,-8.43906115264283e+000

1.71483754005805e+005,-4.31847216398454e+001,-8.55584128309834e+000

1.73877578004168e+005,-4.31860537233756e+001,-8.67421184602263e+000

1.76304818540256e+005,-4.31874212742782e+001,-8.79419359314016e+000

1.78765942091554e+005,-4.31888251920758e+001,-8.91580751857009e+000

1.81261421647326e+005,-4.31902663971703e+001,-9.03907486098167e+000

1.83791736799524e+005,-4.31917458312595e+001,-9.16401710576421e+000

1.86357373834951e+005,-4.31932644577618e+001,-9.29065598721150e+000

1.88958825828723e+005,-4.31948232622477e+001,-9.41901349072147e+000

1.91596592739027e+005,-4.31964232528796e+001,-9.54911185501103e+000

1.94271181503206e+005,-4.31980654608590e+001,-9.68097357434867e+000

1.96983106135185e+005,-4.31997509408830e+001,-9.81462140080284e+000

1.99732887824256e+005,-4.32014807716081e+001,-9.95007834650849e+000

2.02521055035243e+005,-4.32032560561244e+001,-1.00873676859522e+001

2.05348143610063e+005,-4.32050779224385e+001,-1.02265129582748e+001

2.08214696870707e+005,-4.32069475239658e+001,-1.03675379695947e+001

2.11121265723661e+005,-4.32088660400338e+001,-1.05104667953499e+001

2.14068408765776e+005,-4.32108346763955e+001,-1.06553237826601e+001

2.17056692391625e+005,-4.32128546657543e+001,-1.08021335527088e+001

2.20086690902357e+005,-4.32149272682999e+001,-1.09509210031464e+001

2.23158986616063e+005,-4.32170537722571e+001,-1.11017113105133e+001

2.26274169979693e+005,-4.32192354944468e+001,-1.12545299326829e+001

2.29432839682530e+005,-4.32214737808611e+001,-1.14094026113257e+001

2.32635602771247e+005,-4.32237700072512e+001,-1.15663553743919e+001

2.35883074766574e+005,-4.32261255797307e+001,-1.17254145386139e+001

2.39175879781588e+005,-4.32285419353949e+001,-1.18866067120269e+001

2.42514650641661e+005,-4.32310205429546e+001,-1.20499587965060e+001

2.45900029006080e+005,-4.32335629033880e+001,-1.22154979903203e+001

2.49332665491357e+005,-4.32361705506098e+001,-1.23832517907003e+001

2.52813219796278e+005,-4.32388450521589e+001,-1.25532479964187e+001

2.56342360828676e+005,-4.32415880099052e+001,-1.27255147103801e+001

2.59920766833993e+005,-4.32444010607768e+001,-1.29000803422198e+001

2.63549125525621e+005,-4.32472858775083e+001,-1.30769736109065e+001

2.67228134217075e+005,-4.32502441694113e+001,-1.32562235473462e+001

2.70958499956006e+005,-4.32532776831671e+001,-1.34378594969845e+001

2.74740939660078e+005,-4.32563882036446e+001,-1.36219111224011e+001

2.78576180254757e+005,-4.32595775547422e+001,-1.38084084058939e+001

2.82464958813007e+005,-4.32628476002561e+001,-1.39973816520459e+001

2.86408022696948e+005,-4.32662002447750e+001,-1.41888614902700e+001

2.90406129701488e+005,-4.32696374346035e+001,-1.43828788773247e+001

2.94460048199957e+005,-4.32731611587139e+001,-1.45794650997945e+001

2.98570557291775e+005,-4.32767734497284e+001,-1.47786517765272e+001

3.02738446952187e+005,-4.32804763849312e+001,-1.49804708610190e+001

3.06964518184081e+005,-4.32842720873139e+001,-1.51849546437414e+001

3.11249583171928e+005,-4.32881627266526e+001,-1.53921357543958e+001

3.15594465437872e+005,-4.32921505206196e+001,-1.56020471640919e+001

3.19999999999997e+005,-4.32962377359283e+001,-1.58147221874318e+001

3.24467033532806e+005,-4.33004266895154e+001,-1.60301944844962e+001

3.28996424529938e+005,-4.33047197497576e+001,-1.62484980627126e+001

3.33589043469155e+005,-4.33091193377260e+001,-1.64696672786000e+001

3.38245772979638e+005,-4.33136279284776e+001,-1.66937368393707e+001

3.42967508011610e+005,-4.33182480523852e+001,-1.69207418043779e+001

3.47755156008335e+005,-4.33229822965054e+001,-1.71507175863944e+001

3.52609637080511e+005,-4.33278333059856e+001,-1.73836999527051e+001

3.57531884183106e+005,-4.33328037855099e+001,-1.76197250259978e+001

3.62522843294651e+005,-4.33378965007845e+001,-1.78588292850365e+001

3.67583473599047e+005,-4.33431142800621e+001,-1.81010495650978e+001

3.72714747669902e+005,-4.33484600157053e+001,-1.83464230581545e+001

3.77917651657445e+005,-4.33539366657890e+001,-1.85949873127849e+001

3.83193185478053e+005,-4.33595472557410e+001,-1.88467802337937e+001

3.88542363006410e+005,-4.33652948800210e+001,-1.91018400815186e+001

3.93966212270369e+005,-4.33711827038354e+001,-1.93602054708086e+001

3.99465775648511e+005,-4.33772139648895e+001,-1.96219153696507e+001

4.05042110070485e+005,-4.33833919751741e+001,-1.98870090974254e+001

4.10696287220124e+005,-4.33897201227858e+001,-2.01555263227701e+001

4.16429393741414e+005,-4.33962018737798e+001,-2.04275070610310e+001

4.22242531447321e+005,-4.34028407740528e+001,-2.07029916712797e+001

4.28136817531551e+005,-4.34096404512554e+001,-2.09820208528784e+001

4.34113384783250e+005,-4.34166046167295e+001,-2.12646356415686e+001

4.40173381804713e+005,-4.34237370674716e+001,-2.15508774050653e+001

4.46317973232124e+005,-4.34310416881166e+001,-2.18407878381357e+001

4.52548339959385e+005,-4.34385224529411e+001,-2.21344089571438e+001

4.58865679365059e+005,-4.34461834278819e+001,-2.24317830940388e+001

4.65271205542494e+005,-4.34540287725685e+001,-2.27329528897726e+001

4.71766149533147e+005,-4.34620627423636e+001,-2.30379612871244e+001

4.78351759563174e+005,-4.34702896904101e+001,-2.33468515229164e+001

4.85029301283321e+005,-4.34787140696798e+001,-2.36596671196056e+001

4.91800058012158e+005,-4.34873404350199e+001,-2.39764518762325e+001

4.98665330982714e+005,-4.34961734451930e+001,-2.42972498587155e+001

5.05626439592555e+005,-4.35052178649064e+001,-2.46221053894753e+001

5.12684721657352e+005,-4.35144785668262e+001,-2.49510630363765e+001

5.19841533667984e+005,-4.35239605335701e+001,-2.52841676009775e+001

5.27098251051240e+005,-4.35336688596758e+001,-2.56214641060763e+001

5.34456268434150e+005,-4.35436087535387e+001,-2.59629977825453e+001

5.41916999912011e+005,-4.35537855393136e+001,-2.63088140554465e+001

