Freq.,VOut,OutRef

1.00000000000000e+004,-2.45225908628695e+001,-5.63713441028696e-001

1.01395947979003e+004,-2.45225962366832e+001,-5.71582306584747e-001

1.02811382665607e+004,-2.45226017615408e+001,-5.79561005488807e-001

1.04246576084112e+004,-2.45226074416866e+001,-5.87651070451822e-001

1.05701804056138e+004,-2.45226132814844e+001,-5.95854055557684e-001

1.07177346253629e+004,-2.45226192854205e+001,-6.04171536563695e-001

1.08673486252606e+004,-2.45226254581070e+001,-6.12605111199726e-001

1.10190511587661e+004,-2.45226318042857e+001,-6.21156399475522e-001

1.11728713807222e+004,-2.45226383288315e+001,-6.29827043988655e-001

1.13288388529580e+004,-2.45226450367563e+001,-6.38618710241366e-001

1.14869835499703e+004,-2.45226519332126e+001,-6.47533086957346e-001

1.16473358646846e+004,-2.45226590234978e+001,-6.56571886405220e-001

1.18099266142953e+004,-2.45226663130578e+001,-6.65736844726481e-001

1.19747870461893e+004,-2.45226738074915e+001,-6.75029722267094e-001

1.21419488439505e+004,-2.45226815125553e+001,-6.84452303912832e-001

1.23114441334492e+004,-2.45226894341668e+001,-6.94006399433551e-001

1.24833054890161e+004,-2.45226975784098e+001,-7.03693843826113e-001

1.26575659397028e+004,-2.45227059515393e+001,-7.13516497665672e-001

1.28342589756290e+004,-2.45227145599856e+001,-7.23476247462681e-001

1.30134185544193e+004,-2.45227234103595e+001,-7.33575006021994e-001

1.31950791077289e+004,-2.45227325094575e+001,-7.43814712808573e-001

1.33792755478611e+004,-2.45227418642667e+001,-7.54197334317817e-001

1.35660432744767e+004,-2.45227514819707e+001,-7.64724864450286e-001

1.37554181813974e+004,-2.45227613699545e+001,-7.75399324894035e-001

1.39474366635040e+004,-2.45227715358101e+001,-7.86222765509850e-001

1.41421356237309e+004,-2.45227819873432e+001,-7.97197264721407e-001

1.43395524801583e+004,-2.45227927325781e+001,-8.08324929912611e-001

1.45397251732031e+004,-2.45228037797644e+001,-8.19607897830781e-001

1.47426921729110e+004,-2.45228151373833e+001,-8.31048334991166e-001

1.49484924863494e+004,-2.45228268141539e+001,-8.42648438093333e-001

1.51571656651040e+004,-2.45228388190400e+001,-8.54410434437882e-001

1.53687518128801e+004,-2.45228511612568e+001,-8.66336582352400e-001

1.55832915932100e+004,-2.45228638502782e+001,-8.78429171619182e-001

1.58008262372675e+004,-2.45228768958439e+001,-8.90690523915030e-001

1.60213975517924e+004,-2.45228903079666e+001,-9.03122993251110e-001

1.62450479271247e+004,-2.45229040969401e+001,-9.15728966420679e-001

1.64718203453514e+004,-2.45229182733469e+001,-9.28510863455799e-001

1.67017583885674e+004,-2.45229328480662e+001,-9.41471138086058e-001

1.69349062472505e+004,-2.45229478322823e+001,-9.54612278205695e-001

1.71713087287550e+004,-2.45229632374935e+001,-9.67936806347109e-001

1.74110112659224e+004,-2.45229790755202e+001,-9.81447280160172e-001

1.76540599258131e+004,-2.45229953585142e+001,-9.95146292899439e-001

1.79005014185594e+004,-2.45230120989681e+001,-1.00903647391546e+000

1.81503831063432e+004,-2.45230293097251e+001,-1.02312048915519e+000

1.84037530124975e+004,-2.45230470039879e+001,-1.03740104166773e+000

1.86606598307361e+004,-2.45230651953295e+001,-1.05188087211848e+000

1.89211529345119e+004,-2.45230838977035e+001,-1.06656275930852e+000

1.91852823865052e+004,-2.45231031254544e+001,-1.08144952070100e+000

1.94530989482457e+004,-2.45231228933286e+001,-1.09654401295791e+000

1.97246540898671e+004,-2.45231432164861e+001,-1.11184913247845e+000

1.99999999999999e+004,-2.45231641105114e+001,-1.12736781595079e+000

2.02791895958005e+004,-2.45231855914255e+001,-1.14310304090671e+000

2.05622765331213e+004,-2.45232076756984e+001,-1.15905782628583e+000

2.08493152168224e+004,-2.45232303802616e+001,-1.17523523300695e+000

2.11403608112276e+004,-2.45232537225206e+001,-1.19163836454692e+000

2.14354692507258e+004,-2.45232777203683e+001,-1.20827036752881e+000

2.17346972505211e+004,-2.45233023921988e+001,-1.22513443231471e+000

2.20381023175322e+004,-2.45233277569211e+001,-1.24223379361053e+000

2.23457427614443e+004,-2.45233538339739e+001,-1.25957173107432e+000

2.26576777059159e+004,-2.45233806433395e+001,-1.27715156993855e+000

2.29739670999406e+004,-2.45234082055598e+001,-1.29497668163504e+000

2.32946717293690e+004,-2.45234365417519e+001,-1.31305048443105e+000

2.36198532285905e+004,-2.45234656736230e+001,-1.33137644407484e+000

2.39495740923785e+004,-2.45234956234886e+001,-1.34995807444632e+000

2.42838976879009e+004,-2.45235264142877e+001,-1.36879893822071e+000

2.46228882668982e+004,-2.45235580696012e+001,-1.38790264753783e+000

2.49666109780322e+004,-2.45235906136697e+001,-1.40727286468051e+000

2.53151318794055e+004,-2.45236240714114e+001,-1.42691330276406e+000

2.56685179512580e+004,-2.45236584684411e+001,-1.44682772643372e+000

2.60268371088386e+004,-2.45236938310900e+001,-1.46701995256966e+000

2.63901582154578e+004,-2.45237301864250e+001,-1.48749385100479e+000

2.67585510957221e+004,-2.45237675622694e+001,-1.50825334524859e+000

2.71320865489533e+004,-2.45238059872239e+001,-1.52930241322269e+000

2.75108363627948e+004,-2.45238454906884e+001,-1.55064508800508e+000

2.78948733270080e+004,-2.45238861028837e+001,-1.57228545858463e+000

2.82842712474618e+004,-2.45239278548748e+001,-1.59422767062546e+000

2.86791049603164e+004,-2.45239707785938e+001,-1.61647592724040e+000

2.90794503464061e+004,-2.45240149068642e+001,-1.63903448977593e+000

2.94853843458219e+004,-2.45240602734261e+001,-1.66190767860567e+000

2.98969849726987e+004,-2.45241069129604e+001,-1.68509987393668e+000

3.03143313302078e+004,-2.45241548611159e+001,-1.70861551662356e+000

3.07375036257601e+004,-2.45242041545358e+001,-1.73245910899415e+000

3.11665831864199e+004,-2.45242548308849e+001,-1.75663521568716e+000

3.16016524745350e+004,-2.45243069288784e+001,-1.78114846449702e+000

3.20427951035848e+004,-2.45243604883102e+001,-1.80600354723543e+000

3.24900958542493e+004,-2.45244155500836e+001,-1.83120522059665e+000

3.29436406907028e+004,-2.45244721562411e+001,-1.85675830704103e+000

3.34035167771346e+004,-2.45245303499963e+001,-1.88266769568442e+000

3.38698124945009e+004,-2.45245901757663e+001,-1.90893834320110e+000

3.43426174575100e+004,-2.45246516792046e+001,-1.93557527473928e+000

3.48220225318448e+004,-2.45247149072350e+001,-1.96258358484572e+000

3.53081198516260e+004,-2.45247799080871e+001,-1.98996843840401e+000

3.58010028371187e+004,-2.45248467313321e+001,-2.01773507158347e+000

3.63007662126863e+004,-2.45249154279194e+001,-2.04588879280015e+000

3.68075060249948e+004,-2.45249860502147e+001,-2.07443498369072e+000

3.73213196614721e+004,-2.45250586520390e+001,-2.10337910009726e+000

3.78423058690237e+004,-2.45251332887083e+001,-2.13272667306582e+000

3.83705647730104e+004,-2.45252100170751e+001,-2.16248330985537e+000

3.89061978964912e+004,-2.45252888955698e+001,-2.19265469496059e+000

3.94493081797342e+004,-2.45253699842447e+001,-2.22324659114714e+000

3.99999999999998e+004,-2.45254533448180e+001,-2.25426484049971e+000

4.05583791916010e+004,-2.45255390407192e+001,-2.28571536548165e+000

4.11245530662425e+004,-2.45256271371365e+001,-2.31760417000934e+000

4.16986304336447e+004,-2.45257177010642e+001,-2.34993734053779e+000

4.22807216224550e+004,-2.45258108013526e+001,-2.38272104716074e+000

4.28709385014515e+004,-2.45259065087580e+001,-2.41596154472365e+000

4.34693945010421e+004,-2.45260048959951e+001,-2.44966517394881e+000

4.40762046350642e+004,-2.45261060377903e+001,-2.48383836257619e+000

4.46914855228886e+004,-2.45262100109362e+001,-2.51848762651468e+000

4.53153554118317e+004,-2.45263168943480e+001,-2.55361957101067e+000

4.59479341998812e+004,-2.45264267691209e+001,-2.58924089182681e+000

4.65893434587380e+004,-2.45265397185896e+001,-2.62535837643637e+000

4.72397064571810e+004,-2.45266558283884e+001,-2.66197890523228e+000

4.78991481847569e+004,-2.45267751865142e+001,-2.69910945274742e+000

4.85677953758016e+004,-2.45268978833900e+001,-2.73675708889128e+000

4.92457765337964e+004,-2.45270240119303e+001,-2.77492898020085e+000

4.99332219560642e+004,-2.45271536676088e+001,-2.81363239110345e+000

5.06302637588109e+004,-2.45272869485269e+001,-2.85287468519596e+000

5.13370359025159e+004,-2.45274239554848e+001,-2.89266332653801e+000

5.20536742176771e+004,-2.45275647920542e+001,-2.93300588095867e+000

5.27803164309155e+004,-2.45277095646521e+001,-2.97391001737917e+000

5.35171021914442e+004,-2.45278583826180e+001,-3.01538350914753e+000

5.42641730979066e+004,-2.45280113582916e+001,-3.05743423539141e+000

5.50216727255895e+004,-2.45281686070931e+001,-3.10007018238233e+000

5.57897466540159e+004,-2.45283302476061e+001,-3.14329944491653e+000

5.65685424949235e+004,-2.45284964016612e+001,-3.18713022770968e+000

5.73582099206328e+004,-2.45286671944234e+001,-3.23157084680694e+000

5.81589006928121e+004,-2.45288427544799e+001,-3.27662973100703e+000

5.89707686916437e+004,-2.45290232139318e+001,-3.32231542330248e+000

5.97939699453972e+004,-2.45292087084869e+001,-3.36863658233292e+000

6.06286626604156e+004,-2.45293993775555e+001,-3.41560198385454e+000

6.14750072515201e+004,-2.45295953643480e+001,-3.46322052222494e+000

6.23331663728396e+004,-2.45297968159752e+001,-3.51150121190099e+000

6.32033049490698e+004,-2.45300038835517e+001,-3.56045318895287e+000

6.40855902071694e+004,-2.45302167223004e+001,-3.61008571259339e+000

6.49801917084985e+004,-2.45304354916611e+001,-3.66040816672102e+000

6.58872813814055e+004,-2.45306603554004e+001,-3.71143006147853e+000

6.68070335542691e+004,-2.45308914817254e+001,-3.76316103482666e+000

6.77396249890018e+004,-2.45311290433994e+001,-3.81561085413103e+000

6.86852349150199e+004,-2.45313732178607e+001,-3.86878941776703e+000

6.96440450636895e+004,-2.45316241873441e+001,-3.92270675673531e+000

7.06162397032520e+004,-2.45318821390055e+001,-3.97737303629536e+000

7.16020056742374e+004,-2.45321472650491e+001,-4.03279855761183e+000

7.26015324253724e+004,-2.45324197628582e+001,-4.08899375941647e+000

7.36150120499896e+004,-2.45326998351284e+001,-4.14596921968258e+000

7.46426393229441e+004,-2.45329876900043e+001,-4.20373565731723e+000

7.56846117380472e+004,-2.45332835412192e+001,-4.26230393386425e+000

7.67411295460207e+004,-2.45335876082387e+001,-4.32168505522301e+000

7.78123957929823e+004,-2.45339001164063e+001,-4.38189017338165e+000

7.88986163594682e+004,-2.45342212970933e+001,-4.44293058816389e+000

7.99999999999995e+004,-2.45345513878524e+001,-4.50481774898834e+000

8.11167583832018e+004,-2.45348906325736e+001,-4.56756325664423e+000

8.22491061324848e+004,-2.45352392816447e+001,-4.63117886507741e+000

8.33972608672892e+004,-2.45355975921148e+001,-4.69567648319286e+000

8.45614432449099e+004,-2.45359658278616e+001,-4.76106817666825e+000

8.57418770029029e+004,-2.45363442597627e+001,-4.82736616978102e+000

8.69387890020841e+004,-2.45367331658698e+001,-4.89458284724949e+000

8.81524092701283e+004,-2.45371328315880e+001,-4.96273075608472e+000

8.93829710457770e+004,-2.45375435498573e+001,-5.03182260745694e+000

9.06307108236633e+004,-2.45379656213399e+001,-5.10187127857173e+000

9.18958683997622e+004,-2.45383993546101e+001,-5.17288981456143e+000

9.31786869174758e+004,-2.45388450663482e+001,-5.24489143038611e+000

9.44794129143618e+004,-2.45393030815398e+001,-5.31788951274624e+000

9.57982963695136e+004,-2.45397737336780e+001,-5.39189762200821e+000

9.71355907516031e+004,-2.45402573649698e+001,-5.46692949413927e+000

9.84915530675926e+004,-2.45407543265477e+001,-5.54299904265583e+000

9.98664439121282e+004,-2.45412649786847e+001,-5.62012036057896e+000

1.01260527517622e+005,-2.45417896910139e+001,-5.69830772240359e+000

1.02674071805032e+005,-2.45423288427528e+001,-5.77757558607622e+000

1.04107348435354e+005,-2.45428828229313e+001,-5.85793859498300e+000

1.05560632861831e+005,-2.45434520306253e+001,-5.93941157994689e+000

1.07034204382888e+005,-2.45440368751936e+001,-6.02200956123505e+000

1.08528346195813e+005,-2.45446377765205e+001,-6.10574775057496e+000

1.10043345451179e+005,-2.45452551652621e+001,-6.19064155317913e+000

1.11579493308032e+005,-2.45458894830980e+001,-6.27670656977867e+000

1.13137084989847e+005,-2.45465411829871e+001,-6.36395859866507e+000

1.14716419841265e+005,-2.45472107294287e+001,-6.45241363774073e+000

1.16317801385624e+005,-2.45478985987280e+001,-6.54208788657557e+000

1.17941537383287e+005,-2.45486052792665e+001,-6.63299774847262e+000

1.19587939890794e+005,-2.45493312717777e+001,-6.72515983254125e+000

1.21257325320831e+005,-2.45500770896269e+001,-6.81859095577555e+000

1.22950014503040e+005,-2.45508432590965e+001,-6.91330814514136e+000

1.24666332745679e+005,-2.45516303196767e+001,-7.00932863966918e+000

1.26406609898139e+005,-2.45524388243597e+001,-7.10666989255322e+000

1.28171180414339e+005,-2.45532693399412e+001,-7.20534957325695e+000

1.29960383416997e+005,-2.45541224473244e+001,-7.30538556962464e+000

1.31774562762811e+005,-2.45549987418317e+001,-7.40679598999863e+000

1.33614067108538e+005,-2.45558988335195e+001,-7.50959916534234e+000

1.35479249978003e+005,-2.45568233474993e+001,-7.61381365136854e+000

1.37370469830040e+005,-2.45577729242638e+001,-7.71945823067380e+000

1.39288090127379e+005,-2.45587482200182e+001,-7.82655191487734e+000

1.41232479406504e+005,-2.45597499070167e+001,-7.93511394676555e+000

1.43204011348474e+005,-2.45607786739049e+001,-8.04516380244192e+000

1.45203064850745e+005,-2.45618352260663e+001,-8.15672119348239e+000

1.47230024099979e+005,-2.45629202859762e+001,-8.26980606909481e+000

1.49285278645888e+005,-2.45640345935592e+001,-8.38443861828516e+000

1.51369223476094e+005,-2.45651789065534e+001,-8.50063927202811e+000

1.53482259092041e+005,-2.45663540008797e+001,-8.61842870544319e+000

1.55624791585964e+005,-2.45675606710170e+001,-8.73782783997705e+000

1.57797232718936e+005,-2.45687997303829e+001,-8.85885784559071e+000

1.59999999999999e+005,-2.45700720117203e+001,-8.98154014295333e+000

1.62233516766403e+005,-2.45713783674901e+001,-9.10589640564206e+000

1.64498212264969e+005,-2.45727196702694e+001,-9.23194856234780e+000

1.66794521734578e+005,-2.45740968131561e+001,-9.35971879908898e+000

1.69122886489819e+005,-2.45755107101798e+001,-9.48922956143040e+000

1.71483754005805e+005,-2.45769622967184e+001,-9.62050355671150e+000

1.73877578004168e+005,-2.45784525299219e+001,-9.75356375628135e+000

1.76304818540256e+005,-2.45799823891418e+001,-9.88843339774196e+000

1.78765942091554e+005,-2.45815528763685e+001,-1.00251359872002e+001

1.81261421647326e+005,-2.45831650166742e+001,-1.01636953015293e+001

1.83791736799524e+005,-2.45848198586638e+001,-1.03041353906389e+001

1.86357373834951e+005,-2.45865184749326e+001,-1.04464805797564e+001

1.88958825828723e+005,-2.45882619625320e+001,-1.05907554717177e+001

1.91596592739027e+005,-2.45900514434421e+001,-1.07369849492697e+001

1.94271181503206e+005,-2.45918880650531e+001,-1.08851941773831e+001

1.96983106135185e+005,-2.45937730006544e+001,-1.10354086055791e+001

1.99732887824256e+005,-2.45957074499329e+001,-1.11876539702664e+001

2.02521055035243e+005,-2.45976926394793e+001,-1.13419562970913e+001

2.05348143610063e+005,-2.45997298233044e+001,-1.14983419033028e+001

2.08214696870707e+005,-2.46018202833647e+001,-1.16568374001278e+001

2.11121265723661e+005,-2.46039653300983e+001,-1.18174696951625e+001

2.14068408765776e+005,-2.46061663029709e+001,-1.19802659947768e+001

2.17056692391625e+005,-2.46084245710327e+001,-1.21452538065314e+001

2.20086690902357e+005,-2.46107415334877e+001,-1.23124609416100e+001

2.23158986616063e+005,-2.46131186202731e+001,-1.24819155172638e+001

2.26274169979693e+005,-2.46155572926534e+001,-1.26536459592702e+001

2.29432839682530e+005,-2.46180590438257e+001,-1.28276810044026e+001

2.32635602771247e+005,-2.46206253995400e+001,-1.30040497029132e+001

2.35883074766574e+005,-2.46232579187330e+001,-1.31827814210262e+001

2.39175879781588e+005,-2.46259581941777e+001,-1.33639058434406e+001

2.42514650641661e+005,-2.46287278531480e+001,-1.35474529758412e+001

2.45900029006080e+005,-2.46315685581003e+001,-1.37334531474167e+001

2.49332665491357e+005,-2.46344820073723e+001,-1.39219370133810e+001

2.52813219796278e+005,-2.46374699358999e+001,-1.41129355574984e+001

2.56342360828676e+005,-2.46405341159525e+001,-1.43064800946060e+001

2.59920766833993e+005,-2.46436763578888e+001,-1.45026022731346e+001

2.63549125525621e+005,-2.46468985109325e+001,-1.47013340776204e+001

2.67228134217075e+005,-2.46502024639704e+001,-1.49027078312066e+001

2.70958499956006e+005,-2.46535901463717e+001,-1.51067561981283e+001

2.74740939660078e+005,-2.46570635288319e+001,-1.53135121861779e+001

2.78576180254757e+005,-2.46606246242399e+001,-1.55230091491428e+001

2.82464958813007e+005,-2.46642754885712e+001,-1.57352807892117e+001

2.86408022696948e+005,-2.46680182218065e+001,-1.59503611593418e+001

2.90406129701488e+005,-2.46718549688777e+001,-1.61682846655796e+001

2.94460048199957e+005,-2.46757879206421e+001,-1.63890860693278e+001

2.98570557291775e+005,-2.46798193148853e+001,-1.66128004895493e+001

3.02738446952187e+005,-2.46839514373533e+001,-1.68394634048996e+001

3.06964518184081e+005,-2.46881866228165e+001,-1.70691106557775e+001

3.11249583171928e+005,-2.46925272561637e+001,-1.73017784462834e+001

3.15594465437872e+005,-2.46969757735296e+001,-1.75375033460733e+001

3.19999999999997e+005,-2.47015346634539e+001,-1.77763222920986e+001

3.24467033532806e+005,-2.47062064680751e+001,-1.80182725902153e+001

3.28996424529938e+005,-2.47109937843577e+001,-1.82633919166535e+001

3.33589043469155e+005,-2.47158992653541e+001,-1.85117183193284e+001

3.38245772979638e+005,-2.47209256215019e+001,-1.87632902189816e+001

3.42967508011610e+005,-2.47260756219560e+001,-1.90181464101350e+001

3.47755156008335e+005,-2.47313520959565e+001,-1.92763260618413e+001

3.52609637080511e+005,-2.47367579342317e+001,-1.95378687182140e+001

3.57531884183106e+005,-2.47422960904377e+001,-1.98028142987197e+001

3.62522843294651e+005,-2.47479695826316e+001,-2.00712030982139e+001

3.67583473599047e+005,-2.47537814947811e+001,-2.03430757867011e+001

3.72714747669902e+005,-2.47597349783077e+001,-2.06184734088012e+001

3.77917651657445e+005,-2.47658332536642e+001,-2.08974373828998e+001

3.83193185478053e+005,-2.47720796119438e+001,-2.11800094999650e+001

3.88542363006410e+005,-2.47784774165228e+001,-2.14662319220075e+001

3.93966212270369e+005,-2.47850301047322e+001,-2.17561471801639e+001

3.99465775648511e+005,-2.47917411895591e+001,-2.20497981723830e+001

4.05042110070485e+005,-2.47986142613752e+001,-2.23472281606915e+001

4.10696287220124e+005,-2.48056529896911e+001,-2.26484807680196e+001

4.16429393741414e+005,-2.48128611249333e+001,-2.29535999745637e+001

4.22242531447321e+005,-2.48202425002425e+001,-2.32626301136652e+001

4.28136817531551e+005,-2.48278010332902e+001,-2.35756158671852e+001

4.34113384783250e+005,-2.48355407281109e+001,-2.38926022603520e+001

4.40173381804713e+005,-2.48434656769461e+001,-2.42136346560632e+001

4.46317973232124e+005,-2.48515800620979e+001,-2.45387587486210e+001

4.52548339959385e+005,-2.48598881577880e+001,-2.48680205568814e+001

4.58865679365059e+005,-2.48683943320177e+001,-2.52014664167999e+001

4.65271205542494e+005,-2.48771030484262e+001,-2.55391429733534e+001

4.71766149533147e+005,-2.48860188681414e+001,-2.58810971718243e+001

4.78351759563174e+005,-2.48951464516197e+001,-2.62273762484284e+001

4.85029301283321e+005,-2.49044905604694e+001,-2.65780277202733e+001

4.91800058012158e+005,-2.49140560592527e+001,-2.69330993746343e+001

4.98665330982714e+005,-2.49238479172615e+001,-2.72926392575333e+001

5.05626439592555e+005,-2.49338712102609e+001,-2.76566956616134e+001

5.12684721657352e+005,-2.49441311221953e+001,-2.80253171132979e+001

5.19841533667984e+005,-2.49546329468501e+001,-2.83985523592270e+001

5.27098251051240e+005,-2.49653820894650e+001,-2.87764503519676e+001

5.34456268434150e+005,-2.49763840682900e+001,-2.91590602349911e+001

5.41916999912011e+005,-2.49876445160804e+001,-2.95464313269187e+001

