Freq.,VOut,OutRef

1.00000000000000e+004,-2.47216341172044e+001,-3.70891057150664e-001

1.01395947979003e+004,-2.47216368937944e+001,-3.76068338644250e-001

1.02811382665607e+004,-2.47216397484213e+001,-3.81317885302311e-001

1.04246576084112e+004,-2.47216426832778e+001,-3.86640705612093e-001

1.05701804056138e+004,-2.47216457006181e+001,-3.92037822125425e-001

1.07177346253629e+004,-2.47216488027595e+001,-3.97510271657744e-001

1.08673486252606e+004,-2.47216519920847e+001,-4.03059105481594e-001

1.10190511587661e+004,-2.47216552710428e+001,-4.08685389532830e-001

1.11728713807222e+004,-2.47216586421522e+001,-4.14390204609752e-001

1.13288388529580e+004,-2.47216621080016e+001,-4.20174646584673e-001

1.14869835499703e+004,-2.47216656712526e+001,-4.26039826610515e-001

1.16473358646846e+004,-2.47216693346414e+001,-4.31986871335521e-001

1.18099266142953e+004,-2.47216731009811e+001,-4.38016923116144e-001

1.19747870461893e+004,-2.47216769731637e+001,-4.44131140239024e-001

1.21419488439505e+004,-2.47216809541624e+001,-4.50330697139275e-001

1.23114441334492e+004,-2.47216850470337e+001,-4.56616784628042e-001

1.24833054890161e+004,-2.47216892549201e+001,-4.62990610117681e-001

1.26575659397028e+004,-2.47216935810522e+001,-4.69453397854703e-001

1.28342589756290e+004,-2.47216980287512e+001,-4.76006389152856e-001

1.30134185544193e+004,-2.47217026014318e+001,-4.82650842629255e-001

1.31950791077289e+004,-2.47217073026039e+001,-4.89388034448691e-001

1.33792755478611e+004,-2.47217121358765e+001,-4.96219258562169e-001

1.35660432744767e+004,-2.47217171049595e+001,-5.03145826959470e-001

1.37554181813974e+004,-2.47217222136670e+001,-5.10169069916248e-001

1.39474366635040e+004,-2.47217274659201e+001,-5.17290336249206e-001

1.41421356237309e+004,-2.47217328657498e+001,-5.24510993574407e-001

1.43395524801583e+004,-2.47217384173004e+001,-5.31832428566392e-001

1.45397251732031e+004,-2.47217441248322e+001,-5.39256047226484e-001

1.47426921729110e+004,-2.47217499927250e+001,-5.46783275146632e-001

1.49484924863494e+004,-2.47217560254817e+001,-5.54415557785389e-001

1.51571656651040e+004,-2.47217622277310e+001,-5.62154360742407e-001

1.53687518128801e+004,-2.47217686042317e+001,-5.70001170036341e-001

1.55832915932100e+004,-2.47217751598762e+001,-5.77957492390524e-001

1.58008262372675e+004,-2.47217818996937e+001,-5.86024855519334e-001

1.60213975517924e+004,-2.47217888288546e+001,-5.94204808419892e-001

1.62450479271247e+004,-2.47217959526739e+001,-6.02498921667397e-001

1.64718203453514e+004,-2.47218032766162e+001,-6.10908787712223e-001

1.67017583885674e+004,-2.47218108062987e+001,-6.19436021187145e-001

1.69349062472505e+004,-2.47218185474964e+001,-6.28082259211728e-001

1.71713087287550e+004,-2.47218265061458e+001,-6.36849161705357e-001

1.74110112659224e+004,-2.47218346883498e+001,-6.45738411703764e-001

1.76540599258131e+004,-2.47218431003825e+001,-6.54751715677472e-001

1.79005014185594e+004,-2.47218517486936e+001,-6.63890803858956e-001

1.81503831063432e+004,-2.47218606399135e+001,-6.73157430568969e-001

1.84037530124975e+004,-2.47218697808584e+001,-6.82553374552950e-001

1.86606598307361e+004,-2.47218791785350e+001,-6.92080439317502e-001

1.89211529345119e+004,-2.47218888401468e+001,-7.01740453473093e-001

1.91852823865052e+004,-2.47218987730985e+001,-7.11535271082603e-001

1.94530989482457e+004,-2.47219089850024e+001,-7.21466772012191e-001

1.97246540898671e+004,-2.47219194836837e+001,-7.31536862288915e-001

1.99999999999999e+004,-2.47219302771868e+001,-7.41747474462558e-001

2.02791895958005e+004,-2.47219413737810e+001,-7.52100567972366e-001

2.05622765331213e+004,-2.47219527819672e+001,-7.62598129517773e-001

2.08493152168224e+004,-2.47219645104841e+001,-7.73242173435727e-001

2.11403608112276e+004,-2.47219765683148e+001,-7.84034742083419e-001

2.14354692507258e+004,-2.47219889646936e+001,-7.94977906223776e-001

2.17346972505211e+004,-2.47220017091133e+001,-8.06073765417460e-001

2.20381023175322e+004,-2.47220148113320e+001,-8.17324448422047e-001

2.23457427614443e+004,-2.47220282813804e+001,-8.28732113593767e-001

2.26576777059159e+004,-2.47220421295701e+001,-8.40298949293881e-001

2.29739670999406e+004,-2.47220563665005e+001,-8.52027174306791e-001

2.32946717293690e+004,-2.47220710030673e+001,-8.63919038255404e-001

2.36198532285905e+004,-2.47220860504707e+001,-8.75976822027272e-001

2.39495740923785e+004,-2.47221015202237e+001,-8.88202838206317e-001

2.42838976879009e+004,-2.47221174241611e+001,-9.00599431506782e-001

2.46228882668982e+004,-2.47221337744478e+001,-9.13168979218477e-001

2.49666109780322e+004,-2.47221505835887e+001,-9.25913891652315e-001

2.53151318794055e+004,-2.47221678644374e+001,-9.38836612595707e-001

2.56685179512580e+004,-2.47221856302068e+001,-9.51939619772359e-001

2.60268371088386e+004,-2.47222038944779e+001,-9.65225425308566e-001

2.63901582154578e+004,-2.47222226712110e+001,-9.78696576206184e-001

2.67585510957221e+004,-2.47222419747555e+001,-9.92355654820757e-001

2.71320865489533e+004,-2.47222618198611e+001,-1.00620527934590e+000

2.75108363627948e+004,-2.47222822216887e+001,-1.02024810430736e+000

2.78948733270080e+004,-2.47223031958216e+001,-1.03448682105830e+000

2.82842712474618e+004,-2.47223247582777e+001,-1.04892415828485e+000

2.86791049603164e+004,-2.47223469255208e+001,-1.06356288251858e+000

2.90794503464061e+004,-2.47223697144735e+001,-1.07840579865205e+000

2.94853843458219e+004,-2.47223931425293e+001,-1.09345575046645e+000

2.98969849726987e+004,-2.47224172275662e+001,-1.10871562115990e+000

3.03143313302078e+004,-2.47224419879597e+001,-1.12418833388917e+000

3.07375036257601e+004,-2.47224674425962e+001,-1.13987685231410e+000

3.11665831864199e+004,-2.47224936108879e+001,-1.15578418114974e+000

3.16016524745350e+004,-2.47225205127863e+001,-1.17191336672693e+000

3.20427951035848e+004,-2.47225481687978e+001,-1.18826749755963e+000

3.24900958542493e+004,-2.47225765999985e+001,-1.20484970491984e+000

3.29436406907028e+004,-2.47226058280501e+001,-1.22166316341839e+000

3.34035167771346e+004,-2.47226358752155e+001,-1.23871109159538e+000

3.38698124945009e+004,-2.47226667643760e+001,-1.25599675251748e+000

3.43426174575100e+004,-2.47226985190476e+001,-1.27352345438285e+000

3.48220225318448e+004,-2.47227311633988e+001,-1.29129455113245e+000

3.53081198516260e+004,-2.47227647222682e+001,-1.30931344307178e+000

3.58010028371187e+004,-2.47227992211829e+001,-1.32758357749829e+000

3.63007662126863e+004,-2.47228346863773e+001,-1.34610844933911e+000

3.68075060249948e+004,-2.47228711448125e+001,-1.36489160179357e+000

3.73213196614721e+004,-2.47229086241958e+001,-1.38393662698731e+000

3.78423058690237e+004,-2.47229471530015e+001,-1.40324716663208e+000

3.83705647730104e+004,-2.47229867604915e+001,-1.42282691269547e+000

3.89061978964912e+004,-2.47230274767367e+001,-1.44267960807801e+000

3.94493081797342e+004,-2.47230693326391e+001,-1.46280904729998e+000

3.99999999999998e+004,-2.47231123599541e+001,-1.48321907719465e+000

4.05583791916010e+004,-2.47231565913139e+001,-1.50391359761382e+000

4.11245530662425e+004,-2.47232020602515e+001,-1.52489656213645e+000

4.16986304336447e+004,-2.47232488012245e+001,-1.54617197879263e+000

4.22807216224550e+004,-2.47232968496404e+001,-1.56774391079169e+000

4.28709385014515e+004,-2.47233462418822e+001,-1.58961647726012e+000

4.34693945010421e+004,-2.47233970153348e+001,-1.61179385399119e+000

4.40762046350642e+004,-2.47234492084120e+001,-1.63428027420052e+000

4.46914855228886e+004,-2.47235028605839e+001,-1.65708002929157e+000

4.53153554118317e+004,-2.47235580124057e+001,-1.68019746963224e+000

4.59479341998812e+004,-2.47236147055467e+001,-1.70363700533837e+000

4.65893434587380e+004,-2.47236729828197e+001,-1.72740310706812e+000

4.72397064571810e+004,-2.47237328882127e+001,-1.75150030682566e+000

4.78991481847569e+004,-2.47237944669189e+001,-1.77593319877417e+000

4.85677953758016e+004,-2.47238577653701e+001,-1.80070644005803e+000

4.92457765337964e+004,-2.47239228312692e+001,-1.82582475163579e+000

4.99332219560642e+004,-2.47239897136239e+001,-1.85129291912286e+000

5.06302637588109e+004,-2.47240584627818e+001,-1.87711579364225e+000

5.13370359025159e+004,-2.47241291304654e+001,-1.90329829268802e+000

5.20536742176771e+004,-2.47242017698092e+001,-1.92984540099557e+000

5.27803164309155e+004,-2.47242764353966e+001,-1.95676217142533e+000

5.35171021914442e+004,-2.47243531832982e+001,-1.98405372585354e+000

5.42641730979066e+004,-2.47244320711109e+001,-2.01172525607626e+000

5.50216727255895e+004,-2.47245131579986e+001,-2.03978202471899e+000

5.57897466540159e+004,-2.47245965047328e+001,-2.06822936616303e+000

5.65685424949235e+004,-2.47246821737350e+001,-2.09707268747537e+000

5.73582099206328e+004,-2.47247702291197e+001,-2.12631746935458e+000

5.81589006928121e+004,-2.47248607367388e+001,-2.15596926708359e+000

5.89707686916437e+004,-2.47249537642267e+001,-2.18603371149507e+000

5.97939699453972e+004,-2.47250493810468e+001,-2.21651650994526e+000

6.06286626604156e+004,-2.47251476585389e+001,-2.24742344730104e+000

6.14750072515201e+004,-2.47252486699678e+001,-2.27876038693525e+000

6.23331663728396e+004,-2.47253524905728e+001,-2.31053327173396e+000

6.32033049490698e+004,-2.47254591976190e+001,-2.34274812511489e+000

6.40855902071694e+004,-2.47255688704489e+001,-2.37541105205449e+000

6.49801917084985e+004,-2.47256815905361e+001,-2.40852824012873e+000

6.58872813814055e+004,-2.47257974415395e+001,-2.44210596056226e+000

6.68070335542691e+004,-2.47259165093591e+001,-2.47615056929047e+000

6.77396249890018e+004,-2.47260388821932e+001,-2.51066850802955e+000

6.86852349150199e+004,-2.47261646505964e+001,-2.54566630536183e+000

6.96440450636895e+004,-2.47262939075395e+001,-2.58115057782728e+000

7.06162397032520e+004,-2.47264267484702e+001,-2.61712803103034e+000

7.16020056742374e+004,-2.47265632713754e+001,-2.65360546075377e+000

7.26015324253724e+004,-2.47267035768452e+001,-2.69058975408701e+000

7.36150120499896e+004,-2.47268477681376e+001,-2.72808789056345e+000

7.46426393229441e+004,-2.47269959512448e+001,-2.76610694330852e+000

7.56846117380472e+004,-2.47271482349617e+001,-2.80465408020149e+000

7.67411295460207e+004,-2.47273047309546e+001,-2.84373656504443e+000

7.78123957929823e+004,-2.47274655538323e+001,-2.88336175874587e+000

7.88986163594682e+004,-2.47276308212182e+001,-2.92353712051348e+000

7.99999999999995e+004,-2.47278006538244e+001,-2.96427020905735e+000

8.11167583832018e+004,-2.47279751755266e+001,-3.00556868380740e+000

8.22491061324848e+004,-2.47281545134411e+001,-3.04744030613811e+000

8.33972608672892e+004,-2.47283387980032e+001,-3.08989294060655e+000

8.45614432449099e+004,-2.47285281630473e+001,-3.13293455620115e+000

8.57418770029029e+004,-2.47287227458879e+001,-3.17657322760211e+000

8.69387890020841e+004,-2.47289226874032e+001,-3.22081713645102e+000

8.81524092701283e+004,-2.47291281321197e+001,-3.26567457263358e+000

8.93829710457770e+004,-2.47293392282984e+001,-3.31115393557262e+000

9.06307108236633e+004,-2.47295561280227e+001,-3.35726373553241e+000

9.18958683997622e+004,-2.47297789872885e+001,-3.40401259493384e+000

9.31786869174758e+004,-2.47300079660948e+001,-3.45140924968031e+000

9.44794129143618e+004,-2.47302432285373e+001,-3.49946255049613e+000

9.57982963695136e+004,-2.47304849429020e+001,-3.54818146427528e+000

9.71355907516031e+004,-2.47307332817627e+001,-3.59757507543997e+000

9.84915530675926e+004,-2.47309884220779e+001,-3.64765258731349e+000

9.98664439121282e+004,-2.47312505452907e+001,-3.69842332350112e+000

1.01260527517622e+005,-2.47315198374307e+001,-3.74989672928404e+000

1.02674071805032e+005,-2.47317964892158e+001,-3.80208237302416e+000

1.04107348435354e+005,-2.47320806961580e+001,-3.85498994757980e+000

1.05560632861831e+005,-2.47323726586692e+001,-3.90862927173391e+000

1.07034204382888e+005,-2.47326725821692e+001,-3.96301029163196e+000

1.08528346195813e+005,-2.47329806771955e+001,-4.01814308223337e+000

1.10043345451179e+005,-2.47332971595150e+001,-4.07403784877228e+000

1.11579493308032e+005,-2.47336222502367e+001,-4.13070492823203e+000

1.13137084989847e+005,-2.47339561759263e+001,-4.18815479083048e+000

1.14716419841265e+005,-2.47342991687231e+001,-4.24639804151708e+000

1.16317801385624e+005,-2.47346514664576e+001,-4.30544542148291e+000

1.17941537383287e+005,-2.47350133127715e+001,-4.36530780968121e+000

1.19587939890794e+005,-2.47353849572386e+001,-4.42599622436285e+000

1.21257325320831e+005,-2.47357666554878e+001,-4.48752182462194e+000

1.22950014503040e+005,-2.47361586693282e+001,-4.54989591195593e+000

1.24666332745679e+005,-2.47365612668742e+001,-4.61312993183754e+000

1.26406609898139e+005,-2.47369747226739e+001,-4.67723547530144e+000

1.28171180414339e+005,-2.47373993178380e+001,-4.74222428054369e+000

1.29960383416997e+005,-2.47378353401705e+001,-4.80810823453422e+000

1.31774562762811e+005,-2.47382830843013e+001,-4.87489937464619e+000

1.33614067108538e+005,-2.47387428518195e+001,-4.94260989029771e+000

1.35479249978003e+005,-2.47392149514091e+001,-5.01125212460960e+000

1.37370469830040e+005,-2.47396996989854e+001,-5.08083857607899e+000

1.39288090127379e+005,-2.47401974178335e+001,-5.15138190026855e+000

1.41232479406504e+005,-2.47407084387478e+001,-5.22289491151232e+000

1.43204011348474e+005,-2.47412331001729e+001,-5.29539058464020e+000

1.45203064850745e+005,-2.47417717483468e+001,-5.36888205671759e+000

1.47230024099979e+005,-2.47423247374439e+001,-5.44338262880583e+000

1.49285278645888e+005,-2.47428924297210e+001,-5.51890576774115e+000

1.51369223476094e+005,-2.47434751956642e+001,-5.59546510793340e+000

1.53482259092041e+005,-2.47440734141364e+001,-5.67307445318616e+000

1.55624791585964e+005,-2.47446874725278e+001,-5.75174777853764e+000

1.57797232718936e+005,-2.47453177669061e+001,-5.83149923212526e+000

1.59999999999999e+005,-2.47459647021700e+001,-5.91234313707294e+000

1.62233516766403e+005,-2.47466286922022e+001,-5.99429399340362e+000

1.64498212264969e+005,-2.47473101600258e+001,-6.07736647997713e+000

1.66794521734578e+005,-2.47480095379607e+001,-6.16157545645478e+000

1.69122886489819e+005,-2.47487272677829e+001,-6.24693596529282e+000

1.71483754005805e+005,-2.47494638008844e+001,-6.33346323376400e+000

1.73877578004168e+005,-2.47502195984355e+001,-6.42117267601070e+000

1.76304818540256e+005,-2.47509951315487e+001,-6.51007989512965e+000

1.78765942091554e+005,-2.47517908814443e+001,-6.60020068529043e+000

1.81261421647326e+005,-2.47526073396183e+001,-6.69155103388776e+000

1.83791736799524e+005,-2.47534450080127e+001,-6.78414712373224e+000

1.86357373834951e+005,-2.47543043991871e+001,-6.87800533527660e+000

1.88958825828723e+005,-2.47551860364937e+001,-6.97314224888433e+000

1.91596592739027e+005,-2.47560904542544e+001,-7.06957464713642e+000

1.94271181503206e+005,-2.47570181979408e+001,-7.16731951718452e+000

1.96983106135185e+005,-2.47579698243572e+001,-7.26639405314610e+000

1.99732887824256e+005,-2.47589459018267e+001,-7.36681565854777e+000

2.02521055035243e+005,-2.47599470103811e+001,-7.46860194881592e+000

2.05348143610063e+005,-2.47609737419541e+001,-7.57177075381870e+000

2.08214696870707e+005,-2.47620267005789e+001,-7.67634012045802e+000

2.11121265723661e+005,-2.47631065025900e+001,-7.78232831531748e+000

2.14068408765776e+005,-2.47642137768299e+001,-7.88975382736421e+000

2.17056692391625e+005,-2.47653491648611e+001,-7.99863537070894e+000

2.20086690902357e+005,-2.47665133211827e+001,-8.10899188742520e+000

2.23158986616063e+005,-2.47677069134546e+001,-8.22084255042811e+000

2.26274169979693e+005,-2.47689306227265e+001,-8.33420676641743e+000

2.29432839682530e+005,-2.47701851436752e+001,-8.44910417888348e+000

2.32635602771247e+005,-2.47714711848486e+001,-8.56555467117886e+000

2.35883074766574e+005,-2.47727894689182e+001,-8.68357836965704e+000

2.39175879781588e+005,-2.47741407329401e+001,-8.80319564687968e+000

2.42514650641661e+005,-2.47755257286257e+001,-8.92442712489243e+000

2.45900029006080e+005,-2.47769452226219e+001,-9.04729367857197e+000

2.49332665491357e+005,-2.47783999968025e+001,-9.17181643904357e+000

2.52813219796278e+005,-2.47798908485712e+001,-9.29801679717085e+000

2.56342360828676e+005,-2.47814185911763e+001,-9.42591640711797e+000

2.59920766833993e+005,-2.47829840540392e+001,-9.55553718998340e+000

2.63549125525621e+005,-2.47845880830962e+001,-9.68690133750708e+000

2.67228134217075e+005,-2.47862315411559e+001,-9.82003131584911e+000

2.70958499956006e+005,-2.47879153082718e+001,-9.95494986943943e+000

2.74740939660078e+005,-2.47896402821316e+001,-1.00916800248990e+001

2.78576180254757e+005,-2.47914073784646e+001,-1.02302450950288e+001

2.82464958813007e+005,-2.47932175314673e+001,-1.03706686828678e+001

2.86408022696948e+005,-2.47950716942492e+001,-1.05129746858147e+001

2.90406129701488e+005,-2.47969708392984e+001,-1.06571872998142e+001

2.94460048199957e+005,-2.47989159589705e+001,-1.08033310236022e+001

2.98570557291775e+005,-2.48009080659986e+001,-1.09514306630090e+001

3.02738446952187e+005,-2.48029481940286e+001,-1.11015113353134e+001

3.06964518184081e+005,-2.48050373981788e+001,-1.12535984736487e+001

3.11249583171928e+005,-2.48071767556257e+001,-1.14077178314495e+001

3.15594465437872e+005,-2.48093673662170e+001,-1.15638954869392e+001

3.19999999999997e+005,-2.48116103531130e+001,-1.17221578476500e+001

3.24467033532806e+005,-2.48139068634572e+001,-1.18825316549687e+001

3.28996424529938e+005,-2.48162580690768e+001,-1.20450439887029e+001

3.33589043469155e+005,-2.48186651672155e+001,-1.22097222716600e+001

3.38245772979638e+005,-2.48211293812976e+001,-1.23765942742285e+001

3.42967508011610e+005,-2.48236519617264e+001,-1.25456881189574e+001

3.47755156008335e+005,-2.48262341867155e+001,-1.27170322851207e+001

3.52609637080511e+005,-2.48288773631570e+001,-1.28906556132595e+001

3.57531884183106e+005,-2.48315828275234e+001,-1.30665873096906e+001

3.62522843294651e+005,-2.48343519468084e+001,-1.32448569509718e+001

3.67583473599047e+005,-2.48371861195026e+001,-1.34254944883115e+001

3.72714747669902e+005,-2.48400867766095e+001,-1.36085302519122e+001

3.77917651657445e+005,-2.48430553826982e+001,-1.37939949552343e+001

3.83193185478053e+005,-2.48460934369957e+001,-1.39819196991687e+001

3.88542363006410e+005,-2.48492024745184e+001,-1.41723359761050e+001

3.93966212270369e+005,-2.48523840672432e+001,-1.43652756738812e+001

3.99465775648511e+005,-2.48556398253180e+001,-1.45607710796013e+001

4.05042110070485e+005,-2.48589713983123e+001,-1.47588548833077e+001

4.10696287220124e+005,-2.48623804765074e+001,-1.49595601814917e+001

4.16429393741414e+005,-2.48658687922260e+001,-1.51629204804308e+001

4.22242531447321e+005,-2.48694381212011e+001,-1.53689696993334e+001

4.28136817531551e+005,-2.48730902839841e+001,-1.55777421732814e+001

4.34113384783250e+005,-2.48768271473910e+001,-1.57892726559499e+001

4.40173381804713e+005,-2.48806506259862e+001,-1.60035963220928e+001

4.46317973232124e+005,-2.48845626836041e+001,-1.62207487697778e+001

4.52548339959385e+005,-2.48885653349053e+001,-1.64407660223546e+001

4.58865679365059e+005,-2.48926606469697e+001,-1.66636845301430e+001

4.65271205542494e+005,-2.48968507409221e+001,-1.68895411718244e+001

4.71766149533147e+005,-2.49011377935915e+001,-1.71183732555226e+001

4.78351759563174e+005,-2.49055240392009e+001,-1.73502185195581e+001

4.85029301283321e+005,-2.49100117710881e+001,-1.75851151328647e+001

4.91800058012158e+005,-2.49146033434532e+001,-1.78231016950499e+001

4.98665330982714e+005,-2.49193011731343e+001,-1.80642172360882e+001

5.05626439592555e+005,-2.49241077414066e+001,-1.83085012156345e+001

5.12684721657352e+005,-2.49290255958046e+001,-1.85559935219418e+001

5.19841533667984e+005,-2.49340573519655e+001,-1.88067344703740e+001

5.27098251051240e+005,-2.49392056954903e+001,-1.90607648014990e+001

5.34456268434150e+005,-2.49444733838221e+001,-1.93181256787527e+001

5.41916999912011e+005,-2.49498632481375e+001,-1.95788586856628e+001

