Freq.,VOut,OutRef

1.00000000000000e+004,-1.84650982659022e+001,-8.67489735088046e-002

1.01395947979003e+004,-1.84650996318989e+001,-8.79597766898240e-002

1.02811382665607e+004,-1.84651010362712e+001,-8.91874749508127e-002

1.04246576084112e+004,-1.84651024800965e+001,-9.04323038356749e-002

1.05701804056138e+004,-1.84651039644824e+001,-9.16945021646574e-002

1.07177346253629e+004,-1.84651054905671e+001,-9.29743120796780e-002

1.08673486252606e+004,-1.84651070595216e+001,-9.42719790864833e-002

1.10190511587661e+004,-1.84651086725488e+001,-9.55877521054660e-002

1.11728713807222e+004,-1.84651103308854e+001,-9.69218835186843e-002

1.13288388529580e+004,-1.84651120358036e+001,-9.82746292096474e-002

1.14869835499703e+004,-1.84651137886104e+001,-9.96462486212252e-002

1.16473358646846e+004,-1.84651155906497e+001,-1.01037004802106e-001

1.18099266142953e+004,-1.84651174433030e+001,-1.02447164452435e-001

1.19747870461893e+004,-1.84651193479904e+001,-1.03876997979583e-001

1.21419488439505e+004,-1.84651213061720e+001,-1.05326779543491e-001

1.23114441334492e+004,-1.84651233193487e+001,-1.06796787112340e-001

1.24833054890161e+004,-1.84651253890631e+001,-1.08287302514932e-001

1.26575659397028e+004,-1.84651275169017e+001,-1.09798611488408e-001

1.28342589756290e+004,-1.84651297044947e+001,-1.11331003739880e-001

1.30134185544193e+004,-1.84651319535181e+001,-1.12884772995619e-001

1.31950791077289e+004,-1.84651342656951e+001,-1.14460217057136e-001

1.33792755478611e+004,-1.84651366427968e+001,-1.16057637856119e-001

1.35660432744767e+004,-1.84651390866440e+001,-1.17677341513347e-001

1.37554181813974e+004,-1.84651415991085e+001,-1.19319638394396e-001

1.39474366635040e+004,-1.84651441821141e+001,-1.20984843169698e-001

1.41421356237309e+004,-1.84651468376387e+001,-1.22673274869289e-001

1.43395524801583e+004,-1.84651495677155e+001,-1.24385256945953e-001

1.45397251732031e+004,-1.84651523744347e+001,-1.26121117333373e-001

1.47426921729110e+004,-1.84651552599443e+001,-1.27881188511980e-001

1.49484924863494e+004,-1.84651582264531e+001,-1.29665807562758e-001

1.51571656651040e+004,-1.84651612762309e+001,-1.31475316238922e-001

1.53687518128801e+004,-1.84651644116116e+001,-1.33310061021612e-001

1.55832915932100e+004,-1.84651676349937e+001,-1.35170393190870e-001

1.58008262372675e+004,-1.84651709488431e+001,-1.37056668885458e-001

1.60213975517924e+004,-1.84651743556943e+001,-1.38969249173570e-001

1.62450479271247e+004,-1.84651778581525e+001,-1.40908500116646e-001

1.64718203453514e+004,-1.84651814588962e+001,-1.42874792835768e-001

1.67017583885674e+004,-1.84651851606779e+001,-1.44868503585778e-001

1.69349062472505e+004,-1.84651889663272e+001,-1.46890013820317e-001

1.71713087287550e+004,-1.84651928787526e+001,-1.48939710264909e-001

1.74110112659224e+004,-1.84651969009439e+001,-1.51017984982506e-001

1.76540599258131e+004,-1.84652010359740e+001,-1.53125235454828e-001

1.79005014185594e+004,-1.84652052870015e+001,-1.55261864648371e-001

1.81503831063432e+004,-1.84652096572730e+001,-1.57428281090052e-001

1.84037530124975e+004,-1.84652141501259e+001,-1.59624898943245e-001

1.86606598307361e+004,-1.84652187689902e+001,-1.61852138081912e-001

1.89211529345119e+004,-1.84652235173911e+001,-1.64110424172661e-001

1.91852823865052e+004,-1.84652283989529e+001,-1.66400188742400e-001

1.94530989482457e+004,-1.84652334173998e+001,-1.68721869267578e-001

1.97246540898671e+004,-1.84652385765600e+001,-1.71075909247095e-001

1.99999999999999e+004,-1.84652438803685e+001,-1.73462758284863e-001

2.02791895958005e+004,-1.84652493328692e+001,-1.75882872172439e-001

2.05622765331213e+004,-1.84652549382188e+001,-1.78336712970227e-001

2.08493152168224e+004,-1.84652607006889e+001,-1.80824749094380e-001

2.11403608112276e+004,-1.84652666246707e+001,-1.83347455393107e-001

2.14354692507258e+004,-1.84652727146766e+001,-1.85905313243182e-001

2.17346972505211e+004,-1.84652789753444e+001,-1.88498810628881e-001

2.20381023175322e+004,-1.84652854114407e+001,-1.91128442232850e-001

2.23457427614443e+004,-1.84652920278647e+001,-1.93794709521568e-001

2.26576777059159e+004,-1.84652988296507e+001,-1.96498120840968e-001

2.29739670999406e+004,-1.84653058219731e+001,-1.99239191501122e-001

2.32946717293690e+004,-1.84653130101494e+001,-2.02018443872262e-001

2.36198532285905e+004,-1.84653203996445e+001,-2.04836407474408e-001

2.39495740923785e+004,-1.84653279960747e+001,-2.07693619073947e-001

2.42838976879009e+004,-1.84653358052115e+001,-2.10590622777510e-001

2.46228882668982e+004,-1.84653438329860e+001,-2.13527970127595e-001

2.49666109780322e+004,-1.84653520854934e+001,-2.16506220201501e-001

2.53151318794055e+004,-1.84653605689976e+001,-2.19525939706218e-001

2.56685179512580e+004,-1.84653692899350e+001,-2.22587703081547e-001

2.60268371088386e+004,-1.84653782549201e+001,-2.25692092597303e-001

2.63901582154578e+004,-1.84653874707497e+001,-2.28839698457006e-001

2.67585510957221e+004,-1.84653969444079e+001,-2.32031118900208e-001

2.71320865489533e+004,-1.84654066830718e+001,-2.35266960304197e-001

2.75108363627948e+004,-1.84654166941156e+001,-2.38547837291940e-001

2.78948733270080e+004,-1.84654269851171e+001,-2.41874372833468e-001

2.82842712474618e+004,-1.84654375638621e+001,-2.45247198358829e-001

2.86791049603164e+004,-1.84654484383507e+001,-2.48666953860865e-001

2.90794503464061e+004,-1.84654596168030e+001,-2.52134288006084e-001

2.94853843458219e+004,-1.84654711076647e+001,-2.55649858245689e-001

2.98969849726987e+004,-1.84654829196133e+001,-2.59214330926013e-001

3.03143313302078e+004,-1.84654950615641e+001,-2.62828381403246e-001

3.07375036257601e+004,-1.84655075426770e+001,-2.66492694152178e-001

3.11665831864199e+004,-1.84655203723626e+001,-2.70207962886034e-001

3.16016524745350e+004,-1.84655335602891e+001,-2.73974890667608e-001

3.20427951035848e+004,-1.84655471163891e+001,-2.77794190029160e-001

3.24900958542493e+004,-1.84655610508665e+001,-2.81666583089233e-001

3.29436406907028e+004,-1.84655753742037e+001,-2.85592801671761e-001

3.34035167771346e+004,-1.84655900971695e+001,-2.89573587424149e-001

3.38698124945009e+004,-1.84656052308254e+001,-2.93609691942787e-001

3.43426174575100e+004,-1.84656207865348e+001,-2.97701876888562e-001

3.48220225318448e+004,-1.84656367759697e+001,-3.01850914116409e-001

3.53081198516260e+004,-1.84656532111198e+001,-3.06057585794557e-001

3.58010028371187e+004,-1.84656701043001e+001,-3.10322684530386e-001

3.63007662126863e+004,-1.84656874681597e+001,-3.14647013499557e-001

3.68075060249948e+004,-1.84657053156904e+001,-3.19031386568396e-001

3.73213196614721e+004,-1.84657236602357e+001,-3.23476628426283e-001

3.78423058690237e+004,-1.84657425155000e+001,-3.27983574709550e-001

3.83705647730104e+004,-1.84657618955578e+001,-3.32553072135656e-001

3.89061978964912e+004,-1.84657818148631e+001,-3.37185978631914e-001

3.94493081797342e+004,-1.84658022882596e+001,-3.41883163465900e-001

3.99999999999998e+004,-1.84658233309903e+001,-3.46645507379645e-001

4.05583791916010e+004,-1.84658449587081e+001,-3.51473902720988e-001

4.11245530662425e+004,-1.84658671874861e+001,-3.56369253578500e-001

4.16986304336447e+004,-1.84658900338281e+001,-3.61332475915581e-001

4.22807216224550e+004,-1.84659135146798e+001,-3.66364497707399e-001

4.28709385014515e+004,-1.84659376474399e+001,-3.71466259073725e-001

4.34693945010421e+004,-1.84659624499715e+001,-3.76638712418285e-001

4.40762046350642e+004,-1.84659879406138e+001,-3.81882822564585e-001

4.46914855228886e+004,-1.84660141381944e+001,-3.87199566893941e-001

4.53153554118317e+004,-1.84660410620405e+001,-3.92589935485633e-001

4.59479341998812e+004,-1.84660687319925e+001,-3.98054931251412e-001

4.65893434587380e+004,-1.84660971684161e+001,-4.03595570078913e-001

4.72397064571810e+004,-1.84661263922152e+001,-4.09212880970072e-001

4.78991481847569e+004,-1.84661564248454e+001,-4.14907906179820e-001

4.85677953758016e+004,-1.84661872883274e+001,-4.20681701358506e-001

4.92457765337964e+004,-1.84662190052607e+001,-4.26535335689631e-001

4.99332219560642e+004,-1.84662515988380e+001,-4.32469892031993e-001

5.06302637588109e+004,-1.84662850928588e+001,-4.38486467062035e-001

5.13370359025159e+004,-1.84663195117450e+001,-4.44586171410436e-001

5.20536742176771e+004,-1.84663548805547e+001,-4.50770129806414e-001

5.27803164309155e+004,-1.84663912249983e+001,-4.57039481217210e-001

5.35171021914442e+004,-1.84664285714532e+001,-4.63395378987659e-001

5.42641730979066e+004,-1.84664669469798e+001,-4.69838990982201e-001

5.50216727255895e+004,-1.84665063793378e+001,-4.76371499722255e-001

5.57897466540159e+004,-1.84665468970018e+001,-4.82994102527730e-001

5.65685424949235e+004,-1.84665885291783e+001,-4.89708011654512e-001

5.73582099206328e+004,-1.84666313058223e+001,-4.96514454433723e-001

5.81589006928121e+004,-1.84666752576545e+001,-5.03414673409609e-001

5.89707686916437e+004,-1.84667204161785e+001,-5.10409926475115e-001

5.97939699453972e+004,-1.84667668136986e+001,-5.17501487008084e-001

6.06286626604156e+004,-1.84668144833374e+001,-5.24690644007203e-001

6.14750072515201e+004,-1.84668634590539e+001,-5.31978702225737e-001

6.23331663728396e+004,-1.84669137756623e+001,-5.39366982302468e-001

6.32033049490698e+004,-1.84669654688502e+001,-5.46856820895869e-001

6.40855902071694e+004,-1.84670185751975e+001,-5.54449570811375e-001

6.49801917084985e+004,-1.84670731321955e+001,-5.62146601131770e-001

6.58872813814055e+004,-1.84671291782662e+001,-5.69949297342828e-001

6.68070335542691e+004,-1.84671867527820e+001,-5.77859061457851e-001

6.77396249890018e+004,-1.84672458960848e+001,-5.85877312142849e-001

6.86852349150199e+004,-1.84673066495066e+001,-5.94005484834732e-001

6.96440450636895e+004,-1.84673690553892e+001,-6.02245031860874e-001

7.06162397032520e+004,-1.84674331571042e+001,-6.10597422556799e-001

7.16020056742374e+004,-1.84674989990738e+001,-6.19064143379190e-001

7.26015324253724e+004,-1.84675666267909e+001,-6.27646698016133e-001

7.36150120499896e+004,-1.84676360868400e+001,-6.36346607497691e-001

7.46426393229441e+004,-1.84677074269177e+001,-6.45165410299692e-001

7.56846117380472e+004,-1.84677806958534e+001,-6.54104662447035e-001

7.67411295460207e+004,-1.84678559436304e+001,-6.63165937612731e-001

7.78123957929823e+004,-1.84679332214060e+001,-6.72350827214626e-001

7.88986163594682e+004,-1.84680125815332e+001,-6.81660940506212e-001

7.99999999999995e+004,-1.84680940775810e+001,-6.91097904666076e-001

8.11167583832018e+004,-1.84681777643549e+001,-7.00663364882990e-001

8.22491061324848e+004,-1.84682636979180e+001,-7.10358984436149e-001

8.33972608672892e+004,-1.84683519356112e+001,-7.20186444770791e-001

8.45614432449099e+004,-1.84684425360734e+001,-7.30147445572483e-001

8.57418770029029e+004,-1.84685355592618e+001,-7.40243704833344e-001

8.69387890020841e+004,-1.84686310664720e+001,-7.50476958913334e-001

8.81524092701283e+004,-1.84687291203567e+001,-7.60848962603655e-001

8.93829710457770e+004,-1.84688297849462e+001,-7.71361489172670e-001

9.06307108236633e+004,-1.84689331256659e+001,-7.82016330420693e-001

9.18958683997622e+004,-1.84690392093558e+001,-7.92815296717445e-001

9.31786869174758e+004,-1.84691481042880e+001,-8.03760217042406e-001

9.44794129143618e+004,-1.84692598801838e+001,-8.14852939014985e-001

9.57982963695136e+004,-1.84693746082309e+001,-8.26095328922293e-001

9.71355907516031e+004,-1.84694923610994e+001,-8.37489271735723e-001

9.84915530675926e+004,-1.84696132129570e+001,-8.49036671128853e-001

9.98664439121282e+004,-1.84697372394838e+001,-8.60739449483202e-001

1.01260527517622e+005,-1.84698645178855e+001,-8.72599547891977e-001

1.02674071805032e+005,-1.84699951269070e+001,-8.84618926153805e-001

1.04107348435354e+005,-1.84701291468432e+001,-8.96799562762196e-001

1.05560632861831e+005,-1.84702666595497e+001,-9.09143454892081e-001

1.07034204382888e+005,-1.84704077484529e+001,-9.21652618370853e-001

1.08528346195813e+005,-1.84705524985573e+001,-9.34329087653209e-001

1.10043345451179e+005,-1.84707009964523e+001,-9.47174915782508e-001

1.11579493308032e+005,-1.84708533303175e+001,-9.60192174348786e-001

1.13137084989847e+005,-1.84710095899266e+001,-9.73382953438682e-001

1.14716419841265e+005,-1.84711698666486e+001,-9.86749361582827e-001

1.16317801385624e+005,-1.84713342534484e+001,-1.00029352569017e+000

1.17941537383287e+005,-1.84715028448849e+001,-1.01401759098426e+000

1.19587939890794e+005,-1.84716757371070e+001,-1.02792372092622e+000

1.21257325320831e+005,-1.84718530278477e+001,-1.04201409713800e+000

1.22950014503040e+005,-1.84720348164154e+001,-1.05629091931600e+000

1.24666332745679e+005,-1.84722212036839e+001,-1.07075640514034e+000

1.26406609898139e+005,-1.84724122920784e+001,-1.08541279018127e+000

1.28171180414339e+005,-1.84726081855600e+001,-1.10026232779810e+000

1.29960383416997e+005,-1.84728089896067e+001,-1.11530728903543e+000

1.31774562762811e+005,-1.84730148111917e+001,-1.13054996251482e+000

1.33614067108538e+005,-1.84732257587587e+001,-1.14599265432369e+000

1.35479249978003e+005,-1.84734419421938e+001,-1.16163768790244e+000

1.37370469830040e+005,-1.84736634727937e+001,-1.17748740392641e+000

1.39288090127379e+005,-1.84738904632311e+001,-1.19354416018858e+000

1.41232479406504e+005,-1.84741230275156e+001,-1.20981033148273e+000

1.43204011348474e+005,-1.84743612809515e+001,-1.22628830948226e+000

1.45203064850745e+005,-1.84746053400908e+001,-1.24298050262468e+000

1.47230024099979e+005,-1.84748553226825e+001,-1.25988933599497e+000

1.49285278645888e+005,-1.84751113476179e+001,-1.27701725121193e+000

1.51369223476094e+005,-1.84753735348702e+001,-1.29436670632082e+000

1.53482259092041e+005,-1.84756420054311e+001,-1.31194017568730e+000

1.55624791585964e+005,-1.84759168812415e+001,-1.32974014989979e+000

1.57797232718936e+005,-1.84761982851173e+001,-1.34776913568183e+000

1.59999999999999e+005,-1.84764863406706e+001,-1.36602965580815e+000

1.62233516766403e+005,-1.84767811722258e+001,-1.38452424903505e+000

1.64498212264969e+005,-1.84770829047292e+001,-1.40325547004373e+000

1.66794521734578e+005,-1.84773916636547e+001,-1.42222588939333e+000

1.69122886489819e+005,-1.84777075749025e+001,-1.44143809349474e+000

1.71483754005805e+005,-1.84780307646928e+001,-1.46089468459917e+000

1.73877578004168e+005,-1.84783613594541e+001,-1.48059828080437e+000

1.76304818540256e+005,-1.84786994857038e+001,-1.50055151608904e+000

1.78765942091554e+005,-1.84790452699250e+001,-1.52075704036418e+000

1.81261421647326e+005,-1.84793988384356e+001,-1.54121751955492e+000

1.83791736799524e+005,-1.84797603172518e+001,-1.56193563570857e+000

1.86357373834951e+005,-1.84801298319458e+001,-1.58291408713623e+000

1.88958825828723e+005,-1.84805075074959e+001,-1.60415558858672e+000

1.91596592739027e+005,-1.84808934681325e+001,-1.62566287145532e+000

1.94271181503206e+005,-1.84812878371755e+001,-1.64743868403503e+000

1.96983106135185e+005,-1.84816907368672e+001,-1.66948579180759e+000

1.99732887824256e+005,-1.84821022881986e+001,-1.69180697777941e+000

2.02521055035243e+005,-1.84825226107288e+001,-1.71440504286756e+000

2.05348143610063e+005,-1.84829518223995e+001,-1.73728280633346e+000

2.08214696870707e+005,-1.84833900393434e+001,-1.76044310627380e+000

2.11121265723661e+005,-1.84838373756859e+001,-1.78388880016794e+000

2.14068408765776e+005,-1.84842939433428e+001,-1.80762276548536e+000

2.17056692391625e+005,-1.84847598518114e+001,-1.83164790035661e+000

2.20086690902357e+005,-1.84852352079570e+001,-1.85596712431457e+000

2.23158986616063e+005,-1.84857201157951e+001,-1.88058337910177e+000

2.26274169979693e+005,-1.84862146762678e+001,-1.90549962955493e+000

2.29432839682530e+005,-1.84867189870176e+001,-1.93071886456625e+000

2.32635602771247e+005,-1.84872331421563e+001,-1.95624409812264e+000

2.35883074766574e+005,-1.84877572320308e+001,-1.98207837043274e+000

2.39175879781588e+005,-1.84882913429865e+001,-2.00822474913706e+000

2.42514650641661e+005,-1.84888355571277e+001,-2.03468633061042e+000

2.45900029006080e+005,-1.84893899520769e+001,-2.06146624135479e+000

2.49332665491357e+005,-1.84899546007316e+001,-2.08856763949195e+000

2.52813219796278e+005,-1.84905295710218e+001,-2.11599371634963e+000

2.56342360828676e+005,-1.84911149256666e+001,-2.14374769815318e+000

2.59920766833993e+005,-1.84917107219318e+001,-2.17183284781722e+000

2.63549125525621e+005,-1.84923170113893e+001,-2.20025246684452e+000

2.67228134217075e+005,-1.84929338396778e+001,-2.22900989733278e+000

2.70958499956006e+005,-1.84935612462673e+001,-2.25810852408883e+000

2.74740939660078e+005,-1.84941992642270e+001,-2.28755177685511e+000

2.78576180254757e+005,-1.84948479199984e+001,-2.31734313264735e+000

2.82464958813007e+005,-1.84955072331731e+001,-2.34748611820385e+000

2.86408022696948e+005,-1.84961772162783e+001,-2.37798431254938e+000

2.90406129701488e+005,-1.84968578745690e+001,-2.40884134967000e+000

2.94460048199957e+005,-1.84975492058287e+001,-2.44006092130306e+000

2.98570557291775e+005,-1.84982512001800e+001,-2.47164677983685e+000

3.02738446952187e+005,-1.84989638399050e+001,-2.50360274132345e+000

3.06964518184081e+005,-1.84996870992783e+001,-2.53593268859870e+000

3.11249583171928e+005,-1.85004209444109e+001,-2.56864057451117e+000

3.15594465437872e+005,-1.85011653331094e+001,-2.60173042525510e+000

3.19999999999997e+005,-1.85019202147478e+001,-2.63520634380638e+000

3.24467033532806e+005,-1.85026855301570e+001,-2.66907251345537e+000

3.28996424529938e+005,-1.85034612115287e+001,-2.70333320143544e+000

3.33589043469155e+005,-1.85042471823385e+001,-2.73799276264197e+000

3.38245772979638e+005,-1.85050433572866e+001,-2.77305564343475e+000

3.42967508011610e+005,-1.85058496422576e+001,-2.80852638552232e+000

3.47755156008335e+005,-1.85066659343015e+001,-2.84440962991882e+000

3.52609637080511e+005,-1.85074921216348e+001,-2.88071012096996e+000

3.57531884183106e+005,-1.85083280836638e+001,-2.91743271043709e+000

3.62522843294651e+005,-1.85091736910304e+001,-2.95458236163760e+000

3.67583473599047e+005,-1.85100288056812e+001,-2.99216415362947e+000

3.72714747669902e+005,-1.85108932809598e+001,-3.03018328543368e+000

3.77917651657445e+005,-1.85117669617243e+001,-3.06864508028756e+000

3.83193185478053e+005,-1.85126496844882e+001,-3.10755498991592e+000

3.88542363006410e+005,-1.85135412775875e+001,-3.14691859881614e+000

3.93966212270369e+005,-1.85144415613722e+001,-3.18674162854452e+000

3.99465775648511e+005,-1.85153503484238e+001,-3.22702994199466e+000

4.05042110070485e+005,-1.85162674437975e+001,-3.26778954765987e+000

4.10696287220124e+005,-1.85171926452904e+001,-3.30902660386949e+000

4.16429393741414e+005,-1.85181257437348e+001,-3.35074742298489e+000

4.22242531447321e+005,-1.85190665233158e+001,-3.39295847555404e+000

4.28136817531551e+005,-1.85200147619148e+001,-3.43566639440562e+000

4.34113384783250e+005,-1.85209702314755e+001,-3.47887797867872e+000

4.40173381804713e+005,-1.85219326983943e+001,-3.52260019777672e+000

4.46317973232124e+005,-1.85229019239338e+001,-3.56684019523593e+000

4.52548339959385e+005,-1.85238776646571e+001,-3.61160529249975e+000

4.58865679365059e+005,-1.85248596728846e+001,-3.65690299259029e+000

4.65271205542494e+005,-1.85258476971693e+001,-3.70274098366930e+000

4.71766149533147e+005,-1.85268414827926e+001,-3.74912714247730e+000

4.78351759563174e+005,-1.85278407722766e+001,-3.79606953765041e+000

4.85029301283321e+005,-1.85288453059140e+001,-3.84357643289838e+000

4.91800058012158e+005,-1.85298548223118e+001,-3.89165629004810e+000

4.98665330982714e+005,-1.85308690589499e+001,-3.94031777193628e+000

5.05626439592555e+005,-1.85318877527512e+001,-3.98956974515634e+000

5.12684721657352e+005,-1.85329106406626e+001,-4.03942128264746e+000

5.19841533667984e+005,-1.85339374602446e+001,-4.08988166612576e+000

5.27098251051240e+005,-1.85349679502692e+001,-4.14096038835592e+000

5.34456268434150e+005,-1.85360018513220e+001,-4.19266715525771e+000

5.41916999912011e+005,-1.85370389064101e+001,-4.24501188784950e+000

