Freq.,VOut,OutRef

1.00000000000000e+004,-9.26070559485653e+000,-4.78853023367829e-002

1.01395947979003e+004,-9.26070577006304e+000,-4.85537323061610e-002

1.02811382665607e+004,-9.26070595019121e+000,-4.92314921947248e-002

1.04246576084112e+004,-9.26070613537962e+000,-4.99187121973502e-002

1.05701804056138e+004,-9.26070632576951e+000,-5.06155243324586e-002

1.07177346253629e+004,-9.26070652150745e+000,-5.13220624504064e-002

1.08673486252606e+004,-9.26070672274337e+000,-5.20384622734967e-002

1.10190511587661e+004,-9.26070692963156e+000,-5.27648614144249e-002

1.11728713807222e+004,-9.26070714233066e+000,-5.35013994054355e-002

1.13288388529580e+004,-9.26070736100380e+000,-5.42482177241405e-002

1.14869835499703e+004,-9.26070758581843e+000,-5.50054598216303e-002

1.16473358646846e+004,-9.26070781694711e+000,-5.57732711468301e-002

1.18099266142953e+004,-9.26070805456656e+000,-5.65517991806833e-002

1.19747870461893e+004,-9.26070829885920e+000,-5.73411934555358e-002

1.21419488439505e+004,-9.26070855001205e+000,-5.81416055913736e-002

1.23114441334492e+004,-9.26070880821793e+000,-5.89531893183057e-002

1.24833054890161e+004,-9.26070907367391e+000,-5.97761005168534e-002

1.26575659397028e+004,-9.26070934658394e+000,-6.06104972315619e-002

1.28342589756290e+004,-9.26070962715698e+000,-6.14565397145364e-002

1.30134185544193e+004,-9.26070991560775e+000,-6.23143904519202e-002

1.31950791077289e+004,-9.26071021215757e+000,-6.31842141907932e-002

1.33792755478611e+004,-9.26071051703270e+000,-6.40661779820033e-002

1.35660432744767e+004,-9.26071083046730e+000,-6.49604511949571e-002

1.37554181813974e+004,-9.26071115270108e+000,-6.58672055653922e-002

1.39474366635040e+004,-9.26071148398061e+000,-6.67866152211219e-002

1.41421356237309e+004,-9.26071182455970e+000,-6.77188567143312e-002

1.43395524801583e+004,-9.26071217469852e+000,-6.86641090618186e-002

1.45397251732031e+004,-9.26071253466537e+000,-6.96225537689244e-002

1.47426921729110e+004,-9.26071290473547e+000,-7.05943748736841e-002

1.49484924863494e+004,-9.26071328519189e+000,-7.15797589769145e-002

1.51571656651040e+004,-9.26071367632587e+000,-7.25788952774027e-002

1.53687518128801e+004,-9.26071407843633e+000,-7.35919756115463e-002

1.55832915932100e+004,-9.26071449183058e+000,-7.46191944888447e-002

1.58008262372675e+004,-9.26071491682497e+000,-7.56607491238684e-002

1.60213975517924e+004,-9.26071535374440e+000,-7.67168394805135e-002

1.62450479271247e+004,-9.26071580292251e+000,-7.77876683085776e-002

1.64718203453514e+004,-9.26071626470284e+000,-7.88734411780253e-002

1.67017583885674e+004,-9.26071673943784e+000,-7.99743665256943e-002

1.69349062472505e+004,-9.26071722749049e+000,-8.10906556857025e-002

1.71713087287550e+004,-9.26071772923332e+000,-8.22225229383773e-002

1.74110112659224e+004,-9.26071824504943e+000,-8.33701855459354e-002

1.76540599258131e+004,-9.26071877533292e+000,-8.45338637926833e-002

1.79005014185594e+004,-9.26071932048818e+000,-8.57137810337494e-002

1.81503831063432e+004,-9.26071988093156e+000,-8.69101637283523e-002

1.84037530124975e+004,-9.26072045709067e+000,-8.81232414897354e-002

1.86606598307361e+004,-9.26072104940470e+000,-8.93532471279123e-002

1.89211529345119e+004,-9.26072165832572e+000,-9.06004166888763e-002

1.91852823865052e+004,-9.26072228431805e+000,-9.18649895044402e-002

1.94530989482457e+004,-9.26072292785877e+000,-9.31472082370793e-002

1.97246540898671e+004,-9.26072358943826e+000,-9.44473189246560e-002

1.99999999999999e+004,-9.26072426956070e+000,-9.57655710262474e-002

2.02791895958005e+004,-9.26072496874411e+000,-9.71022174713571e-002

2.05622765331213e+004,-9.26072568752124e+000,-9.84575147049030e-002

2.08493152168224e+004,-9.26072642643923e+000,-9.98317227403210e-002

2.11403608112276e+004,-9.26072718606013e+000,-1.01225105207563e-001

2.14354692507258e+004,-9.26072796696251e+000,-1.02637929395871e-001

2.17346972505211e+004,-9.26072876974024e+000,-1.04070466314945e-001

2.20381023175322e+004,-9.26072959500372e+000,-1.05522990740253e-001

2.23457427614443e+004,-9.26073044338039e+000,-1.06995781265629e-001

2.26576777059159e+004,-9.26073131551517e+000,-1.08489120355044e-001

2.29739670999406e+004,-9.26073221207070e+000,-1.10003294397935e-001

2.32946717293690e+004,-9.26073313372780e+000,-1.11538593763381e-001

2.36198532285905e+004,-9.26073408118647e+000,-1.13095312851224e-001

2.39495740923785e+004,-9.26073505516567e+000,-1.14673750152284e-001

2.42838976879009e+004,-9.26073605640438e+000,-1.16274208301933e-001

2.46228882668982e+004,-9.26073708566210e+000,-1.17896994136386e-001

2.49666109780322e+004,-9.26073814371914e+000,-1.19542418751990e-001

2.53151318794055e+004,-9.26073923137735e+000,-1.21210797563237e-001

2.56685179512580e+004,-9.26074034946079e+000,-1.22902450361449e-001

2.60268371088386e+004,-9.26074149881609e+000,-1.24617701375862e-001

2.63901582154578e+004,-9.26074268031313e+000,-1.26356879334097e-001

2.67585510957221e+004,-9.26074389484594e+000,-1.28120317522426e-001

2.71320865489533e+004,-9.26074514333310e+000,-1.29908353849389e-001

2.75108363627948e+004,-9.26074642671823e+000,-1.31721330910085e-001

2.78948733270080e+004,-9.26074774597093e+000,-1.33559596049222e-001

2.82842712474618e+004,-9.26074910208741e+000,-1.35423501425582e-001

2.86791049603164e+004,-9.26075049609148e+000,-1.37313404076448e-001

2.90794503464061e+004,-9.26075192903481e+000,-1.39229665987140e-001

2.94853843458219e+004,-9.26075340199775e+000,-1.41172654158533e-001

2.98969849726987e+004,-9.26075491609022e+000,-1.43142740673856e-001

3.03143313302078e+004,-9.26075647245260e+000,-1.45140302767547e-001

3.07375036257601e+004,-9.26075807225660e+000,-1.47165722895684e-001

3.11665831864199e+004,-9.26075971670556e+000,-1.49219388809442e-001

3.16016524745350e+004,-9.26076140703576e+000,-1.51301693624801e-001

3.20427951035848e+004,-9.26076314451746e+000,-1.53413035893625e-001

3.24900958542493e+004,-9.26076493045506e+000,-1.55553819683524e-001

3.29436406907028e+004,-9.26076676618872e+000,-1.57724454646280e-001

3.34035167771346e+004,-9.26076865309513e+000,-1.59925356096276e-001

3.38698124945009e+004,-9.26077059258790e+000,-1.62156945089942e-001

3.43426174575100e+004,-9.26077258611936e+000,-1.64419648498323e-001

3.48220225318448e+004,-9.26077463518125e+000,-1.66713899087799e-001

3.53081198516260e+004,-9.26077674130532e+000,-1.69040135602927e-001

3.58010028371187e+004,-9.26077890606517e+000,-1.71398802841260e-001

3.63007662126863e+004,-9.26078113107658e+000,-1.73790351740237e-001

3.68075060249948e+004,-9.26078341799906e+000,-1.76215239456870e-001

3.73213196614721e+004,-9.26078576853683e+000,-1.78673929453163e-001

3.78423058690237e+004,-9.26078818443993e+000,-1.81166891579997e-001

3.83705647730104e+004,-9.26079066750536e+000,-1.83694602164090e-001

3.89061978964912e+004,-9.26079321957836e+000,-1.86257544093738e-001

3.94493081797342e+004,-9.26079584255401e+000,-1.88856206905257e-001

3.99999999999998e+004,-9.26079853837761e+000,-1.91491086877246e-001

4.05583791916010e+004,-9.26080130904669e+000,-1.94162687115985e-001

4.11245530662425e+004,-9.26080415661207e+000,-1.96871517648652e-001

4.16986304336447e+004,-9.26080708317918e+000,-1.99618095516096e-001

4.22807216224550e+004,-9.26081009090968e+000,-2.02402944863669e-001

4.28709385014515e+004,-9.26081318202243e+000,-2.05226597040143e-001

4.34693945010421e+004,-9.26081635879508e+000,-2.08089590691212e-001

4.40762046350642e+004,-9.26081962356565e+000,-2.10992471856455e-001

4.46914855228886e+004,-9.26082297873425e+000,-2.13935794065535e-001

4.53153554118317e+004,-9.26082642676403e+000,-2.16920118441818e-001

4.59479341998812e+004,-9.26082997018279e+000,-2.19946013801337e-001

4.65893434587380e+004,-9.26083361158535e+000,-2.23014056750539e-001

4.72397064571810e+004,-9.26083735363389e+000,-2.26124831795868e-001

4.78991481847569e+004,-9.26084119906088e+000,-2.29278931441623e-001

4.85677953758016e+004,-9.26084515066982e+000,-2.32476956299192e-001

4.92457765337964e+004,-9.26084921133740e+000,-2.35719515191598e-001

4.99332219560642e+004,-9.26085338401507e+000,-2.39007225262694e-001

5.06302637588109e+004,-9.26085767173072e+000,-2.42340712085186e-001

5.13370359025159e+004,-9.26086207759101e+000,-2.45720609769159e-001

5.20536742176771e+004,-9.26086660478245e+000,-2.49147561077247e-001

5.27803164309155e+004,-9.26087125657365e+000,-2.52622217535331e-001

5.35171021914442e+004,-9.26087603631714e+000,-2.56145239546648e-001

5.42641730979066e+004,-9.26088094745183e+000,-2.59717296503842e-001

5.50216727255895e+004,-9.26088599350361e+000,-2.63339066914050e-001

5.57897466540159e+004,-9.26089117808887e+000,-2.67011238507096e-001

5.65685424949235e+004,-9.26089650491539e+000,-2.70734508361468e-001

5.73582099206328e+004,-9.26090197778515e+000,-2.74509583020113e-001

5.81589006928121e+004,-9.26090760059610e+000,-2.78337178614001e-001

5.89707686916437e+004,-9.26091337734371e+000,-2.82218020988332e-001

5.97939699453972e+004,-9.26091931212404e+000,-2.86152845821662e-001

6.06286626604156e+004,-9.26092540913563e+000,-2.90142398752246e-001

6.14750072515201e+004,-9.26093167268093e+000,-2.94187435510486e-001

6.23331663728396e+004,-9.26093810716965e+000,-2.98288722039853e-001

6.32033049490698e+004,-9.26094471711997e+000,-3.02447034632594e-001

6.40855902071694e+004,-9.26095150716168e+000,-3.06663160055816e-001

6.49801917084985e+004,-9.26095848203745e+000,-3.10937895689404e-001

6.58872813814055e+004,-9.26096564660607e+000,-3.15272049653762e-001

6.68070335542691e+004,-9.26097300584422e+000,-3.19666440949146e-001

6.77396249890018e+004,-9.26098056484871e+000,-3.24121899590906e-001

6.86852349150199e+004,-9.26098832883930e+000,-3.28639266746101e-001

6.96440450636895e+004,-9.26099630316044e+000,-3.33219394874871e-001

7.06162397032520e+004,-9.26100449328405e+000,-3.37863147868534e-001

7.16020056742374e+004,-9.26101290481167e+000,-3.42571401193354e-001

7.26015324253724e+004,-9.26102154347689e+000,-3.47345042033262e-001

7.36150120499896e+004,-9.26103041514754e+000,-3.52184969434449e-001

7.46426393229441e+004,-9.26103952582821e+000,-3.57092094451580e-001

7.56846117380472e+004,-9.26104888166267e+000,-3.62067340294153e-001

7.67411295460207e+004,-9.26105848893591e+000,-3.67111642476964e-001

7.78123957929823e+004,-9.26106835407667e+000,-3.72225948969412e-001

7.88986163594682e+004,-9.26107848365947e+000,-3.77411220348054e-001

7.99999999999995e+004,-9.26108888440741e+000,-3.82668429947433e-001

8.11167583832018e+004,-9.26109956319388e+000,-3.87998564016120e-001

8.22491061324848e+004,-9.26111052704474e+000,-3.93402621874533e-001

8.33972608672892e+004,-9.26112178314103e+000,-3.98881616067012e-001

8.45614432449099e+004,-9.26113333882057e+000,-4.04436572525427e-001

8.57418770029029e+004,-9.26114520158041e+000,-4.10068530725383e-001

8.69387890020841e+004,-9.26115737907818e+000,-4.15778543852412e-001

8.81524092701283e+004,-9.26116987913497e+000,-4.21567678959290e-001

8.93829710457770e+004,-9.26118270973637e+000,-4.27437017135263e-001

9.06307108236633e+004,-9.26119587903490e+000,-4.33387653667961e-001

9.18958683997622e+004,-9.26120939535102e+000,-4.39420698215101e-001

9.31786869174758e+004,-9.26122326717560e+000,-4.45537274967998e-001

9.44794129143618e+004,-9.26123750317063e+000,-4.51738522826050e-001

9.57982963695136e+004,-9.26125211217090e+000,-4.58025595567486e-001

9.71355907516031e+004,-9.26126710318558e+000,-4.64399662020258e-001

9.84915530675926e+004,-9.26128248539877e+000,-4.70861906240076e-001

9.98664439121282e+004,-9.26129826817086e+000,-4.77413527684748e-001

1.01260527517622e+005,-9.26131446103919e+000,-4.84055741393274e-001

1.02674071805032e+005,-9.26133107371901e+000,-4.90789778162678e-001

1.04107348435354e+005,-9.26134811610323e+000,-4.97616884734006e-001

1.05560632861831e+005,-9.26136559826371e+000,-5.04538323968893e-001

1.07034204382888e+005,-9.26138353045039e+000,-5.11555375039140e-001

1.08528346195813e+005,-9.26140192309190e+000,-5.18669333608930e-001

1.10043345451179e+005,-9.26142078679436e+000,-5.25881512026528e-001

1.11579493308032e+005,-9.26144013234146e+000,-5.33193239510438e-001

1.13137084989847e+005,-9.26145997069342e+000,-5.40605862340718e-001

1.14716419841265e+005,-9.26148031298531e+000,-5.48120744055972e-001

1.16317801385624e+005,-9.26150117052612e+000,-5.55739265644295e-001

1.17941537383287e+005,-9.26152255479666e+000,-5.63462825743169e-001

1.19587939890794e+005,-9.26154447744762e+000,-5.71292840835739e-001

1.21257325320831e+005,-9.26156695029664e+000,-5.79230745456301e-001

1.22950014503040e+005,-9.26158998532610e+000,-5.87277992389007e-001

1.24666332745679e+005,-9.26161359467913e+000,-5.95436052877773e-001

1.26406609898139e+005,-9.26163779065650e+000,-6.03706416830451e-001

1.28171180414339e+005,-9.26166258571204e+000,-6.12090593033110e-001

1.29960383416997e+005,-9.26168799244850e+000,-6.20590109359492e-001

1.31774562762811e+005,-9.26171402361226e+000,-6.29206512987887e-001

1.33614067108538e+005,-9.26174069208764e+000,-6.37941370621193e-001

1.35479249978003e+005,-9.26176801089121e+000,-6.46796268704598e-001

1.37370469830040e+005,-9.26179599316461e+000,-6.55772813653872e-001

1.39288090127379e+005,-9.26182465216795e+000,-6.64872632079067e-001

1.41232479406504e+005,-9.26185400127174e+000,-6.74097371016596e-001

1.43204011348474e+005,-9.26188405394815e+000,-6.83448698164960e-001

1.45203064850745e+005,-9.26191482376276e+000,-6.92928302118434e-001

1.47230024099979e+005,-9.26194632436405e+000,-7.02537892613078e-001

1.49285278645888e+005,-9.26197856947346e+000,-7.12279200769376e-001

1.51369223476094e+005,-9.26201157287412e+000,-7.22153979341856e-001

1.53482259092041e+005,-9.26204534839874e+000,-7.32164002976696e-001

1.55624791585964e+005,-9.26207990991766e+000,-7.42311068465158e-001

1.57797232718936e+005,-9.26211527132466e+000,-7.52596995011995e-001

1.59999999999999e+005,-9.26215144652327e+000,-7.63023624501127e-001

1.62233516766403e+005,-9.26218844941145e+000,-7.73592821772573e-001

1.64498212264969e+005,-9.26222629386583e+000,-7.84306474899799e-001

1.66794521734578e+005,-9.26226499372460e+000,-7.95166495478919e-001

1.69122886489819e+005,-9.26230456277027e+000,-8.06174818918022e-001

1.71483754005805e+005,-9.26234501471089e+000,-8.17333404737257e-001

1.73877578004168e+005,-9.26238636316021e+000,-8.28644236876627e-001

1.76304818540256e+005,-9.26242862161753e+000,-8.40109324007120e-001

1.78765942091554e+005,-9.26247180344620e+000,-8.51730699852596e-001

1.81261421647326e+005,-9.26251592185094e+000,-8.63510423519869e-001

1.83791736799524e+005,-9.26256098985452e+000,-8.75450579836434e-001

1.86357373834951e+005,-9.26260702027349e+000,-8.87553279695712e-001

1.88958825828723e+005,-9.26265402569240e+000,-8.99820660415748e-001

1.91596592739027e+005,-9.26270201843744e+000,-9.12254886103751e-001

1.94271181503206e+005,-9.26275101054894e+000,-9.24858148033052e-001

1.96983106135185e+005,-9.26280101375277e+000,-9.37632665031017e-001

1.99732887824256e+005,-9.26285203943090e+000,-9.50580683876597e-001

2.02521055035243e+005,-9.26290409859079e+000,-9.63704479710512e-001

2.05348143610063e+005,-9.26295720183384e+000,-9.77006356459207e-001

2.08214696870707e+005,-9.26301135932255e+000,-9.90488647270212e-001

2.11121265723661e+005,-9.26306658074757e+000,-1.00415371495979e+000

2.14068408765776e+005,-9.26312287529266e+000,-1.01800395247701e+000

2.17056692391625e+005,-9.26318025159954e+000,-1.03204178338085e+000

2.20086690902357e+005,-9.26323871773173e+000,-1.04626966233156e+000

2.23158986616063e+005,-9.26329828113691e+000,-1.06069007560105e+000

2.26274169979693e+005,-9.26335894860957e+000,-1.07530554159352e+000

2.29432839682530e+005,-9.26342072625165e+000,-1.09011861138962e+000

2.32635602771247e+005,-9.26348361943355e+000,-1.10513186930187e+000

2.35883074766574e+005,-9.26354763275366e+000,-1.12034793345206e+000

2.39175879781588e+005,-9.26361276999777e+000,-1.13576945636482e+000

2.42514650641661e+005,-9.26367903409756e+000,-1.15139912558117e+000

2.45900029006080e+005,-9.26374642708914e+000,-1.16723966429018e+000

2.49332665491357e+005,-9.26381495007054e+000,-1.18329383198214e+000

2.52813219796278e+005,-9.26388460315950e+000,-1.19956442512091e+000

2.56342360828676e+005,-9.26395538545049e+000,-1.21605427783810e+000

2.59920766833993e+005,-9.26402729497210e+000,-1.23276626264740e+000

2.63549125525621e+005,-9.26410032864407e+000,-1.24970329118097e+000

2.67228134217075e+005,-9.26417448223430e+000,-1.26686831495025e+000

2.70958499956006e+005,-9.26424975031659e+000,-1.28426432612428e+000

2.74740939660078e+005,-9.26432612622811e+000,-1.30189435833516e+000

2.78576180254757e+005,-9.26440360202726e+000,-1.31976148750623e+000

2.82464958813007e+005,-9.26448216845279e+000,-1.33786883269938e+000

2.86408022696948e+005,-9.26456181488250e+000,-1.35621955699226e+000

2.90406129701488e+005,-9.26464252929381e+000,-1.37481686837220e+000

2.94460048199957e+005,-9.26472429822442e+000,-1.39366402065935e+000

2.98570557291775e+005,-9.26480710673443e+000,-1.41276431445107e+000

3.02738446952187e+005,-9.26489093836976e+000,-1.43212109808856e+000

3.06964518184081e+005,-9.26497577512649e+000,-1.45173776865016e+000

3.11249583171928e+005,-9.26506159741707e+000,-1.47161777296572e+000

3.15594465437872e+005,-9.26514838403784e+000,-1.49176460865545e+000

3.19999999999997e+005,-9.26523611213879e+000,-1.51218182518937e+000

3.24467033532806e+005,-9.26532475719439e+000,-1.53287302497295e+000

3.28996424529938e+005,-9.26541429297735e+000,-1.55384186445076e+000

3.33589043469155e+005,-9.26550469153382e+000,-1.57509205523478e+000

3.38245772979638e+005,-9.26559592316134e+000,-1.59662736525208e+000

3.42967508011610e+005,-9.26568795638900e+000,-1.61845161991262e+000

3.47755156008335e+005,-9.26578075796002e+000,-1.64056870329812e+000

3.52609637080511e+005,-9.26587429281713e+000,-1.66298255936899e+000

3.57531884183106e+005,-9.26596852409087e+000,-1.68569719318737e+000

3.62522843294651e+005,-9.26606341308996e+000,-1.70871667216222e+000

3.67583473599047e+005,-9.26615891929569e+000,-1.73204512730425e+000

3.72714747669902e+005,-9.26625500035819e+000,-1.75568675450168e+000

3.77917651657445e+005,-9.26635161209661e+000,-1.77964581580624e+000

3.83193185478053e+005,-9.26644870850192e+000,-1.80392664073391e+000

3.88542363006410e+005,-9.26654624174288e+000,-1.82853362757710e+000

3.93966212270369e+005,-9.26664416217547e+000,-1.85347124472678e+000

3.99465775648511e+005,-9.26674241835501e+000,-1.87874403200639e+000

4.05042110070485e+005,-9.26684095705205e+000,-1.90435660200998e+000

4.10696287220124e+005,-9.26693972327062e+000,-1.93031364145181e+000

4.16429393741414e+005,-9.26703866027046e+000,-1.95661991251732e+000

4.22242531447321e+005,-9.26713770959170e+000,-1.98328025422172e+000

4.28136817531551e+005,-9.26723681108275e+000,-2.01029958377011e+000

4.34113384783250e+005,-9.26733590293098e+000,-2.03768289792035e+000

4.40173381804713e+005,-9.26743492169649e+000,-2.06543527434561e+000

4.46317973232124e+005,-9.26753380234825e+000,-2.09356187299746e+000

4.52548339959385e+005,-9.26763247830311e+000,-2.12206793746657e+000

4.58865679365059e+005,-9.26773088146677e+000,-2.15095879634174e+000

4.65271205542494e+005,-9.26782894227760e+000,-2.18023986456424e+000

4.71766149533147e+005,-9.26792658975224e+000,-2.20991664477655e+000

4.78351759563174e+005,-9.26802375153288e+000,-2.23999472866918e+000

4.85029301283321e+005,-9.26812035393663e+000,-2.27047979831645e+000

4.91800058012158e+005,-9.26821632200629e+000,-2.30137762750742e+000

4.98665330982714e+005,-9.26831157956197e+000,-2.33269408307086e+000

5.05626439592555e+005,-9.26840604925435e+000,-2.36443512618751e+000

5.12684721657352e+005,-9.26849965261829e+000,-2.39660681369757e+000

5.19841533667984e+005,-9.26859231012679e+000,-2.42921529939817e+000

5.27098251051240e+005,-9.26868394124601e+000,-2.46226683532949e+000

5.34456268434150e+005,-9.26877446448921e+000,-2.49576777305542e+000

5.41916999912011e+005,-9.26886379747130e+000,-2.52972456493130e+000

