Freq.,VOut,OutRef

1.00000000000000e+004,-1.96160326798169e+001,-1.88316067930700e-001

1.01395947979003e+004,-1.96160342007603e+001,-1.90944705929999e-001

1.02811382665607e+004,-1.96160357644376e+001,-1.93610031712696e-001

1.04246576084112e+004,-1.96160373720488e+001,-1.96312557138802e-001

1.05701804056138e+004,-1.96160390248277e+001,-1.99052801202693e-001

1.07177346253629e+004,-1.96160407240421e+001,-2.01831290132348e-001

1.08673486252606e+004,-1.96160424709962e+001,-2.04648557484820e-001

1.10190511587661e+004,-1.96160442670302e+001,-2.07505144255429e-001

1.11728713807222e+004,-1.96160461135217e+001,-2.10401598977284e-001

1.13288388529580e+004,-1.96160480118877e+001,-2.13338477823054e-001

1.14869835499703e+004,-1.96160499635841e+001,-2.16316344717860e-001

1.16473358646846e+004,-1.96160519701081e+001,-2.19335771439715e-001

1.18099266142953e+004,-1.96160540329987e+001,-2.22397337733074e-001

1.19747870461893e+004,-1.96160561538379e+001,-2.25501631418993e-001

1.21419488439505e+004,-1.96160583342524e+001,-2.28649248503931e-001

1.23114441334492e+004,-1.96160605759143e+001,-2.31840793296575e-001

1.24833054890161e+004,-1.96160628805421e+001,-2.35076878523188e-001

1.26575659397028e+004,-1.96160652499033e+001,-2.38358125439595e-001

1.28342589756290e+004,-1.96160676858142e+001,-2.41685163956109e-001

1.30134185544193e+004,-1.96160701901423e+001,-2.45058632752189e-001

1.31950791077289e+004,-1.96160727648074e+001,-2.48479179399677e-001

1.33792755478611e+004,-1.96160754117829e+001,-2.51947460486533e-001

1.35660432744767e+004,-1.96160781330977e+001,-2.55464141741140e-001

1.37554181813974e+004,-1.96160809308371e+001,-2.59029898159293e-001

1.39474366635040e+004,-1.96160838071452e+001,-2.62645414130400e-001

1.41421356237309e+004,-1.96160867642260e+001,-2.66311383570644e-001

1.43395524801583e+004,-1.96160898043450e+001,-2.70028510053091e-001

1.45397251732031e+004,-1.96160929298311e+001,-2.73797506941006e-001

1.47426921729110e+004,-1.96160961430788e+001,-2.77619097522845e-001

1.49484924863494e+004,-1.96160994465490e+001,-2.81494015151134e-001

1.51571656651040e+004,-1.96161028427718e+001,-2.85423003380314e-001

1.53687518128801e+004,-1.96161063343480e+001,-2.89406816107454e-001

1.55832915932100e+004,-1.96161099239511e+001,-2.93446217715976e-001

1.58008262372675e+004,-1.96161136143293e+001,-2.97541983219574e-001

1.60213975517924e+004,-1.96161174083075e+001,-3.01694898410966e-001

1.62450479271247e+004,-1.96161213087900e+001,-3.05905760005562e-001

1.64718203453514e+004,-1.96161253187618e+001,-3.10175375799525e-001

1.67017583885674e+004,-1.96161294412917e+001,-3.14504564815349e-001

1.69349062472505e+004,-1.96161336795338e+001,-3.18894157461337e-001

1.71713087287550e+004,-1.96161380367306e+001,-3.23344995687664e-001

1.74110112659224e+004,-1.96161425162150e+001,-3.27857933143354e-001

1.76540599258131e+004,-1.96161471214132e+001,-3.32433835338110e-001

1.79005014185594e+004,-1.96161518558469e+001,-3.37073579807802e-001

1.81503831063432e+004,-1.96161567231357e+001,-3.41778056278108e-001

1.84037530124975e+004,-1.96161617270009e+001,-3.46548166830216e-001

1.86606598307361e+004,-1.96161668712673e+001,-3.51384826073840e-001

1.89211529345119e+004,-1.96161721598662e+001,-3.56288961319895e-001

1.91852823865052e+004,-1.96161775968388e+001,-3.61261512750301e-001

1.94530989482457e+004,-1.96161831863387e+001,-3.66303433600014e-001

1.97246540898671e+004,-1.96161889326356e+001,-3.71415690332157e-001

1.99999999999999e+004,-1.96161948401180e+001,-3.76599262821412e-001

2.02791895958005e+004,-1.96162009132967e+001,-3.81855144537778e-001

2.05622765331213e+004,-1.96162071568081e+001,-3.87184342732423e-001

2.08493152168224e+004,-1.96162135754176e+001,-3.92587878626637e-001

2.11403608112276e+004,-1.96162201740235e+001,-3.98066787602739e-001

2.14354692507258e+004,-1.96162269576603e+001,-4.03622119397415e-001

2.17346972505211e+004,-1.96162339315025e+001,-4.09254938299225e-001

2.20381023175322e+004,-1.96162411008687e+001,-4.14966323345953e-001

2.23457427614443e+004,-1.96162484712249e+001,-4.20757368528584e-001

2.26576777059159e+004,-1.96162560481898e+001,-4.26629182990585e-001

2.29739670999406e+004,-1.96162638375377e+001,-4.32582891239362e-001

2.32946717293690e+004,-1.96162718452033e+001,-4.38619633354349e-001

2.36198532285905e+004,-1.96162800772864e+001,-4.44740565195606e-001

2.39495740923785e+004,-1.96162885400558e+001,-4.50946858625107e-001

2.42838976879009e+004,-1.96162972399545e+001,-4.57239701718176e-001

2.46228882668982e+004,-1.96163061836040e+001,-4.63620298987645e-001

2.49666109780322e+004,-1.96163153778098e+001,-4.70089871604497e-001

2.53151318794055e+004,-1.96163248295655e+001,-4.76649657627448e-001

2.56685179512580e+004,-1.96163345460588e+001,-4.83300912227774e-001

2.60268371088386e+004,-1.96163445346763e+001,-4.90044907924532e-001

2.63901582154578e+004,-1.96163548030094e+001,-4.96882934816468e-001

2.67585510957221e+004,-1.96163653588591e+001,-5.03816300823038e-001

2.71320865489533e+004,-1.96163762102425e+001,-5.10846331922097e-001

2.75108363627948e+004,-1.96163873653983e+001,-5.17974372395953e-001

2.78948733270080e+004,-1.96163988327926e+001,-5.25201785077004e-001

2.82842712474618e+004,-1.96164106211257e+001,-5.32529951598217e-001

2.86791049603164e+004,-1.96164227393379e+001,-5.39960272645862e-001

2.90794503464061e+004,-1.96164351966161e+001,-5.47494168217069e-001

2.94853843458219e+004,-1.96164480024006e+001,-5.55133077877284e-001

2.98969849726987e+004,-1.96164611663919e+001,-5.62878461024040e-001

3.03143313302078e+004,-1.96164746985577e+001,-5.70731797152378e-001

3.07375036257601e+004,-1.96164886091402e+001,-5.78694586124347e-001

3.11665831864199e+004,-1.96165029086632e+001,-5.86768348441960e-001

3.16016524745350e+004,-1.96165176079400e+001,-5.94954625520945e-001

3.20427951035848e+004,-1.96165327180810e+001,-6.03254979971888e-001

3.24900958542493e+004,-1.96165482505019e+001,-6.11670995881061e-001

3.29436406907028e+004,-1.96165642169312e+001,-6.20204279098906e-001

3.34035167771346e+004,-1.96165806294195e+001,-6.28856457524990e-001

3.38698124945009e+004,-1.96165975003476e+001,-6.37629181404418e-001

3.43426174575100e+004,-1.96166148424350e+001,-6.46524123622621e-001

3.48220225318448e+004,-1.96166326687498e+001,-6.55542980004449e-001

3.53081198516260e+004,-1.96166509927169e+001,-6.64687469618652e-001

3.58010028371187e+004,-1.96166698281285e+001,-6.73959335083022e-001

3.63007662126863e+004,-1.96166891891527e+001,-6.83360342876624e-001

3.68075060249948e+004,-1.96167090903445e+001,-6.92892283651829e-001

3.73213196614721e+004,-1.96167295466556e+001,-7.02556972552248e-001

3.78423058690237e+004,-1.96167505734447e+001,-7.12356249534196e-001

3.83705647730104e+004,-1.96167721864884e+001,-7.22291979691435e-001

3.89061978964912e+004,-1.96167944019917e+001,-7.32366053583520e-001

3.94493081797342e+004,-1.96168172366001e+001,-7.42580387567241e-001

3.99999999999998e+004,-1.96168407074106e+001,-7.52936924132346e-001

4.05583791916010e+004,-1.96168648319832e+001,-7.63437632242830e-001

4.11245530662425e+004,-1.96168896283533e+001,-7.74084507678298e-001

4.16986304336447e+004,-1.96169151150441e+001,-7.84879573380640e-001

4.22807216224550e+004,-1.96169413110791e+001,-7.95824879806277e-001

4.28709385014515e+004,-1.96169682359950e+001,-8.06922505279821e-001

4.34693945010421e+004,-1.96169959098551e+001,-8.18174556351236e-001

4.40762046350642e+004,-1.96170243532623e+001,-8.29583168160625e-001

4.46914855228886e+004,-1.96170535873738e+001,-8.41150504800385e-001

4.53153554118317e+004,-1.96170836339144e+001,-8.52878759688442e-001

4.59479341998812e+004,-1.96171145151916e+001,-8.64770155938859e-001

4.65893434587380e+004,-1.96171462541102e+001,-8.76826946739931e-001

4.72397064571810e+004,-1.96171788741872e+001,-8.89051415736344e-001

4.78991481847569e+004,-1.96172123995676e+001,-9.01445877411110e-001

4.85677953758016e+004,-1.96172468550400e+001,-9.14012677477799e-001

4.92457765337964e+004,-1.96172822660530e+001,-9.26754193269985e-001

4.99332219560642e+004,-1.96173186587311e+001,-9.39672834138814e-001

5.06302637588109e+004,-1.96173560598925e+001,-9.52771041852802e-001

5.13370359025159e+004,-1.96173944970654e+001,-9.66051291000961e-001

5.20536742176771e+004,-1.96174339985059e+001,-9.79516089401300e-001

5.27803164309155e+004,-1.96174745932162e+001,-9.93167978511096e-001

5.35171021914442e+004,-1.96175163109626e+001,-1.00700953384248e+000

5.42641730979066e+004,-1.96175591822940e+001,-1.02104336538059e+000

5.50216727255895e+004,-1.96176032385613e+001,-1.03527211800727e+000

5.57897466540159e+004,-1.96176485119367e+001,-1.04969847192483e+000

5.65685424949235e+004,-1.96176950354334e+001,-1.06432514308776e+000

5.73582099206328e+004,-1.96177428429256e+001,-1.07915488363529e+000

5.81589006928121e+004,-1.96177919691696e+001,-1.09419048232835e+000

5.89707686916437e+004,-1.96178424498241e+001,-1.10943476499034e+000

5.97939699453972e+004,-1.96178943214720e+001,-1.12489059495005e+000

6.06286626604156e+004,-1.96179476216416e+001,-1.14056087349058e+000

6.14750072515201e+004,-1.96180023888293e+001,-1.15644854029941e+000

6.23331663728396e+004,-1.96180586625213e+001,-1.17255657392368e+000

6.32033049490698e+004,-1.96181164832170e+001,-1.18888799222637e+000

6.40855902071694e+004,-1.96181758924521e+001,-1.20544585284925e+000

6.49801917084985e+004,-1.96182369328221e+001,-1.22223325367472e+000

6.58872813814055e+004,-1.96182996480061e+001,-1.23925333329598e+000

6.68070335542691e+004,-1.96183640827912e+001,-1.25650927148697e+000

6.77396249890018e+004,-1.96184302830976e+001,-1.27400428967442e+000

6.86852349150199e+004,-1.96184982960030e+001,-1.29174165141768e+000

6.96440450636895e+004,-1.96185681697682e+001,-1.30972466288613e+000

7.06162397032520e+004,-1.96186399538632e+001,-1.32795667334310e+000

7.16020056742374e+004,-1.96187136989924e+001,-1.34644107563227e+000

7.26015324253724e+004,-1.96187894571219e+001,-1.36518130666411e+000

7.36150120499896e+004,-1.96188672815057e+001,-1.38418084790915e+000

7.46426393229441e+004,-1.96189472267125e+001,-1.40344322589096e+000

7.56846117380472e+004,-1.96190293486533e+001,-1.42297201268293e+000

7.67411295460207e+004,-1.96191137046090e+001,-1.44277082640692e+000

7.78123957929823e+004,-1.96192003532578e+001,-1.46284333173568e+000

7.88986163594682e+004,-1.96192893547035e+001,-1.48319324039513e+000

7.99999999999995e+004,-1.96193807705037e+001,-1.50382431167215e+000

8.11167583832018e+004,-1.96194746636980e+001,-1.52474035292275e+000

8.22491061324848e+004,-1.96195710988371e+001,-1.54594522008106e+000

8.33972608672892e+004,-1.96196701420109e+001,-1.56744281817431e+000

8.45614432449099e+004,-1.96197718608779e+001,-1.58923710183657e+000

8.57418770029029e+004,-1.96198763246940e+001,-1.61133207582425e+000

8.69387890020841e+004,-1.96199836043414e+001,-1.63373179553683e+000

8.81524092701283e+004,-1.96200937723581e+001,-1.65644036753502e+000

8.93829710457770e+004,-1.96202069029662e+001,-1.67946195006461e+000

9.06307108236633e+004,-1.96203230721017e+001,-1.70280075357926e+000

9.18958683997622e+004,-1.96204423574431e+001,-1.72646104126612e+000

9.31786869174758e+004,-1.96205648384402e+001,-1.75044712957304e+000

9.44794129143618e+004,-1.96206905963430e+001,-1.77476338873679e+000

9.57982963695136e+004,-1.96208197142299e+001,-1.79941424331366e+000

9.71355907516031e+004,-1.96209522770363e+001,-1.82440417271015e+000

9.84915530675926e+004,-1.96210883715820e+001,-1.84973771171711e+000

9.98664439121282e+004,-1.96212280865992e+001,-1.87541945104341e+000

1.01260527517622e+005,-1.96213715127596e+001,-1.90145403785147e+000

1.02674071805032e+005,-1.96215187427008e+001,-1.92784617629598e+000

1.04107348435354e+005,-1.96216698710526e+001,-1.95460062806149e+000

1.05560632861831e+005,-1.96218249944628e+001,-1.98172221290305e+000

1.07034204382888e+005,-1.96219842116215e+001,-2.00921580918887e+000

1.08528346195813e+005,-1.96221476232858e+001,-2.03708635444243e+000

1.10043345451179e+005,-1.96223153323025e+001,-2.06533884588977e+000

1.11579493308032e+005,-1.96224874436312e+001,-2.09397834100450e+000

1.13137084989847e+005,-1.96226640643652e+001,-2.12300995805913e+000

1.14716419841265e+005,-1.96228453037522e+001,-2.15243887667430e+000

1.16317801385624e+005,-1.96230312732131e+001,-2.18227033837425e+000

1.17941537383287e+005,-1.96232220863607e+001,-2.21250964714115e+000

1.19587939890794e+005,-1.96234178590158e+001,-2.24316216997541e+000

1.21257325320831e+005,-1.96236187092226e+001,-2.27423333745701e+000

1.22950014503040e+005,-1.96238247572625e+001,-2.30572864431037e+000

1.24666332745679e+005,-1.96240361256659e+001,-2.33765364997500e+000

1.26406609898139e+005,-1.96242529392232e+001,-2.37001397917532e+000

1.28171180414339e+005,-1.96244753249926e+001,-2.40281532250170e+000

1.29960383416997e+005,-1.96247034123072e+001,-2.43606343699011e+000

1.31774562762811e+005,-1.96249373327790e+001,-2.46976414671178e+000

1.33614067108538e+005,-1.96251772203019e+001,-2.50392334336586e+000

1.35479249978003e+005,-1.96254232110511e+001,-2.53854698687985e+000

1.37370469830040e+005,-1.96256754434811e+001,-2.57364110601829e+000

1.39288090127379e+005,-1.96259340583206e+001,-2.60921179899778e+000

1.41232479406504e+005,-1.96261991985652e+001,-2.64526523411118e+000

1.43204011348474e+005,-1.96264710094668e+001,-2.68180765036188e+000

1.45203064850745e+005,-1.96267496385205e+001,-2.71884535810826e+000

1.47230024099979e+005,-1.96270352354484e+001,-2.75638473971972e+000

1.49285278645888e+005,-1.96273279521801e+001,-2.79443225024465e+000

1.51369223476094e+005,-1.96276279428301e+001,-2.83299441809309e+000

1.53482259092041e+005,-1.96279353636720e+001,-2.87207784573315e+000

1.55624791585964e+005,-1.96282503731088e+001,-2.91168921040347e+000

1.57797232718936e+005,-1.96285731316397e+001,-2.95183526484444e+000

1.59999999999999e+005,-1.96289038018236e+001,-2.99252283804631e+000

1.62233516766403e+005,-1.96292425482382e+001,-3.03375883601873e+000

1.64498212264969e+005,-1.96295895374356e+001,-3.07555024258254e+000

1.66794521734578e+005,-1.96299449378938e+001,-3.11790412018366e+000

1.69122886489819e+005,-1.96303089199639e+001,-3.16082761073435e+000

1.71483754005805e+005,-1.96306816558133e+001,-3.20432793647936e+000

1.73877578004168e+005,-1.96310633193649e+001,-3.24841240089364e+000

1.76304818540256e+005,-1.96314540862314e+001,-3.29308838960933e+000

1.78765942091554e+005,-1.96318541336457e+001,-3.33836337137744e+000

1.81261421647326e+005,-1.96322636403871e+001,-3.38424489906387e+000

1.83791736799524e+005,-1.96326827867024e+001,-3.43074061068442e+000

1.86357373834951e+005,-1.96331117542230e+001,-3.47785823047998e+000

1.88958825828723e+005,-1.96335507258779e+001,-3.52560557003243e+000

1.91596592739027e+005,-1.96339998858017e+001,-3.57399052942986e+000

1.94271181503206e+005,-1.96344594192387e+001,-3.62302109847605e+000

1.96983106135185e+005,-1.96349295124426e+001,-3.67270535795254e+000

1.99732887824256e+005,-1.96354103525716e+001,-3.72305148093384e+000

2.02521055035243e+005,-1.96359021275804e+001,-3.77406773415864e+000

2.05348143610063e+005,-1.96364050261073e+001,-3.82576247946174e+000

2.08214696870707e+005,-1.96369192373579e+001,-3.87814417526654e+000

2.11121265723661e+005,-1.96374449509849e+001,-3.93122137814436e+000

2.14068408765776e+005,-1.96379823569655e+001,-3.98500274444112e+000

2.17056692391625e+005,-1.96385316454738e+001,-4.03949703197657e+000

2.20086690902357e+005,-1.96390930067522e+001,-4.09471310181783e+000

2.23158986616063e+005,-1.96396666309792e+001,-4.15065992013025e+000

2.26274169979693e+005,-1.96402527081351e+001,-4.20734656011064e+000

2.29432839682530e+005,-1.96408514278658e+001,-4.26478220400276e+000

2.32635602771247e+005,-1.96414629793455e+001,-4.32297614520163e+000

2.35883074766574e+005,-1.96420875511377e+001,-4.38193779044771e+000

2.39175879781588e+005,-1.96427253310563e+001,-4.44167666211286e+000

2.42514650641661e+005,-1.96433765060265e+001,-4.50220240058503e+000

2.45900029006080e+005,-1.96440412619458e+001,-4.56352476674906e+000

2.49332665491357e+005,-1.96447197835466e+001,-4.62565364457192e+000

2.52813219796278e+005,-1.96454122542604e+001,-4.68859904378873e+000

2.56342360828676e+005,-1.96461188560843e+001,-4.75237110269880e+000

2.59920766833993e+005,-1.96468397694508e+001,-4.81698009106830e+000

2.63549125525621e+005,-1.96475751731012e+001,-4.88243641314419e+000

2.67228134217075e+005,-1.96483252439636e+001,-4.94875061078066e+000

2.70958499956006e+005,-1.96490901570370e+001,-5.01593336668042e+000

2.74740939660078e+005,-1.96498700852804e+001,-5.08399550775114e+000

2.78576180254757e+005,-1.96506651995106e+001,-5.15294800857721e+000

2.82464958813007e+005,-1.96514756683067e+001,-5.22280199501128e+000

2.86408022696948e+005,-1.96523016579244e+001,-5.29356874788111e+000

2.90406129701488e+005,-1.96531433322198e+001,-5.36525970681532e+000

2.94460048199957e+005,-1.96540008525846e+001,-5.43788647418646e+000

2.98570557291775e+005,-1.96548743778927e+001,-5.51146081917050e+000

3.02738446952187e+005,-1.96557640644599e+001,-5.58599468192253e+000

3.06964518184081e+005,-1.96566700660178e+001,-5.66150017786605e+000

3.11249583171928e+005,-1.96575925337024e+001,-5.73798960209467e+000

3.15594465437872e+005,-1.96585316160585e+001,-5.81547543388445e+000

3.19999999999997e+005,-1.96594874590620e+001,-5.89397034131182e+000

3.24467033532806e+005,-1.96604602061588e+001,-5.97348718597715e+000

3.28996424529938e+005,-1.96614499983242e+001,-6.05403902782698e+000

3.33589043469155e+005,-1.96624569741419e+001,-6.13563913007232e+000

3.38245772979638e+005,-1.96634812699031e+001,-6.21830096419900e+000

3.42967508011610e+005,-1.96645230197291e+001,-6.30203821506313e+000

3.47755156008335e+005,-1.96655823557155e+001,-6.38686478606740e+000

3.52609637080511e+005,-1.96666594081006e+001,-6.47279480441170e+000

3.57531884183106e+005,-1.96677543054586e+001,-6.55984262641194e+000

3.62522843294651e+005,-1.96688671749177e+001,-6.64802284287894e+000

3.67583473599047e+005,-1.96699981424040e+001,-6.73735028455198e+000

3.72714747669902e+005,-1.96711473329131e+001,-6.82784002757764e+000

3.77917651657445e+005,-1.96723148708073e+001,-6.91950739902699e+000

3.83193185478053e+005,-1.96735008801423e+001,-7.01236798244181e+000

3.88542363006410e+005,-1.96747054850207e+001,-7.10643762340138e+000

3.93966212270369e+005,-1.96759288099748e+001,-7.20173243510207e+000

3.99465775648511e+005,-1.96771709803778e+001,-7.29826880393891e+000

4.05042110070485e+005,-1.96784321228840e+001,-7.39606339507962e+000

4.10696287220124e+005,-1.96797123658984e+001,-7.49513315802474e+000

4.16429393741414e+005,-1.96810118400745e+001,-7.59549533213977e+000

4.22242531447321e+005,-1.96823306788421e+001,-7.69716745215315e+000

4.28136817531551e+005,-1.96836690189624e+001,-7.80016735360900e+000

4.34113384783250e+005,-1.96850270011132e+001,-7.90451317826520e+000

4.40173381804713e+005,-1.96864047705003e+001,-8.01022337942763e+000

4.46317973232124e+005,-1.96878024774978e+001,-8.11731672721148e+000

4.52548339959385e+005,-1.96892202783146e+001,-8.22581231371966e+000

4.58865679365059e+005,-1.96906583356867e+001,-8.33572955813088e+000

4.65271205542494e+005,-1.96921168195962e+001,-8.44708821168741e+000

4.71766149533147e+005,-1.96935959080134e+001,-8.55990836257602e+000

4.78351759563174e+005,-1.96950957876636e+001,-8.67421044069295e+000

4.85029301283321e+005,-1.96966166548155e+001,-8.79001522228632e+000

4.91800058012158e+005,-1.96981587160922e+001,-8.90734383446993e+000

4.98665330982714e+005,-1.96997221893013e+001,-9.02621775960074e+000

5.05626439592555e+005,-1.97013073042850e+001,-9.14665883951550e+000

5.12684721657352e+005,-1.97029143037875e+001,-9.26868927962130e+000

5.19841533667984e+005,-1.97045434443393e+001,-9.39233165283516e+000

5.27098251051240e+005,-1.97061949971563e+001,-9.51760890337050e+000

5.34456268434150e+005,-1.97078692490528e+001,-9.64454435036402e+000

5.41916999912011e+005,-1.97095665033666e+001,-9.77316169134545e+000

