Freq.,VOut,OutRef

1.00000000000000e+004,-1.17825366622123e+001,-7.81083065578715e-002

1.01395947979003e+004,-1.17825376135651e+001,-7.91985363502091e-002

1.02811382665607e+004,-1.17825385916441e+001,-8.03039800245729e-002

1.04246576084112e+004,-1.17825395971990e+001,-8.14248497417598e-002

1.05701804056138e+004,-1.17825406310017e+001,-8.25613606103592e-002

1.07177346253629e+004,-1.17825416938446e+001,-8.37137307369083e-002

1.08673486252606e+004,-1.17825427865430e+001,-8.48821812597316e-002

1.10190511587661e+004,-1.17825439099347e+001,-8.60669363943619e-002

1.11728713807222e+004,-1.17825450648813e+001,-8.72682234750943e-002

1.13288388529580e+004,-1.17825462522681e+001,-8.84862729989828e-002

1.14869835499703e+004,-1.17825474730057e+001,-8.97213186671947e-002

1.16473358646846e+004,-1.17825487280295e+001,-9.09735974338152e-002

1.18099266142953e+004,-1.17825500183018e+001,-9.22433495452575e-002

1.19747870461893e+004,-1.17825513448116e+001,-9.35308185877179e-002

1.21419488439505e+004,-1.17825527085756e+001,-9.48362515357587e-002

1.23114441334492e+004,-1.17825541106388e+001,-9.61598987954744e-002

1.24833054890161e+004,-1.17825555520756e+001,-9.75020142533445e-002

1.26575659397028e+004,-1.17825570339906e+001,-9.88628553249968e-002

1.28342589756290e+004,-1.17825585575189e+001,-1.00242683002799e-001

1.30134185544193e+004,-1.17825601238279e+001,-1.01641761903032e-001

1.31950791077289e+004,-1.17825617341171e+001,-1.03060360321021e-001

1.33792755478611e+004,-1.17825633896201e+001,-1.04498750276333e-001

1.35660432744767e+004,-1.17825650916046e+001,-1.05957207567034e-001

1.37554181813974e+004,-1.17825668413739e+001,-1.07436011820572e-001

1.39474366635040e+004,-1.17825686402678e+001,-1.08935446546358e-001

1.41421356237309e+004,-1.17825704896637e+001,-1.10455799188809e-001

1.43395524801583e+004,-1.17825723909769e+001,-1.11997361184550e-001

1.45397251732031e+004,-1.17825743456627e+001,-1.13560428011804e-001

1.47426921729110e+004,-1.17825763552173e+001,-1.15145299248325e-001

1.49484924863494e+004,-1.17825784211783e+001,-1.16752278628584e-001

1.51571656651040e+004,-1.17825805451265e+001,-1.18381674098715e-001

1.53687518128801e+004,-1.17825827286866e+001,-1.20033797877586e-001

1.55832915932100e+004,-1.17825849735287e+001,-1.21708966510940e-001

1.58008262372675e+004,-1.17825872813698e+001,-1.23407500932209e-001

1.60213975517924e+004,-1.17825896539745e+001,-1.25129726524607e-001

1.62450479271247e+004,-1.17825920931572e+001,-1.26875973176467e-001

1.64718203453514e+004,-1.17825946007820e+001,-1.28646575350536e-001

1.67017583885674e+004,-1.17825971787658e+001,-1.30441872140082e-001

1.69349062472505e+004,-1.17825998290787e+001,-1.32262207332890e-001

1.71713087287550e+004,-1.17826025537456e+001,-1.34107929477891e-001

1.74110112659224e+004,-1.17826053548482e+001,-1.35979391947077e-001

1.76540599258131e+004,-1.17826082345257e+001,-1.37876953004886e-001

1.79005014185594e+004,-1.17826111949775e+001,-1.39800975868041e-001

1.81503831063432e+004,-1.17826142384638e+001,-1.41751828780136e-001

1.84037530124975e+004,-1.17826173673079e+001,-1.43729885075941e-001

1.86606598307361e+004,-1.17826205838978e+001,-1.45735523251369e-001

1.89211529345119e+004,-1.17826238906880e+001,-1.47769127031547e-001

1.91852823865052e+004,-1.17826272902013e+001,-1.49831085444583e-001

1.94530989482457e+004,-1.17826307850307e+001,-1.51921792891208e-001

1.97246540898671e+004,-1.17826343778410e+001,-1.54041649218901e-001

1.99999999999999e+004,-1.17826380713716e+001,-1.56191059793211e-001

2.02791895958005e+004,-1.17826418684376e+001,-1.58370435575136e-001

2.05622765331213e+004,-1.17826457719327e+001,-1.60580193191833e-001

2.08493152168224e+004,-1.17826497848307e+001,-1.62820755019339e-001

2.11403608112276e+004,-1.17826539101881e+001,-1.65092549253050e-001

2.14354692507258e+004,-1.17826581511457e+001,-1.67396009994027e-001

2.17346972505211e+004,-1.17826625109325e+001,-1.69731577317773e-001

2.20381023175322e+004,-1.17826669928662e+001,-1.72099697362158e-001

2.23457427614443e+004,-1.17826716003567e+001,-1.74500822408179e-001

2.26576777059159e+004,-1.17826763369086e+001,-1.76935410957821e-001

2.29739670999406e+004,-1.17826812061231e+001,-1.79403927820525e-001

2.32946717293690e+004,-1.17826862117019e+001,-1.81906844194360e-001

2.36198532285905e+004,-1.17826913574483e+001,-1.84444637755728e-001

2.39495740923785e+004,-1.17826966472715e+001,-1.87017792741050e-001

2.42838976879009e+004,-1.17827020851884e+001,-1.89626800035342e-001

2.46228882668982e+004,-1.17827076753268e+001,-1.92272157263227e-001

2.49666109780322e+004,-1.17827134219294e+001,-1.94954368870436e-001

2.53151318794055e+004,-1.17827193293548e+001,-1.97673946224811e-001

2.56685179512580e+004,-1.17827254020827e+001,-2.00431407698984e-001

2.60268371088386e+004,-1.17827316447164e+001,-2.03227278764997e-001

2.63901582154578e+004,-1.17827380619858e+001,-2.06062092089497e-001

2.67585510957221e+004,-1.17827446587511e+001,-2.08936387628472e-001

2.71320865489533e+004,-1.17827514400067e+001,-2.11850712719311e-001

2.75108363627948e+004,-1.17827584108842e+001,-2.14805622179317e-001

2.78948733270080e+004,-1.17827655766562e+001,-2.17801678406041e-001

2.82842712474618e+004,-1.17827729427405e+001,-2.20839451473200e-001

2.86791049603164e+004,-1.17827805147038e+001,-2.23919519228195e-001

2.90794503464061e+004,-1.17827882982652e+001,-2.27042467400578e-001

2.94853843458219e+004,-1.17827962993013e+001,-2.30208889695558e-001

2.98969849726987e+004,-1.17828045238493e+001,-2.33419387903672e-001

3.03143313302078e+004,-1.17828129781118e+001,-2.36674572002722e-001

3.07375036257601e+004,-1.17828216684613e+001,-2.39975060262853e-001

3.11665831864199e+004,-1.17828306014451e+001,-2.43321479350858e-001

3.16016524745350e+004,-1.17828397837886e+001,-2.46714464444938e-001

3.20427951035848e+004,-1.17828492224015e+001,-2.50154659334648e-001

3.24900958542493e+004,-1.17828589243818e+001,-2.53642716536105e-001

3.29436406907028e+004,-1.17828688970209e+001,-2.57179297403682e-001

3.34035167771346e+004,-1.17828791478093e+001,-2.60765072236731e-001

3.38698124945009e+004,-1.17828896844405e+001,-2.64400720399782e-001

3.43426174575100e+004,-1.17829005148183e+001,-2.68086930428567e-001

3.48220225318448e+004,-1.17829116470602e+001,-2.71824400154713e-001

3.53081198516260e+004,-1.17829230895046e+001,-2.75613836813854e-001

3.58010028371187e+004,-1.17829348507156e+001,-2.79455957168218e-001

3.63007662126863e+004,-1.17829469394894e+001,-2.83351487623634e-001

3.68075060249948e+004,-1.17829593648602e+001,-2.87301164348352e-001

3.73213196614721e+004,-1.17829721361064e+001,-2.91305733395116e-001

3.78423058690237e+004,-1.17829852627564e+001,-2.95365950823477e-001

3.83705647730104e+004,-1.17829987545958e+001,-2.99482582822125e-001

3.89061978964912e+004,-1.17830126216738e+001,-3.03656405829016e-001

3.94493081797342e+004,-1.17830268743095e+001,-3.07888206664590e-001

3.99999999999998e+004,-1.17830415230995e+001,-3.12178782648761e-001

4.05583791916010e+004,-1.17830565789244e+001,-3.16528941734899e-001

4.11245530662425e+004,-1.17830720529565e+001,-3.20939502632813e-001

4.16986304336447e+004,-1.17830879566666e+001,-3.25411294940776e-001

4.22807216224550e+004,-1.17831043018320e+001,-3.29945159274196e-001

4.28709385014515e+004,-1.17831211005444e+001,-3.34541947395453e-001

4.34693945010421e+004,-1.17831383652171e+001,-3.39202522348305e-001

4.40762046350642e+004,-1.17831561085936e+001,-3.43927758588280e-001

4.46914855228886e+004,-1.17831743437556e+001,-3.48718542115735e-001

4.53153554118317e+004,-1.17831930841317e+001,-3.53575770612005e-001

4.59479341998812e+004,-1.17832123435053e+001,-3.58500353573966e-001

4.65893434587380e+004,-1.17832321360241e+001,-3.63493212448884e-001

4.72397064571810e+004,-1.17832524762086e+001,-3.68555280772739e-001

4.78991481847569e+004,-1.17832733789614e+001,-3.73687504305332e-001

4.85677953758016e+004,-1.17832948595760e+001,-3.78890841172659e-001

4.92457765337964e+004,-1.17833169337473e+001,-3.84166261999955e-001

4.99332219560642e+004,-1.17833396175802e+001,-3.89514750055848e-001

5.06302637588109e+004,-1.17833629275997e+001,-3.94937301390381e-001

5.13370359025159e+004,-1.17833868807615e+001,-4.00434924974578e-001

5.20536742176771e+004,-1.17834114944613e+001,-4.06008642845276e-001

5.27803164309155e+004,-1.17834367865459e+001,-4.11659490242052e-001

5.35171021914442e+004,-1.17834627753235e+001,-4.17388515752386e-001

5.42641730979066e+004,-1.17834894795743e+001,-4.23196781452097e-001

5.50216727255895e+004,-1.17835169185617e+001,-4.29085363049757e-001

5.57897466540159e+004,-1.17835451120434e+001,-4.35055350027549e-001

5.65685424949235e+004,-1.17835740802823e+001,-4.41107845787054e-001

5.73582099206328e+004,-1.17836038440585e+001,-4.47243967789725e-001

5.81589006928121e+004,-1.17836344246805e+001,-4.53464847702777e-001

5.89707686916437e+004,-1.17836658439977e+001,-4.59771631539827e-001

5.97939699453972e+004,-1.17836981244112e+001,-4.66165479808303e-001

6.06286626604156e+004,-1.17837312888872e+001,-4.72647567648124e-001

6.14750072515201e+004,-1.17837653609686e+001,-4.79219084979230e-001

6.23331663728396e+004,-1.17838003647877e+001,-4.85881236640969e-001

6.32033049490698e+004,-1.17838363250785e+001,-4.92635242537675e-001

6.40855902071694e+004,-1.17838732671901e+001,-4.99482337777858e-001

6.49801917084985e+004,-1.17839112170992e+001,-5.06423772819303e-001

6.58872813814055e+004,-1.17839502014230e+001,-5.13460813607824e-001

6.68070335542691e+004,-1.17839902474329e+001,-5.20594741717880e-001

6.77396249890018e+004,-1.17840313830668e+001,-5.27826854496291e-001

6.86852349150199e+004,-1.17840736369438e+001,-5.35158465195517e-001

6.96440450636895e+004,-1.17841170383766e+001,-5.42590903116335e-001

7.06162397032520e+004,-1.17841616173857e+001,-5.50125513744034e-001

7.16020056742374e+004,-1.17842074047128e+001,-5.57763658883625e-001

7.26015324253724e+004,-1.17842544318342e+001,-5.65506716795986e-001

7.36150120499896e+004,-1.17843027309751e+001,-5.73356082332162e-001

7.46426393229441e+004,-1.17843523351233e+001,-5.81313167063019e-001

7.56846117380472e+004,-1.17844032780427e+001,-5.89379399413796e-001

7.67411295460207e+004,-1.17844555942868e+001,-5.97556224792564e-001

7.78123957929823e+004,-1.17845093192134e+001,-6.05845105715410e-001

7.88986163594682e+004,-1.17845644889977e+001,-6.14247521936276e-001

7.99999999999995e+004,-1.17846211406458e+001,-6.22764970568352e-001

8.11167583832018e+004,-1.17846793120086e+001,-6.31398966208195e-001

8.22491061324848e+004,-1.17847390417953e+001,-6.40151041053693e-001

8.33972608672892e+004,-1.17848003695865e+001,-6.49022745023298e-001

8.45614432449099e+004,-1.17848633358474e+001,-6.58015645872694e-001

8.57418770029029e+004,-1.17849279819407e+001,-6.67131329304728e-001

8.69387890020841e+004,-1.17849943501397e+001,-6.76371399083819e-001

8.81524092701283e+004,-1.17850624836403e+001,-6.85737477141305e-001

8.93829710457770e+004,-1.17851324265734e+001,-6.95231203681426e-001

9.06307108236633e+004,-1.17852042240167e+001,-7.04854237286736e-001

9.18958683997622e+004,-1.17852779220063e+001,-7.14608255012615e-001

9.31786869174758e+004,-1.17853535675477e+001,-7.24494952488303e-001

9.44794129143618e+004,-1.17854312086262e+001,-7.34516044008367e-001

9.57982963695136e+004,-1.17855108942176e+001,-7.44673262623959e-001

9.71355907516031e+004,-1.17855926742969e+001,-7.54968360229687e-001

9.84915530675926e+004,-1.17856765998481e+001,-7.65403107648362e-001

9.98664439121282e+004,-1.17857627228725e+001,-7.75979294708789e-001

1.01260527517622e+005,-1.17858510963953e+001,-7.86698730327592e-001

1.02674071805032e+005,-1.17859417744739e+001,-7.97563242578445e-001

1.04107348435354e+005,-1.17860348122028e+001,-8.08574678764744e-001

1.05560632861831e+005,-1.17861302657195e+001,-8.19734905484779e-001

1.07034204382888e+005,-1.17862281922084e+001,-8.31045808695843e-001

1.08528346195813e+005,-1.17863286499041e+001,-8.42509293772780e-001

1.10043345451179e+005,-1.17864316980934e+001,-8.54127285565704e-001

1.11579493308032e+005,-1.17865373971163e+001,-8.65901728449357e-001

1.13137084989847e+005,-1.17866458083658e+001,-8.77834586375469e-001

1.14716419841265e+005,-1.17867569942864e+001,-8.89927842916085e-001

1.16317801385624e+005,-1.17868710183707e+001,-9.02183501306305e-001

1.17941537383287e+005,-1.17869879451554e+001,-9.14603584484246e-001

1.19587939890794e+005,-1.17871078402150e+001,-9.27190135125569e-001

1.21257325320831e+005,-1.17872307701543e+001,-9.39945215677541e-001

1.22950014503040e+005,-1.17873568025982e+001,-9.52870908389466e-001

1.24666332745679e+005,-1.17874860061817e+001,-9.65969315339360e-001

1.26406609898139e+005,-1.17876184505354e+001,-9.79242558461020e-001

1.28171180414339e+005,-1.17877542062709e+001,-9.92692779565203e-001

1.29960383416997e+005,-1.17878933449630e+001,-1.00632214036300e+000

1.31774562762811e+005,-1.17880359391302e+001,-1.02013282248625e+000

1.33614067108538e+005,-1.17881820622124e+001,-1.03412702750529e+000

1.35479249978003e+005,-1.17883317885465e+001,-1.04830697694880e+000

1.37370469830040e+005,-1.17884851933390e+001,-1.06267491232239e+000

1.39288090127379e+005,-1.17886423526365e+001,-1.07723309512614e+000

1.41232479406504e+005,-1.17888033432926e+001,-1.09198380687554e+000

1.43204011348474e+005,-1.17889682429326e+001,-1.10692934912267e+000

1.45203064850745e+005,-1.17891371299145e+001,-1.12207204347925e+000

1.47230024099979e+005,-1.17893100832878e+001,-1.13741423164229e+000

1.49285278645888e+005,-1.17894871827474e+001,-1.15295827542511e+000

1.51369223476094e+005,-1.17896685085859e+001,-1.16870655679188e+000

1.53482259092041e+005,-1.17898541416412e+001,-1.18466147789460e+000

1.55624791585964e+005,-1.17900441632410e+001,-1.20082546112247e+000

1.57797232718936e+005,-1.17902386551430e+001,-1.21720094915188e+000

1.59999999999999e+005,-1.17904376994721e+001,-1.23379040500984e+000

1.62233516766403e+005,-1.17906413786527e+001,-1.25059631214354e+000

1.64498212264969e+005,-1.17908497753378e+001,-1.26762117450208e+000

1.66794521734578e+005,-1.17910629723332e+001,-1.28486751662876e+000

1.69122886489819e+005,-1.17912810525179e+001,-1.30233788377015e+000

1.71483754005805e+005,-1.17915040987598e+001,-1.32003484199383e+000

1.73877578004168e+005,-1.17917321938273e+001,-1.33796097832822e+000

1.76304818540256e+005,-1.17919654202963e+001,-1.35611890091570e+000

1.78765942091554e+005,-1.17922038604522e+001,-1.37451123918875e+000

1.81261421647326e+005,-1.17924475961880e+001,-1.39314064406204e+000

1.83791736799524e+005,-1.17926967088969e+001,-1.41200978815387e+000

1.86357373834951e+005,-1.17929512793607e+001,-1.43112136602696e+000

1.88958825828723e+005,-1.17932113876336e+001,-1.45047809445679e+000

1.91596592739027e+005,-1.17934771129200e+001,-1.47008271273148e+000

1.94271181503206e+005,-1.17937485334494e+001,-1.48993798297850e+000

1.96983106135185e+005,-1.17940257263449e+001,-1.51004669052569e+000

1.99732887824256e+005,-1.17943087674878e+001,-1.53041164429776e+000

2.02521055035243e+005,-1.17945977313774e+001,-1.55103567724830e+000

2.05348143610063e+005,-1.17948926909857e+001,-1.57192164683290e+000

2.08214696870707e+005,-1.17951937176081e+001,-1.59307243552337e+000

2.11121265723661e+005,-1.17955008807095e+001,-1.61449095136415e+000

2.14068408765776e+005,-1.17958142477657e+001,-1.63618012857956e+000

2.17056692391625e+005,-1.17961338841014e+001,-1.65814292822491e+000

2.20086690902357e+005,-1.17964598527234e+001,-1.68038233889195e+000

2.23158986616063e+005,-1.17967922141501e+001,-1.70290137746896e+000

2.26274169979693e+005,-1.17971310262381e+001,-1.72570308995346e+000

2.29432839682530e+005,-1.17974763440042e+001,-1.74879055232815e+000

2.32635602771247e+005,-1.17978282194459e+001,-1.77216687149376e+000

2.35883074766574e+005,-1.17981867013571e+001,-1.79583518626900e+000

2.39175879781588e+005,-1.17985518351437e+001,-1.81979866845329e+000

2.42514650641661e+005,-1.17989236626348e+001,-1.84406052396100e+000

2.45900029006080e+005,-1.17993022218936e+001,-1.86862399402294e+000

2.49332665491357e+005,-1.17996875470266e+001,-1.89349235646223e+000

2.52813219796278e+005,-1.18000796679915e+001,-1.91866892704491e+000

2.56342360828676e+005,-1.18004786104056e+001,-1.94415706090496e+000

2.59920766833993e+005,-1.18008843953530e+001,-1.96996015405078e+000

2.63549125525621e+005,-1.18012970391935e+001,-1.99608164494910e+000

2.67228134217075e+005,-1.18017165533718e+001,-2.02252501619101e+000

2.70958499956006e+005,-1.18021429442292e+001,-2.04929379624149e+000

2.74740939660078e+005,-1.18025762128170e+001,-2.07639156127054e+000

2.78576180254757e+005,-1.18030163547129e+001,-2.10382193707210e+000

2.82464958813007e+005,-1.18034633598409e+001,-2.13158860106624e+000

2.86408022696948e+005,-1.18039172122961e+001,-2.15969528438663e+000

2.90406129701488e+005,-1.18043778901733e+001,-2.18814577405559e+000

2.94460048199957e+005,-1.18048453654021e+001,-2.21694391524341e+000

2.98570557291775e+005,-1.18053196035876e+001,-2.24609361361508e+000

3.02738446952187e+005,-1.18058005638591e+001,-2.27559883775754e+000

3.06964518184081e+005,-1.18062881987254e+001,-2.30546362169529e+000

3.11249583171928e+005,-1.18067824539390e+001,-2.33569206748473e+000

3.15594465437872e+005,-1.18072832683702e+001,-2.36628834789003e+000

3.19999999999997e+005,-1.18077905738900e+001,-2.39725670913778e+000

3.24467033532806e+005,-1.18083042952639e+001,-2.42860147374710e+000

3.28996424529938e+005,-1.18088243500582e+001,-2.46032704343300e+000

3.33589043469155e+005,-1.18093506485563e+001,-2.49243790207973e+000

3.38245772979638e+005,-1.18098830936897e+001,-2.52493861878132e+000

3.42967508011610e+005,-1.18104215809808e+001,-2.55783385094335e+000

3.47755156008335e+005,-1.18109659985006e+001,-2.59112834744595e+000

3.52609637080511e+005,-1.18115162268405e+001,-2.62482695185722e+000

3.57531884183106e+005,-1.18120721390994e+001,-2.65893460569957e+000

3.62522843294651e+005,-1.18126336008857e+001,-2.69345635175830e+000

3.67583473599047e+005,-1.18132004703367e+001,-2.72839733742721e+000

3.72714747669902e+005,-1.18137725981531e+001,-2.76376281808975e+000

3.77917651657445e+005,-1.18143498276505e+001,-2.79955816052584e+000

3.83193185478053e+005,-1.18149319948288e+001,-2.83578884633836e+000

3.88542363006410e+005,-1.18155189284575e+001,-2.87246047539481e+000

3.93966212270369e+005,-1.18161104501798e+001,-2.90957876927503e+000

3.99465775648511e+005,-1.18167063746332e+001,-2.94714957472160e+000

4.05042110070485e+005,-1.18173065095881e+001,-2.98517886708097e+000

4.10696287220124e+005,-1.18179106561035e+001,-3.02367275373363e+000

4.16429393741414e+005,-1.18185186087006e+001,-3.06263747750176e+000

4.22242531447321e+005,-1.18191301555526e+001,-3.10207942003165e+000

4.28136817531551e+005,-1.18197450786923e+001,-3.14200510513913e+000

4.34113384783250e+005,-1.18203631542350e+001,-3.18242120211520e+000

4.40173381804713e+005,-1.18209841526184e+001,-3.22333452898211e+000

4.46317973232124e+005,-1.18216078388571e+001,-3.26475205569496e+000

4.52548339959385e+005,-1.18222339728123e+001,-3.30668090728153e+000

4.58865679365059e+005,-1.18228623094758e+001,-3.34912836691431e+000

4.65271205542494e+005,-1.18234925992661e+001,-3.39210187890946e+000

4.71766149533147e+005,-1.18241245883392e+001,-3.43560905164444e+000

4.78351759563174e+005,-1.18247580189085e+001,-3.47965766039344e+000

4.85029301283321e+005,-1.18253926295772e+001,-3.52425565007129e+000

4.91800058012158e+005,-1.18260281556792e+001,-3.56941113788471e+000

4.98665330982714e+005,-1.18266643296291e+001,-3.61513241588440e+000

5.05626439592555e+005,-1.18273008812791e+001,-3.66142795341768e+000

5.12684721657352e+005,-1.18279375382827e+001,-3.70830639947425e+000

5.19841533667984e+005,-1.18285740264626e+001,-3.75577658492696e+000

5.27098251051240e+005,-1.18292100701830e+001,-3.80384752466388e+000

5.34456268434150e+005,-1.18298453927239e+001,-3.85252841961024e+000

5.41916999912011e+005,-1.18304797166574e+001,-3.90182865863830e+000

