Freq.,VOut,OutRef

1.00000000000000e+004,-4.23229369849046e+001,-4.56784609617901e-001

1.01395947979003e+004,-4.23229410541672e+001,-4.63160879040770e-001

1.02811382665607e+004,-4.23229452378059e+001,-4.69626149118797e-001

1.04246576084112e+004,-4.23229495390348e+001,-4.76181661883187e-001

1.05701804056138e+004,-4.23229539611580e+001,-4.82828676688211e-001

1.07177346253629e+004,-4.23229585075727e+001,-4.89568470450965e-001

1.08673486252606e+004,-4.23229631817714e+001,-4.96402337897137e-001

1.10190511587661e+004,-4.23229679873450e+001,-5.03331591807075e-001

1.11728713807222e+004,-4.23229729279844e+001,-5.10357563270945e-001

1.13288388529580e+004,-4.23229780074853e+001,-5.17481601937382e-001

1.14869835499703e+004,-4.23229832297490e+001,-5.24705076277712e-001

1.16473358646846e+004,-4.23229885987869e+001,-5.32029373844259e-001

1.18099266142953e+004,-4.23229941187228e+001,-5.39455901537916e-001

1.19747870461893e+004,-4.23229997937965e+001,-5.46986085874258e-001

1.21419488439505e+004,-4.23230056283668e+001,-5.54621373260722e-001

1.23114441334492e+004,-4.23230116269147e+001,-5.62363230269492e-001

1.24833054890161e+004,-4.23230177940472e+001,-5.70213143920243e-001

1.26575659397028e+004,-4.23230241345005e+001,-5.78172621962661e-001

1.28342589756290e+004,-4.23230306531439e+001,-5.86243193167242e-001

1.30134185544193e+004,-4.23230373549834e+001,-5.94426407614311e-001

1.31950791077289e+004,-4.23230442451654e+001,-6.02723836993119e-001

1.33792755478611e+004,-4.23230513289808e+001,-6.11137074900109e-001

1.35660432744767e+004,-4.23230586118692e+001,-6.19667737144881e-001

1.37554181813974e+004,-4.23230660994226e+001,-6.28317462057701e-001

1.39474366635040e+004,-4.23230737973900e+001,-6.37087910804043e-001

1.41421356237309e+004,-4.23230817116821e+001,-6.45980767699108e-001

1.43395524801583e+004,-4.23230898483750e+001,-6.54997740532690e-001

1.45397251732031e+004,-4.23230982137156e+001,-6.64140560892078e-001

1.47426921729110e+004,-4.23231068141260e+001,-6.73410984495318e-001

1.49484924863494e+004,-4.23231156562086e+001,-6.82810791523352e-001

1.51571656651040e+004,-4.23231247467509e+001,-6.92341786962628e-001

1.53687518128801e+004,-4.23231340927311e+001,-7.02005800947874e-001

1.55832915932100e+004,-4.23231437013228e+001,-7.11804689110277e-001

1.58008262372675e+004,-4.23231535799013e+001,-7.21740332932818e-001

1.60213975517924e+004,-4.23231637360483e+001,-7.31814640108254e-001

1.62450479271247e+004,-4.23231741775587e+001,-7.42029544902999e-001

1.64718203453514e+004,-4.23231849124455e+001,-7.52387008525466e-001

1.67017583885674e+004,-4.23231959489469e+001,-7.62889019498922e-001

1.69349062472505e+004,-4.23232072955318e+001,-7.73537594041514e-001

1.71713087287550e+004,-4.23232189609068e+001,-7.84334776449419e-001

1.74110112659224e+004,-4.23232309540228e+001,-7.95282639485388e-001

1.76540599258131e+004,-4.23232432840811e+001,-8.06383284775319e-001

1.79005014185594e+004,-4.23232559605417e+001,-8.17638843204692e-001

1.81503831063432e+004,-4.23232689931292e+001,-8.29051475327450e-001

1.84037530124975e+004,-4.23232823918412e+001,-8.40623371773563e-001

1.86606598307361e+004,-4.23232961669555e+001,-8.52356753667821e-001

1.89211529345119e+004,-4.23233103290376e+001,-8.64253873050636e-001

1.91852823865052e+004,-4.23233248889497e+001,-8.76317013305971e-001

1.94530989482457e+004,-4.23233398578579e+001,-8.88548489595235e-001

1.97246540898671e+004,-4.23233552472415e+001,-9.00950649296280e-001

1.99999999999999e+004,-4.23233710689011e+001,-9.13525872450146e-001

2.02791895958005e+004,-4.23233873349682e+001,-9.26276572210106e-001

2.05622765331213e+004,-4.23234040579142e+001,-9.39205195301585e-001

2.08493152168224e+004,-4.23234212505594e+001,-9.52314222484904e-001

2.11403608112276e+004,-4.23234389260836e+001,-9.65606169024892e-001

2.14354692507258e+004,-4.23234570980355e+001,-9.79083585169013e-001

2.17346972505211e+004,-4.23234757803433e+001,-9.92749056627602e-001

2.20381023175322e+004,-4.23234949873248e+001,-1.00660520506650e+000

2.23457427614443e+004,-4.23235147336991e+001,-1.02065468859875e+000

2.26576777059159e+004,-4.23235350345970e+001,-1.03490020229181e+000

2.29739670999406e+004,-4.23235559055729e+001,-1.04934447867333e+000

2.32946717293690e+004,-4.23235773626165e+001,-1.06399028824928e+000

2.36198532285905e+004,-4.23235994221649e+001,-1.07884044002630e+000

2.39495740923785e+004,-4.23236221011150e+001,-1.09389778204189e+000

2.42838976879009e+004,-4.23236454168363e+001,-1.10916520190226e+000

2.46228882668982e+004,-4.23236693871842e+001,-1.12464562732595e+000

2.49666109780322e+004,-4.23236940305137e+001,-1.14034202669511e+000

2.53151318794055e+004,-4.23237193656926e+001,-1.15625740961661e+000

2.56685179512580e+004,-4.23237454121163e+001,-1.17239482748577e+000

2.60268371088386e+004,-4.23237721897226e+001,-1.18875737406278e+000

2.63901582154578e+004,-4.23237997190064e+001,-1.20534818605242e+000

2.67585510957221e+004,-4.23238280210349e+001,-1.22217044369526e+000

2.71320865489533e+004,-4.23238571174646e+001,-1.23922737136226e+000

2.75108363627948e+004,-4.23238870305565e+001,-1.25652223816257e+000

2.78948733270080e+004,-4.23239177831933e+001,-1.27405835855532e+000

2.82842712474618e+004,-4.23239493988971e+001,-1.29183909296932e+000

2.86791049603164e+004,-4.23239819018461e+001,-1.30986784843580e+000

2.90794503464061e+004,-4.23240153168940e+001,-1.32814807922184e+000

2.94853843458219e+004,-4.23240496695875e+001,-1.34668328748032e+000

2.98969849726987e+004,-4.23240849861866e+001,-1.36547702390049e+000

3.03143313302078e+004,-4.23241212936837e+001,-1.38453288837358e+000

3.07375036257601e+004,-4.23241586198239e+001,-1.40385453066338e+000

3.11665831864199e+004,-4.23241969931260e+001,-1.42344565108677e+000

3.16016524745350e+004,-4.23242364429039e+001,-1.44331000120200e+000

3.20427951035848e+004,-4.23242769992884e+001,-1.46345138450854e+000

3.24900958542493e+004,-4.23243186932499e+001,-1.48387365715228e+000

3.29436406907028e+004,-4.23243615566217e+001,-1.50458072864273e+000

3.34035167771346e+004,-4.23244056221233e+001,-1.52557656257889e+000

3.38698124945009e+004,-4.23244509233857e+001,-1.54686517738271e+000

3.43426174575100e+004,-4.23244974949754e+001,-1.56845064704500e+000

3.48220225318448e+004,-4.23245453724215e+001,-1.59033710187749e+000

3.53081198516260e+004,-4.23245945922409e+001,-1.61252872927759e+000

3.58010028371187e+004,-4.23246451919665e+001,-1.63502977450031e+000

3.63007662126863e+004,-4.23246972101745e+001,-1.65784454144176e+000

3.68075060249948e+004,-4.23247506865134e+001,-1.68097739343230e+000

3.73213196614721e+004,-4.23248056617334e+001,-1.70443275403851e+000

3.78423058690237e+004,-4.23248621777164e+001,-1.72821510787638e+000

3.83705647730104e+004,-4.23249202775076e+001,-1.75232900143499e+000

3.89061978964912e+004,-4.23249800053468e+001,-1.77677904390909e+000

3.94493081797342e+004,-4.23250414067013e+001,-1.80156990804338e+000

3.99999999999998e+004,-4.23251045282998e+001,-1.82670633098673e+000

4.05583791916010e+004,-4.23251694181665e+001,-1.85219311515728e+000

4.11245530662425e+004,-4.23252361256568e+001,-1.87803512911777e+000

4.16986304336447e+004,-4.23253047014935e+001,-1.90423730846183e+000

4.22807216224550e+004,-4.23253751978041e+001,-1.93080465671162e+000

4.28709385014515e+004,-4.23254476681594e+001,-1.95774224622554e+000

4.34693945010421e+004,-4.23255221676122e+001,-1.98505521911813e+000

4.40762046350642e+004,-4.23255987527384e+001,-2.01274878818991e+000

4.46914855228886e+004,-4.23256774816779e+001,-2.04082823786932e+000

4.53153554118317e+004,-4.23257584141773e+001,-2.06929892516547e+000

4.59479341998812e+004,-4.23258416116335e+001,-2.09816628063313e+000

4.65893434587380e+004,-4.23259271371382e+001,-2.12743580934799e+000

4.72397064571810e+004,-4.23260150555245e+001,-2.15711309189448e+000

4.78991481847569e+004,-4.23261054334132e+001,-2.18720378536503e+000

4.85677953758016e+004,-4.23261983392615e+001,-2.21771362437135e+000

4.92457765337964e+004,-4.23262938434131e+001,-2.24864842206548e+000

4.99332219560642e+004,-4.23263920181480e+001,-2.28001407117727e+000

5.06302637588109e+004,-4.23264929377358e+001,-2.31181654505862e+000

5.13370359025159e+004,-4.23265966784883e+001,-2.34406189874383e+000

5.20536742176771e+004,-4.23267033188153e+001,-2.37675627001903e+000

5.27803164309155e+004,-4.23268129392801e+001,-2.40990588050738e+000

5.35171021914442e+004,-4.23269256226580e+001,-2.44351703676222e+000

5.42641730979066e+004,-4.23270414539948e+001,-2.47759613137649e+000

5.50216727255895e+004,-4.23271605206682e+001,-2.51214964410182e+000

5.57897466540159e+004,-4.23272829124497e+001,-2.54718414298201e+000

5.65685424949235e+004,-4.23274087215687e+001,-2.58270628549713e+000

5.73582099206328e+004,-4.23275380427777e+001,-2.61872281972281e+000

5.81589006928121e+004,-4.23276709734194e+001,-2.65524058549898e+000

5.89707686916437e+004,-4.23278076134958e+001,-2.69226651561420e+000

5.97939699453972e+004,-4.23279480657385e+001,-2.72980763700098e+000

6.06286626604156e+004,-4.23280924356809e+001,-2.76787107194385e+000

6.14750072515201e+004,-4.23282408317325e+001,-2.80646403930201e+000

6.23331663728396e+004,-4.23283933652545e+001,-2.84559385574262e+000

6.32033049490698e+004,-4.23285501506376e+001,-2.88526793698783e+000

6.40855902071694e+004,-4.23287113053818e+001,-2.92549379907581e+000

6.49801917084985e+004,-4.23288769501779e+001,-2.96627905963322e+000

6.58872813814055e+004,-4.23290472089913e+001,-3.00763143916023e+000

6.68070335542691e+004,-4.23292222091470e+001,-3.04955876233124e+000

6.77396249890018e+004,-4.23294020814181e+001,-3.09206895930540e+000

6.86852349150199e+004,-4.23295869601150e+001,-3.13517006705235e+000

6.96440450636895e+004,-4.23297769831775e+001,-3.17887023068951e+000

7.06162397032520e+004,-4.23299722922691e+001,-3.22317770483318e+000

7.16020056742374e+004,-4.23301730328732e+001,-3.26810085496261e+000

7.26015324253724e+004,-4.23303793543915e+001,-3.31364815879690e+000

7.36150120499896e+004,-4.23305914102455e+001,-3.35982820768460e+000

7.46426393229441e+004,-4.23308093579795e+001,-3.40664970800620e+000

7.56846117380472e+004,-4.23310333593661e+001,-3.45412148259096e+000

7.67411295460207e+004,-4.23312635805147e+001,-3.50225247214445e+000

7.78123957929823e+004,-4.23315001919821e+001,-3.55105173669033e+000

7.88986163594682e+004,-4.23317433688855e+001,-3.60052845702468e+000

7.99999999999995e+004,-4.23319932910185e+001,-3.65069193618288e+000

8.11167583832018e+004,-4.23322501429692e+001,-3.70155160092005e+000

8.22491061324848e+004,-4.23325141142416e+001,-3.75311700320291e+000

8.33972608672892e+004,-4.23327853993788e+001,-3.80539782171478e+000

8.45614432449099e+004,-4.23330641980903e+001,-3.85840386337403e+000

8.57418770029029e+004,-4.23333507153803e+001,-3.91214506486320e+000

8.69387890020841e+004,-4.23336451616805e+001,-3.96663149417288e+000

8.81524092701283e+004,-4.23339477529852e+001,-4.02187335215541e+000

8.93829710457770e+004,-4.23342587109887e+001,-4.07788097409286e+000

9.06307108236633e+004,-4.23345782632265e+001,-4.13466483127665e+000

9.18958683997622e+004,-4.23349066432190e+001,-4.19223553259822e+000

9.31786869174758e+004,-4.23352440906188e+001,-4.25060382615403e+000

9.44794129143618e+004,-4.23355908513604e+001,-4.30978060085973e+000

9.57982963695136e+004,-4.23359471778134e+001,-4.36977688807828e+000

9.71355907516031e+004,-4.23363133289391e+001,-4.43060386325927e+000

9.84915530675926e+004,-4.23366895704496e+001,-4.49227284758955e+000

9.98664439121282e+004,-4.23370761749710e+001,-4.55479530965553e+000

1.01260527517622e+005,-4.23374734222092e+001,-4.61818286711753e+000

1.02674071805032e+005,-4.23378815991195e+001,-4.68244728839473e+000

1.04107348435354e+005,-4.23383010000794e+001,-4.74760049436214e+000

1.05560632861831e+005,-4.23387319270646e+001,-4.81365456005824e+000

1.07034204382888e+005,-4.23391746898287e+001,-4.88062171640435e+000

1.08528346195813e+005,-4.23396296060865e+001,-4.94851435193358e+000

1.10043345451179e+005,-4.23400970017003e+001,-5.01734501453388e+000

1.11579493308032e+005,-4.23405772108704e+001,-5.08712641319747e+000

1.13137084989847e+005,-4.23410705763287e+001,-5.15787141978586e+000

1.14716419841265e+005,-4.23415774495358e+001,-5.22959307080169e+000

1.16317801385624e+005,-4.23420981908826e+001,-5.30230456917388e+000

1.17941537383287e+005,-4.23426331698947e+001,-5.37601928605237e+000

1.19587939890794e+005,-4.23431827654408e+001,-5.45075076261332e+000

1.21257325320831e+005,-4.23437473659449e+001,-5.52651271187566e+000

1.22950014503040e+005,-4.23443273696024e+001,-5.60331902052759e+000

1.24666332745679e+005,-4.23449231846000e+001,-5.68118375076438e+000

1.26406609898139e+005,-4.23455352293388e+001,-5.76012114213594e+000

1.28171180414339e+005,-4.23461639326626e+001,-5.84014561340587e+000

1.29960383416997e+005,-4.23468097340888e+001,-5.92127176442061e+000

1.31774562762811e+005,-4.23474730840439e+001,-6.00351437799021e+000

1.33614067108538e+005,-4.23481544441033e+001,-6.08688842177885e+000

1.35479249978003e+005,-4.23488542872339e+001,-6.17140905020806e+000

1.37370469830040e+005,-4.23495730980426e+001,-6.25709160636925e+000

1.39288090127379e+005,-4.23503113730270e+001,-6.34395162394848e+000

1.41232479406504e+005,-4.23510696208319e+001,-6.43200482916354e+000

1.43204011348474e+005,-4.23518483625084e+001,-6.52126714271149e+000

1.45203064850745e+005,-4.23526481317789e+001,-6.61175468172887e+000

1.47230024099979e+005,-4.23534694753049e+001,-6.70348376176402e+000

1.49285278645888e+005,-4.23543129529601e+001,-6.79647089876248e+000

1.51369223476094e+005,-4.23551791381077e+001,-6.89073281106502e+000

1.53482259092041e+005,-4.23560686178814e+001,-6.98628642141847e+000

1.55624791585964e+005,-4.23569819934725e+001,-7.08314885900214e+000

1.57797232718936e+005,-4.23579198804199e+001,-7.18133746146606e+000

1.59999999999999e+005,-4.23588829089059e+001,-7.28086977698592e+000

1.62233516766403e+005,-4.23598717240565e+001,-7.38176356633259e+000

1.64498212264969e+005,-4.23608869862459e+001,-7.48403680495706e+000

1.66794521734578e+005,-4.23619293714074e+001,-7.58770768509268e+000

1.69122886489819e+005,-4.23629995713478e+001,-7.69279461787337e+000

1.71483754005805e+005,-4.23640982940682e+001,-7.79931623547098e+000

1.73877578004168e+005,-4.23652262640893e+001,-7.90729139324993e+000

1.76304818540256e+005,-4.23663842227829e+001,-8.01673917194124e+000

1.78765942091554e+005,-4.23675729287083e+001,-8.12767887983729e+000

1.81261421647326e+005,-4.23687931579554e+001,-8.24013005500626e+000

1.83791736799524e+005,-4.23700457044928e+001,-8.35411246752909e+000

1.86357373834951e+005,-4.23713313805233e+001,-8.46964612175782e+000

1.88958825828723e+005,-4.23726510168445e+001,-8.58675125859859e+000

1.91596592739027e+005,-4.23740054632174e+001,-8.70544835781722e+000

1.94271181503206e+005,-4.23753955887409e+001,-8.82575814037116e+000

1.96983106135185e+005,-4.23768222822343e+001,-8.94770157076624e+000

1.99732887824256e+005,-4.23782864526266e+001,-9.07129985944140e+000

2.02521055035243e+005,-4.23797890293546e+001,-9.19657446517938e+000

2.05348143610063e+005,-4.23813309627682e+001,-9.32354709754755e+000

2.08214696870707e+005,-4.23829132245451e+001,-9.45223971936676e+000

2.11121265723661e+005,-4.23845368081140e+001,-9.58267454921108e+000

2.14068408765776e+005,-4.23862027290876e+001,-9.71487406393728e+000

2.17056692391625e+005,-4.23879120257050e+001,-9.84886100124650e+000

2.20086690902357e+005,-4.23896657592851e+001,-9.98465836227733e+000

2.23158986616063e+005,-4.23914650146904e+001,-1.01222894142315e+001

2.26274169979693e+005,-4.23933109008024e+001,-1.02617776930319e+001

2.29432839682530e+005,-4.23952045510093e+001,-1.04031470060142e+001

2.32635602771247e+005,-4.23971471237055e+001,-1.05464214346503e+001

2.35883074766574e+005,-4.23991398028056e+001,-1.06916253373065e+001

2.39175879781588e+005,-4.24011837982715e+001,-1.08387833520326e+001

2.42514650641661e+005,-4.24032803466540e+001,-1.09879203993838e+001

2.45900029006080e+005,-4.24054307116507e+001,-1.11390616852753e+001

2.49332665491357e+005,-4.24076361846795e+001,-1.12922327038656e+001

2.52813219796278e+005,-4.24098980854687e+001,-1.14474592404712e+001

2.56342360828676e+005,-4.24122177626658e+001,-1.16047673745074e+001

2.59920766833993e+005,-4.24145965944644e+001,-1.17641834824576e+001

2.63549125525621e+005,-4.24170359892507e+001,-1.19257342408651e+001

2.67228134217075e+005,-4.24195373862706e+001,-1.20894466293466e+001

2.70958499956006e+005,-4.24221022563182e+001,-1.22553479336260e+001

2.74740939660078e+005,-4.24247321024469e+001,-1.24234657485827e+001

2.78576180254757e+005,-4.24274284607030e+001,-1.25938279813124e+001

2.82464958813007e+005,-4.24301929008849e+001,-1.27664628541948e+001

2.86408022696948e+005,-4.24330270273267e+001,-1.29413989079664e+001

2.90406129701488e+005,-4.24359324797087e+001,-1.31186650047900e+001

2.94460048199957e+005,-4.24389109338950e+001,-1.32982903313176e+001

2.98570557291775e+005,-4.24419641027996e+001,-1.34803044017387e+001

3.02738446952187e+005,-4.24450937372819e+001,-1.36647370608100e+001

3.06964518184081e+005,-4.24483016270730e+001,-1.38516184868559e+001

3.11249583171928e+005,-4.24515896017331e+001,-1.40409791947345e+001

3.15594465437872e+005,-4.24549595316409e+001,-1.42328500387596e+001

3.19999999999997e+005,-4.24584133290175e+001,-1.44272622155693e+001

3.24467033532806e+005,-4.24619529489836e+001,-1.46242472669314e+001

3.28996424529938e+005,-4.24655803906520e+001,-1.48238370824772e+001

3.33589043469155e+005,-4.24692976982563e+001,-1.50260639023495e+001

3.38245772979638e+005,-4.24731069623167e+001,-1.52309603197548e+001

3.42967508011610e+005,-4.24770103208419e+001,-1.54385592834090e+001

3.47755156008335e+005,-4.24810099605708e+001,-1.56488940998593e+001

3.52609637080511e+005,-4.24851081182515e+001,-1.58619984356742e+001

3.57531884183106e+005,-4.24893070819604e+001,-1.60779063194822e+001

3.62522843294651e+005,-4.24936091924600e+001,-1.62966521438489e+001

3.67583473599047e+005,-4.24980168445970e+001,-1.65182706669734e+001

3.72714747669902e+005,-4.25025324887403e+001,-1.67427970141900e+001

3.77917651657445e+005,-4.25071586322587e+001,-1.69702666792610e+001

3.83193185478053e+005,-4.25118978410393e+001,-1.72007155254373e+001

3.88542363006410e+005,-4.25167527410448e+001,-1.74341797862765e+001

3.93966212270369e+005,-4.25217260199110e+001,-1.76706960661963e+001

3.99465775648511e+005,-4.25268204285826e+001,-1.79103013407465e+001

4.05042110070485e+005,-4.25320387829880e+001,-1.81530329565818e+001

4.10696287220124e+005,-4.25373839657514e+001,-1.83989286311144e+001

4.16429393741414e+005,-4.25428589279409e+001,-1.86480264518307e+001

4.22242531447321e+005,-4.25484666908536e+001,-1.89003648752500e+001

4.28136817531551e+005,-4.25542103478334e+001,-1.91559827255081e+001

4.34113384783250e+005,-4.25600930661224e+001,-1.94149191925455e+001

4.40173381804713e+005,-4.25661180887435e+001,-1.96772138298816e+001

4.46317973232124e+005,-4.25722887364115e+001,-1.99429065519550e+001

4.52548339959385e+005,-4.25786084094730e+001,-2.02120376310125e+001

4.58865679365059e+005,-4.25850805898700e+001,-2.04846476935267e+001

4.65271205542494e+005,-4.25917088431271e+001,-2.07607777161245e+001

4.71766149533147e+005,-4.25984968203586e+001,-2.10404690210086e+001

4.78351759563174e+005,-4.26054482602936e+001,-2.13237632708550e+001

4.85029301283321e+005,-4.26125669913149e+001,-2.16107024631678e+001

4.91800058012158e+005,-4.26198569335104e+001,-2.19013289240765e+001

4.98665330982714e+005,-4.26273221007316e+001,-2.21956853015610e+001

5.05626439592555e+005,-4.26349666026582e+001,-2.24938145580861e+001

5.12684721657352e+005,-4.26427946468624e+001,-2.27957599626352e+001

5.19841533667984e+005,-4.26508105408722e+001,-2.31015650821262e+001

5.27098251051240e+005,-4.26590186942266e+001,-2.34112737722008e+001

5.34456268434150e+005,-4.26674236205216e+001,-2.37249301673733e+001

5.41916999912011e+005,-4.26760299394399e+001,-2.40425786705292e+001

