Freq.,VOut,OutRef

1.00000000000000e+004,-1.71710981931095e+001,-9.70258074572787e-002

1.01395947979003e+004,-1.71710990799229e+001,-9.83801319600936e-002

1.02811382665607e+004,-1.71710999916506e+001,-9.97533576599275e-002

1.04246576084112e+004,-1.71711009289919e+001,-1.01145748218165e-001

1.05701804056138e+004,-1.71711018926661e+001,-1.02557570966976e-001

1.07177346253629e+004,-1.71711028834125e+001,-1.03989096963746e-001

1.08673486252606e+004,-1.71711039019908e+001,-1.05440601041844e-001

1.10190511587661e+004,-1.71711049491822e+001,-1.06912361860666e-001

1.11728713807222e+004,-1.71711060257900e+001,-1.08404661959782e-001

1.13288388529580e+004,-1.71711071326397e+001,-1.09917787814240e-001

1.14869835499703e+004,-1.71711082705799e+001,-1.11452029887874e-001

1.16473358646846e+004,-1.71711094404834e+001,-1.13007682686389e-001

1.18099266142953e+004,-1.71711106432472e+001,-1.14585044816724e-001

1.19747870461893e+004,-1.71711118797931e+001,-1.16184419044473e-001

1.21419488439505e+004,-1.71711131510695e+001,-1.17806112344887e-001

1.23114441334492e+004,-1.71711144580502e+001,-1.19450435971684e-001

1.24833054890161e+004,-1.71711158017377e+001,-1.21117705503789e-001

1.26575659397028e+004,-1.71711171831612e+001,-1.22808240918224e-001

1.28342589756290e+004,-1.71711186033798e+001,-1.24522366637888e-001

1.30134185544193e+004,-1.71711200634813e+001,-1.26260411605929e-001

1.31950791077289e+004,-1.71711215645849e+001,-1.28022709336162e-001

1.33792755478611e+004,-1.71711231078404e+001,-1.29809597984507e-001

1.35660432744767e+004,-1.71711246944300e+001,-1.31621420411056e-001

1.37554181813974e+004,-1.71711263255690e+001,-1.33458524242821e-001

1.39474366635040e+004,-1.71711280025067e+001,-1.35321261942040e-001

1.41421356237309e+004,-1.71711297265271e+001,-1.37209990872141e-001

1.43395524801583e+004,-1.71711314989508e+001,-1.39125073362574e-001

1.45397251732031e+004,-1.71711333211346e+001,-1.41066876783126e-001

1.47426921729110e+004,-1.71711351944734e+001,-1.43035773608666e-001

1.49484924863494e+004,-1.71711371204014e+001,-1.45032141491035e-001

1.51571656651040e+004,-1.71711391003923e+001,-1.47056363331401e-001

1.53687518128801e+004,-1.71711411359618e+001,-1.49108827347892e-001

1.55832915932100e+004,-1.71711432286671e+001,-1.51189927157226e-001

1.58008262372675e+004,-1.71711453801095e+001,-1.53300061840788e-001

1.60213975517924e+004,-1.71711475919348e+001,-1.55439636023640e-001

1.62450479271247e+004,-1.71711498658348e+001,-1.57609059949627e-001

1.64718203453514e+004,-1.71711522035482e+001,-1.59808749562106e-001

1.67017583885674e+004,-1.71711546068629e+001,-1.62039126575264e-001

1.69349062472505e+004,-1.71711570776161e+001,-1.64300618558783e-001

1.71713087287550e+004,-1.71711596176967e+001,-1.66593659017678e-001

1.74110112659224e+004,-1.71711622290456e+001,-1.68918687473425e-001

1.76540599258131e+004,-1.71711649136587e+001,-1.71276149542020e-001

1.79005014185594e+004,-1.71711676735871e+001,-1.73666497024371e-001

1.81503831063432e+004,-1.71711705109391e+001,-1.76090187987242e-001

1.84037530124975e+004,-1.71711734278816e+001,-1.78547686850403e-001

1.86606598307361e+004,-1.71711764266423e+001,-1.81039464469843e-001

1.89211529345119e+004,-1.71711795095107e+001,-1.83565998231381e-001

1.91852823865052e+004,-1.71711826788397e+001,-1.86127772138358e-001

1.94530989482457e+004,-1.71711859370485e+001,-1.88725276895970e-001

1.97246540898671e+004,-1.71711892866231e+001,-1.91359010012344e-001

1.99999999999999e+004,-1.71711927301185e+001,-1.94029475885232e-001

2.02791895958005e+004,-1.71711962701615e+001,-1.96737185895032e-001

2.05622765331213e+004,-1.71711999094510e+001,-1.99482658506276e-001

2.08493152168224e+004,-1.71712036507618e+001,-2.02266419354931e-001

2.11403608112276e+004,-1.71712074969453e+001,-2.05089001355280e-001

2.14354692507258e+004,-1.71712114509321e+001,-2.07950944793222e-001

2.17346972505211e+004,-1.71712155157345e+001,-2.10852797425988e-001

2.20381023175322e+004,-1.71712196944484e+001,-2.13795114585972e-001

2.23457427614443e+004,-1.71712239902552e+001,-2.16778459284283e-001

2.26576777059159e+004,-1.71712284064249e+001,-2.19803402311718e-001

2.29739670999406e+004,-1.71712329463182e+001,-2.22870522345495e-001

2.32946717293690e+004,-1.71712376133890e+001,-2.25980406055549e-001

2.36198532285905e+004,-1.71712424111867e+001,-2.29133648214342e-001

2.39495740923785e+004,-1.71712473433589e+001,-2.32330851804455e-001

2.42838976879009e+004,-1.71712524136547e+001,-2.35572628128412e-001

2.46228882668982e+004,-1.71712576259267e+001,-2.38859596923507e-001

2.49666109780322e+004,-1.71712629841338e+001,-2.42192386472885e-001

2.53151318794055e+004,-1.71712684923447e+001,-2.45571633723316e-001

2.56685179512580e+004,-1.71712741547405e+001,-2.48997984398081e-001

2.60268371088386e+004,-1.71712799756177e+001,-2.52472093117267e-001

2.63901582154578e+004,-1.71712859593914e+001,-2.55994623515968e-001

2.67585510957221e+004,-1.71712921105987e+001,-2.59566248365284e-001

2.71320865489533e+004,-1.71712984339018e+001,-2.63187649694448e-001

2.75108363627948e+004,-1.71713049340914e+001,-2.66859518914617e-001

2.78948733270080e+004,-1.71713116160900e+001,-2.70582556943511e-001

2.82842712474618e+004,-1.71713184849558e+001,-2.74357474334514e-001

2.86791049603164e+004,-1.71713255458862e+001,-2.78184991400077e-001

2.90794503464061e+004,-1.71713328042216e+001,-2.82065838345849e-001

2.94853843458219e+004,-1.71713402654490e+001,-2.86000755400275e-001

2.98969849726987e+004,-1.71713479352065e+001,-2.89990492945744e-001

3.03143313302078e+004,-1.71713558192863e+001,-2.94035811657499e-001

3.07375036257601e+004,-1.71713639236400e+001,-2.98137482634359e-001

3.11665831864199e+004,-1.71713722543822e+001,-3.02296287540040e-001

3.16016524745350e+004,-1.71713808177951e+001,-3.06513018739390e-001

3.20427951035848e+004,-1.71713896203325e+001,-3.10788479443170e-001

3.24900958542493e+004,-1.71713986686249e+001,-3.15123483845506e-001

3.29436406907028e+004,-1.71714079694843e+001,-3.19518857269945e-001

3.34035167771346e+004,-1.71714175299081e+001,-3.23975436317060e-001

3.38698124945009e+004,-1.71714273570853e+001,-3.28494069007406e-001

3.43426174575100e+004,-1.71714374584001e+001,-3.33075614936300e-001

3.48220225318448e+004,-1.71714478414385e+001,-3.37720945416465e-001

3.53081198516260e+004,-1.71714585139925e+001,-3.42430943638207e-001

3.58010028371187e+004,-1.71714694840662e+001,-3.47206504816929e-001

3.63007662126863e+004,-1.71714807598808e+001,-3.52048536352524e-001

3.68075060249948e+004,-1.71714923498809e+001,-3.56957957984039e-001

3.73213196614721e+004,-1.71715042627395e+001,-3.61935701951254e-001

3.78423058690237e+004,-1.71715165073649e+001,-3.66982713152196e-001

3.83705647730104e+004,-1.71715290929061e+001,-3.72099949306012e-001

3.89061978964912e+004,-1.71715420287594e+001,-3.77288381119348e-001

3.94493081797342e+004,-1.71715553245745e+001,-3.82548992447790e-001

3.99999999999998e+004,-1.71715689902614e+001,-3.87882780466352e-001

4.05583791916010e+004,-1.71715830359968e+001,-3.93290755836592e-001

4.11245530662425e+004,-1.71715974722308e+001,-3.98773942877704e-001

4.16986304336447e+004,-1.71716123096945e+001,-4.04333379739327e-001

4.22807216224550e+004,-1.71716275594065e+001,-4.09970118573908e-001

4.28709385014515e+004,-1.71716432326807e+001,-4.15685225713386e-001

4.34693945010421e+004,-1.71716593411332e+001,-4.21479781847030e-001

4.40762046350642e+004,-1.71716758966907e+001,-4.27354882198311e-001

4.46914855228886e+004,-1.71716929115978e+001,-4.33311636706492e-001

4.53153554118317e+004,-1.71717103984249e+001,-4.39351170210246e-001

4.59479341998812e+004,-1.71717283700768e+001,-4.45474622627842e-001

4.65893434587380e+004,-1.71717468398005e+001,-4.51683149146905e-001

4.72397064571810e+004,-1.71717658211942e+001,-4.57977920407982e-001

4.78991481847569e+004,-1.71717853282155e+001,-4.64360122695083e-001

4.85677953758016e+004,-1.71718053751909e+001,-4.70830958123887e-001

4.92457765337964e+004,-1.71718259768240e+001,-4.77391644835084e-001

4.99332219560642e+004,-1.71718471482052e+001,-4.84043417189199e-001

5.06302637588109e+004,-1.71718689048211e+001,-4.90787525957592e-001

5.13370359025159e+004,-1.71718912625643e+001,-4.97625238519736e-001

5.20536742176771e+004,-1.71719142377424e+001,-5.04557839064576e-001

5.27803164309155e+004,-1.71719378470888e+001,-5.11586628785231e-001

5.35171021914442e+004,-1.71719621077723e+001,-5.18712926082213e-001

5.42641730979066e+004,-1.71719870374076e+001,-5.25938066764229e-001

5.50216727255895e+004,-1.71720126540660e+001,-5.33263404252678e-001

5.57897466540159e+004,-1.71720389762857e+001,-5.40690309785982e-001

5.65685424949235e+004,-1.71720660230831e+001,-5.48220172625300e-001

5.73582099206328e+004,-1.71720938139634e+001,-5.55854400263776e-001

5.81589006928121e+004,-1.71721223689325e+001,-5.63594418630880e-001

5.89707686916437e+004,-1.71721517085076e+001,-5.71441672308328e-001

5.97939699453972e+004,-1.71721818537297e+001,-5.79397624736137e-001

6.06286626604156e+004,-1.71722128261748e+001,-5.87463758426558e-001

6.14750072515201e+004,-1.71722446479661e+001,-5.95641575177736e-001

6.23331663728396e+004,-1.71722773417858e+001,-6.03932596288123e-001

6.32033049490698e+004,-1.71723109308882e+001,-6.12338362769353e-001

6.40855902071694e+004,-1.71723454391112e+001,-6.20860435567038e-001

6.49801917084985e+004,-1.71723808908898e+001,-6.29500395772897e-001

6.58872813814055e+004,-1.71724173112682e+001,-6.38259844846805e-001

6.68070335542691e+004,-1.71724547259134e+001,-6.47140404831854e-001

6.77396249890018e+004,-1.71724931611276e+001,-6.56143718577980e-001

6.86852349150199e+004,-1.71725326438621e+001,-6.65271449958891e-001

6.96440450636895e+004,-1.71725732017302e+001,-6.74525284093674e-001

7.06162397032520e+004,-1.71726148630208e+001,-6.83906927569270e-001

7.16020056742374e+004,-1.71726576567119e+001,-6.93418108661704e-001

7.26015324253724e+004,-1.71727016124849e+001,-7.03060577557420e-001

7.36150120499896e+004,-1.71727467607371e+001,-7.12836106578025e-001

7.46426393229441e+004,-1.71727931325971e+001,-7.22746490401371e-001

7.56846117380472e+004,-1.71728407599375e+001,-7.32793546285980e-001

7.67411295460207e+004,-1.71728896753896e+001,-7.42979114293751e-001

7.78123957929823e+004,-1.71729399123571e+001,-7.53305057514259e-001

7.88986163594682e+004,-1.71729915050302e+001,-7.63773262287516e-001

7.99999999999995e+004,-1.71730444883998e+001,-7.74385638428429e-001

8.11167583832018e+004,-1.71730988982713e+001,-7.85144119448881e-001

8.22491061324848e+004,-1.71731547712787e+001,-7.96050662782931e-001

8.33972608672892e+004,-1.71732121448988e+001,-8.07107250007398e-001

8.45614432449099e+004,-1.71732710574647e+001,-8.18315887066716e-001

8.57418770029029e+004,-1.71733315481795e+001,-8.29678604495060e-001

8.69387890020841e+004,-1.71733936571308e+001,-8.41197457635785e-001

8.81524092701283e+004,-1.71734574253031e+001,-8.52874526866146e-001

8.93829710457770e+004,-1.71735228945919e+001,-8.64711917815563e-001

9.06307108236633e+004,-1.71735901078164e+001,-8.76711761588079e-001

9.18958683997622e+004,-1.71736591087327e+001,-8.88876214979355e-001

9.31786869174758e+004,-1.71737299420463e+001,-9.01207460696792e-001

9.44794129143618e+004,-1.71738026534243e+001,-9.13707707577616e-001

9.57982963695136e+004,-1.71738772895074e+001,-9.26379190804974e-001

9.71355907516031e+004,-1.71739538979220e+001,-9.39224172124736e-001

9.84915530675926e+004,-1.71740325272903e+001,-9.52244940061718e-001

9.98664439121282e+004,-1.71741132272420e+001,-9.65443810131652e-001

1.01260527517622e+005,-1.71741960484241e+001,-9.78823125056453e-001

1.02674071805032e+005,-1.71742810425105e+001,-9.92385254976103e-001

1.04107348435354e+005,-1.71743682622111e+001,-1.00613259765944e+000

1.05560632861831e+005,-1.71744577612802e+001,-1.02006757871536e+000

1.07034204382888e+005,-1.71745495945242e+001,-1.03419265180136e+000

1.08528346195813e+005,-1.71746438178084e+001,-1.04851029883221e+000

1.10043345451179e+005,-1.71747404880630e+001,-1.06302303018856e+000

1.11579493308032e+005,-1.71748396632886e+001,-1.07773338492182e+000

1.13137084989847e+005,-1.71749414025601e+001,-1.09264393096135e+000

1.14716419841265e+005,-1.71750457660304e+001,-1.10775726531874e+000

1.16317801385624e+005,-1.71751528149320e+001,-1.12307601429347e+000

1.17941537383287e+005,-1.71752626115783e+001,-1.13860283367627e+000

1.19587939890794e+005,-1.71753752193634e+001,-1.15434040895264e+000

1.21257325320831e+005,-1.71754907027606e+001,-1.17029145550659e+000

1.22950014503040e+005,-1.71756091273194e+001,-1.18645871882531e+000

1.24666332745679e+005,-1.71757305596613e+001,-1.20284497470122e+000

1.26406609898139e+005,-1.71758550674737e+001,-1.21945302943773e+000

1.28171180414339e+005,-1.71759827195027e+001,-1.23628572005290e+000

1.29960383416997e+005,-1.71761135855439e+001,-1.25334591448654e+000

1.31774562762811e+005,-1.71762477364310e+001,-1.27063651180677e+000

1.33614067108538e+005,-1.71763852440238e+001,-1.28816044241871e+000

1.35479249978003e+005,-1.71765261811922e+001,-1.30592066827740e+000

1.37370469830040e+005,-1.71766706218005e+001,-1.32392018309902e+000

1.39288090127379e+005,-1.71768186406876e+001,-1.34216201257876e+000

1.41232479406504e+005,-1.71769703136459e+001,-1.36064921461113e+000

1.43204011348474e+005,-1.71771257173980e+001,-1.37938487951240e+000

1.45203064850745e+005,-1.71772849295699e+001,-1.39837213025223e+000

1.47230024099979e+005,-1.71774480286635e+001,-1.41761412268405e+000

1.49285278645888e+005,-1.71776150940241e+001,-1.43711404578858e+000

1.51369223476094e+005,-1.71777862058076e+001,-1.45687512191735e+000

1.53482259092041e+005,-1.71779614449432e+001,-1.47690060704933e+000

1.55624791585964e+005,-1.71781408930932e+001,-1.49719379105261e+000

1.57797232718936e+005,-1.71783246326117e+001,-1.51775799795483e+000

1.59999999999999e+005,-1.71785127464973e+001,-1.53859658622734e+000

1.62233516766403e+005,-1.71787053183450e+001,-1.55971294907730e+000

1.64498212264969e+005,-1.71789024322941e+001,-1.58111051475216e+000

1.66794521734578e+005,-1.71791041729719e+001,-1.60279274685998e+000

1.69122886489819e+005,-1.71793106254353e+001,-1.62476314470298e+000

1.71483754005805e+005,-1.71795218751082e+001,-1.64702524362521e+000

1.73877578004168e+005,-1.71797380077153e+001,-1.66958261538064e+000

1.76304818540256e+005,-1.71799591092125e+001,-1.69243886851752e+000

1.78765942091554e+005,-1.71801852657137e+001,-1.71559764878359e+000

1.81261421647326e+005,-1.71804165634136e+001,-1.73906263955376e+000

1.83791736799524e+005,-1.71806530885068e+001,-1.76283756227763e+000

1.86357373834951e+005,-1.71808949271038e+001,-1.78692617695606e+000

1.88958825828723e+005,-1.71811421651418e+001,-1.81133228264209e+000

1.91596592739027e+005,-1.71813948882932e+001,-1.83605971796858e+000

1.94271181503206e+005,-1.71816531818693e+001,-1.86111236170907e+000

1.96983106135185e+005,-1.71819171307209e+001,-1.88649413336774e+000

1.99732887824256e+005,-1.71821868191345e+001,-1.91220899380570e+000

2.02521055035243e+005,-1.71824623307255e+001,-1.93826094590017e+000

2.05348143610063e+005,-1.71827437483271e+001,-1.96465403524484e+000

2.08214696870707e+005,-1.71830311538764e+001,-1.99139235088594e+000

2.11121265723661e+005,-1.71833246282964e+001,-2.01848002610551e+000

2.14068408765776e+005,-1.71836242513750e+001,-2.04592123924377e+000

2.17056692391625e+005,-1.71839301016408e+001,-2.07372021457092e+000

2.20086690902357e+005,-1.71842422562361e+001,-2.10188122320531e+000

2.23158986616063e+005,-1.71845607907861e+001,-2.13040858408475e+000

2.26274169979693e+005,-1.71848857792669e+001,-2.15930666498791e+000

2.29432839682530e+005,-1.71852172938699e+001,-2.18857988361172e+000

2.32635602771247e+005,-1.71855554048645e+001,-2.21823270870625e+000

2.35883074766574e+005,-1.71859001804589e+001,-2.24826966126810e+000

2.39175879781588e+005,-1.71862516866592e+001,-2.27869531579540e+000

2.42514650641661e+005,-1.71866099871272e+001,-2.30951430160651e+000

2.45900029006080e+005,-1.71869751430373e+001,-2.34073130422232e+000

2.49332665491357e+005,-1.71873472129326e+001,-2.37235106681827e+000

2.52813219796278e+005,-1.71877262525812e+001,-2.40437839174329e+000

2.56342360828676e+005,-1.71881123148324e+001,-2.43681814211037e+000

2.59920766833993e+005,-1.71885054494740e+001,-2.46967524345845e+000

2.63549125525621e+005,-1.71889057030896e+001,-2.50295468549053e+000

2.67228134217075e+005,-1.71893131189194e+001,-2.53666152388281e+000

2.70958499956006e+005,-1.71897277367213e+001,-2.57080088217476e+000

2.74740939660078e+005,-1.71901495926358e+001,-2.60537795373218e+000

2.78576180254757e+005,-1.71905787190538e+001,-2.64039800379142e+000

2.82464958813007e+005,-1.71910151444880e+001,-2.67586637158085e+000

2.86408022696948e+005,-1.71914588934492e+001,-2.71178847252153e+000

2.90406129701488e+005,-1.71919099863271e+001,-2.74816980050696e+000

2.94460048199957e+005,-1.71923684392770e+001,-2.78501593026358e+000

2.98570557291775e+005,-1.71928342641128e+001,-2.82233251978702e+000

3.02738446952187e+005,-1.71933074682067e+001,-2.86012531286062e+000

3.06964518184081e+005,-1.71937880543967e+001,-2.89840014164800e+000

3.11249583171928e+005,-1.71942760209021e+001,-2.93716292936324e+000

3.15594465437872e+005,-1.71947713612480e+001,-2.97641969301682e+000

3.19999999999997e+005,-1.71952740641994e+001,-3.01617654623332e+000

3.24467033532806e+005,-1.71957841137051e+001,-3.05643970214029e+000

3.28996424529938e+005,-1.71963014888531e+001,-3.09721547632679e+000

3.33589043469155e+005,-1.71968261638364e+001,-3.13851028986816e+000

3.38245772979638e+005,-1.71973581079318e+001,-3.18033067241149e+000

3.42967508011610e+005,-1.71978972854912e+001,-3.22268326532457e+000

3.47755156008335e+005,-1.71984436559450e+001,-3.26557482489828e+000

3.52609637080511e+005,-1.71989971738210e+001,-3.30901222560275e+000

3.57531884183106e+005,-1.71995577887759e+001,-3.35300246339137e+000

3.62522843294651e+005,-1.72001254456425e+001,-3.39755265904835e+000

3.67583473599047e+005,-1.72007000844913e+001,-3.44267006157629e+000

3.72714747669902e+005,-1.72012816407085e+001,-3.48836205161626e+000

3.77917651657445e+005,-1.72018700450889e+001,-3.53463614489870e+000

3.83193185478053e+005,-1.72024652239453e+001,-3.58149999571619e+000

3.88542363006410e+005,-1.72030670992343e+001,-3.62896140041587e+000

3.93966212270369e+005,-1.72036755886986e+001,-3.67702830090225e+000

3.99465775648511e+005,-1.72042906060260e+001,-3.72570878814748e+000

4.05042110070485e+005,-1.72049120610244e+001,-3.77501110570258e+000

4.10696287220124e+005,-1.72055398598147e+001,-3.82494365320080e+000

4.16429393741414e+005,-1.72061739050393e+001,-3.87551498985139e+000

4.22242531447321e+005,-1.72068140960873e+001,-3.92673383791434e+000

4.28136817531551e+005,-1.72074603293361e+001,-3.97860908615065e+000

4.34113384783250e+005,-1.72081124984088e+001,-4.03114979324446e+000

4.40173381804713e+005,-1.72087704944471e+001,-4.08436519118661e+000

4.46317973232124e+005,-1.72094342063999e+001,-4.13826468861817e+000

4.52548339959385e+005,-1.72101035213258e+001,-4.19285787412573e+000

4.58865679365059e+005,-1.72107783247106e+001,-4.24815451948427e+000

4.65271205542494e+005,-1.72114585007972e+001,-4.30416458284250e+000

4.71766149533147e+005,-1.72121439329301e+001,-4.36089821184279e+000

4.78351759563174e+005,-1.72128345039105e+001,-4.41836574667677e+000

4.85029301283321e+005,-1.72135300963632e+001,-4.47657772306685e+000

4.91800058012158e+005,-1.72142305931145e+001,-4.53554487517304e+000

4.98665330982714e+005,-1.72149358775792e+001,-4.59527813841987e+000

5.05626439592555e+005,-1.72156458341568e+001,-4.65578865224152e+000

5.12684721657352e+005,-1.72163603486351e+001,-4.71708776274203e+000

5.19841533667984e+005,-1.72170793086008e+001,-4.77918702526755e+000

5.27098251051240e+005,-1.72178026038559e+001,-4.84209820689141e+000

5.34456268434150e+005,-1.72185301268388e+001,-4.90583328880753e+000

5.41916999912011e+005,-1.72192617730494e+001,-4.97040446863453e+000

