Freq.,VOut,OutRef

1.00000000000000e+004,-1.71566996403246e+001,-1.75660053754200e-001

1.01395947979003e+004,-1.71567002856464e+001,-1.78112120617964e-001

1.02811382665607e+004,-1.71567009491015e+001,-1.80598414679249e-001

1.04246576084112e+004,-1.71567016311995e+001,-1.83119413628351e-001

1.05701804056138e+004,-1.71567023324637e+001,-1.85675601823643e-001

1.07177346253629e+004,-1.71567030534322e+001,-1.88267470379888e-001

1.08673486252606e+004,-1.71567037946588e+001,-1.90895517259955e-001

1.10190511587661e+004,-1.71567045567120e+001,-1.93560247376523e-001

1.11728713807222e+004,-1.71567053401770e+001,-1.96262172682962e-001

1.13288388529580e+004,-1.71567061456547e+001,-1.99001812276261e-001

1.14869835499703e+004,-1.71567069737635e+001,-2.01779692492100e-001

1.16473358646846e+004,-1.71567078251387e+001,-2.04596347008642e-001

1.18099266142953e+004,-1.71567087004334e+001,-2.07452316950339e-001

1.19747870461893e+004,-1.71567096003194e+001,-2.10348150984924e-001

1.21419488439505e+004,-1.71567105254871e+001,-2.13284405434689e-001

1.23114441334492e+004,-1.71567114766461e+001,-2.16261644382645e-001

1.24833054890161e+004,-1.71567124545262e+001,-2.19280439776815e-001

1.26575659397028e+004,-1.71567134598775e+001,-2.22341371542741e-001

1.28342589756290e+004,-1.71567144934710e+001,-2.25445027695061e-001

1.30134185544193e+004,-1.71567155560996e+001,-2.28592004446245e-001

1.31950791077289e+004,-1.71567166485783e+001,-2.31782906325040e-001

1.33792755478611e+004,-1.71567177717447e+001,-2.35018346290352e-001

1.35660432744767e+004,-1.71567189264602e+001,-2.38298945848234e-001

1.37554181813974e+004,-1.71567201136102e+001,-2.41625335171370e-001

1.39474366635040e+004,-1.71567213341048e+001,-2.44998153219362e-001

1.41421356237309e+004,-1.71567225888799e+001,-2.48418047861179e-001

1.43395524801583e+004,-1.71567238788972e+001,-2.51885675999096e-001

1.45397251732031e+004,-1.71567252051458e+001,-2.55401703693938e-001

1.47426921729110e+004,-1.71567265686419e+001,-2.58966806294174e-001

1.49484924863494e+004,-1.71567279704308e+001,-2.62581668560561e-001

1.51571656651040e+004,-1.71567294115866e+001,-2.66246984804533e-001

1.53687518128801e+004,-1.71567308932137e+001,-2.69963459013143e-001

1.55832915932100e+004,-1.71567324164472e+001,-2.73731804988545e-001

1.58008262372675e+004,-1.71567339824543e+001,-2.77552746482042e-001

1.60213975517924e+004,-1.71567355924344e+001,-2.81427017335233e-001

1.62450479271247e+004,-1.71567372476210e+001,-2.85355361615709e-001

1.64718203453514e+004,-1.71567389492816e+001,-2.89338533763912e-001

1.67017583885674e+004,-1.71567406987194e+001,-2.93377298733690e-001

1.69349062472505e+004,-1.71567424972741e+001,-2.97472432139866e-001

1.71713087287550e+004,-1.71567443463228e+001,-3.01624720406510e-001

1.74110112659224e+004,-1.71567462472810e+001,-3.05834960916779e-001

1.76540599258131e+004,-1.71567482016038e+001,-3.10103962165404e-001

1.79005014185594e+004,-1.71567502107871e+001,-3.14432543911676e-001

1.81503831063432e+004,-1.71567522763685e+001,-3.18821537336880e-001

1.84037530124975e+004,-1.71567543999286e+001,-3.23271785203675e-001

1.86606598307361e+004,-1.71567565830920e+001,-3.27784142014774e-001

1.89211529345119e+004,-1.71567588275290e+001,-3.32359474177147e-001

1.91852823865052e+004,-1.71567611349561e+001,-3.36998660167657e-001

1.94530989482457e+004,-1.71567635071382e+001,-3.41702590698641e-001

1.97246540898671e+004,-1.71567659458890e+001,-3.46472168889785e-001

1.99999999999999e+004,-1.71567684530731e+001,-3.51308310438506e-001

2.02791895958005e+004,-1.71567710306074e+001,-3.56211943793798e-001

2.05622765331213e+004,-1.71567736804614e+001,-3.61184010336904e-001

2.08493152168224e+004,-1.71567764046604e+001,-3.66225464555366e-001

2.11403608112276e+004,-1.71567792052858e+001,-3.71337274227052e-001

2.14354692507258e+004,-1.71567820844770e+001,-3.76520420605379e-001

2.17346972505211e+004,-1.71567850444331e+001,-3.81775898603798e-001

2.20381023175322e+004,-1.71567880874146e+001,-3.87104716985697e-001

2.23457427614443e+004,-1.71567912157447e+001,-3.92507898556905e-001

2.26576777059159e+004,-1.71567944318114e+001,-3.97986480359190e-001

2.29739670999406e+004,-1.71567977380693e+001,-4.03541513867723e-001

2.32946717293690e+004,-1.71568011370412e+001,-4.09174065189349e-001

2.36198532285905e+004,-1.71568046313202e+001,-4.14885215266817e-001

2.39495740923785e+004,-1.71568082235715e+001,-4.20676060083436e-001

2.42838976879009e+004,-1.71568119165342e+001,-4.26547710870640e-001

2.46228882668982e+004,-1.71568157130239e+001,-4.32501294318254e-001

2.49666109780322e+004,-1.71568196159343e+001,-4.38537952788027e-001

2.53151318794055e+004,-1.71568236282394e+001,-4.44658844531727e-001

2.56685179512580e+004,-1.71568277529962e+001,-4.50865143908241e-001

2.60268371088386e+004,-1.71568319933458e+001,-4.57158041609143e-001

2.63901582154578e+004,-1.71568363525173e+001,-4.63538744878536e-001

2.67585510957221e+004,-1.71568408338289e+001,-4.70008477748132e-001

2.71320865489533e+004,-1.71568454406911e+001,-4.76568481262689e-001

2.75108363627948e+004,-1.71568501766087e+001,-4.83220013718788e-001

2.78948733270080e+004,-1.71568550451838e+001,-4.89964350901647e-001

2.82842712474618e+004,-1.71568600501183e+001,-4.96802786323056e-001

2.86791049603164e+004,-1.71568651952165e+001,-5.03736631469115e-001

2.90794503464061e+004,-1.71568704843881e+001,-5.10767216047580e-001

2.94853843458219e+004,-1.71568759216508e+001,-5.17895888235342e-001

2.98969849726987e+004,-1.71568815111336e+001,-5.25124014934944e-001

3.03143313302078e+004,-1.71568872570796e+001,-5.32452982032590e-001

3.07375036257601e+004,-1.71568931638490e+001,-5.39884194656574e-001

3.11665831864199e+004,-1.71568992359225e+001,-5.47419077444064e-001

3.16016524745350e+004,-1.71569054779044e+001,-5.55059074807990e-001

3.20427951035848e+004,-1.71569118945262e+001,-5.62805651207411e-001

3.24900958542493e+004,-1.71569184906497e+001,-5.70660291424346e-001

3.29436406907028e+004,-1.71569252712705e+001,-5.78624500842110e-001

3.34035167771346e+004,-1.71569322415221e+001,-5.86699805726384e-001

3.38698124945009e+004,-1.71569394066792e+001,-5.94887753511902e-001

3.43426174575100e+004,-1.71569467721615e+001,-6.03189913094095e-001

3.48220225318448e+004,-1.71569543435378e+001,-6.11607875119188e-001

3.53081198516260e+004,-1.71569621265296e+001,-6.20143252285413e-001

3.58010028371187e+004,-1.71569701270162e+001,-6.28797679641268e-001

3.63007662126863e+004,-1.71569783510373e+001,-6.37572814893791e-001

3.68075060249948e+004,-1.71569868047989e+001,-6.46470338715617e-001

3.73213196614721e+004,-1.71569954946767e+001,-6.55491955059758e-001

3.78423058690237e+004,-1.71570044272210e+001,-6.64639391476190e-001

3.83705647730104e+004,-1.71570136091613e+001,-6.73914399434575e-001

3.89061978964912e+004,-1.71570230474112e+001,-6.83318754649420e-001

3.94493081797342e+004,-1.71570327490731e+001,-6.92854257408835e-001

3.99999999999998e+004,-1.71570427214430e+001,-7.02522732911890e-001

4.05583791916010e+004,-1.71570529720163e+001,-7.12326031604110e-001

4.11245530662425e+004,-1.71570635084922e+001,-7.22266029522796e-001

4.16986304336447e+004,-1.71570743387798e+001,-7.32344628643006e-001

4.22807216224550e+004,-1.71570854710033e+001,-7.42563757229043e-001

4.28709385014515e+004,-1.71570969135073e+001,-7.52925370193130e-001

4.34693945010421e+004,-1.71571086748634e+001,-7.63431449452976e-001

4.40762046350642e+004,-1.71571207638753e+001,-7.74084004300651e-001

4.46914855228886e+004,-1.71571331895854e+001,-7.84885071770499e-001

4.53153554118317e+004,-1.71571459612807e+001,-7.95836717013840e-001

4.59479341998812e+004,-1.71571590884994e+001,-8.06941033680283e-001

4.65893434587380e+004,-1.71571725810372e+001,-8.18200144300676e-001

4.72397064571810e+004,-1.71571864489538e+001,-8.29616200677186e-001

4.78991481847569e+004,-1.71572007025804e+001,-8.41191384276271e-001

4.85677953758016e+004,-1.71572153525258e+001,-8.52927906628845e-001

4.92457765337964e+004,-1.71572304096840e+001,-8.64828009734131e-001

4.99332219560642e+004,-1.71572458852415e+001,-8.76893966467864e-001

5.06302637588109e+004,-1.71572617906847e+001,-8.89128080997142e-001

5.13370359025159e+004,-1.71572781378071e+001,-9.01532689200000e-001

5.20536742176771e+004,-1.71572949387181e+001,-9.14110159088606e-001

5.27803164309155e+004,-1.71573122058497e+001,-9.26862891240475e-001

5.35171021914442e+004,-1.71573299519657e+001,-9.39793319232129e-001

5.42641730979066e+004,-1.71573481901695e+001,-9.52903910080024e-001

5.50216727255895e+004,-1.71573669339126e+001,-9.66197164686136e-001

5.57897466540159e+004,-1.71573861970033e+001,-9.79675618288677e-001

5.65685424949235e+004,-1.71574059936158e+001,-9.93341840919111e-001

5.73582099206328e+004,-1.71574263382990e+001,-1.00719843786347e+000

5.81589006928121e+004,-1.71574472459859e+001,-1.02124805013074e+000

5.89707686916437e+004,-1.71574687320027e+001,-1.03549335492532e+000

5.97939699453972e+004,-1.71574908120790e+001,-1.04993706612645e+000

6.06286626604156e+004,-1.71575135023569e+001,-1.06458193477321e+000

6.14750072515201e+004,-1.71575368194015e+001,-1.07943074955363e+000

6.23331663728396e+004,-1.71575607802113e+001,-1.09448633730074e+000

6.32033049490698e+004,-1.71575854022279e+001,-1.10975156349669e+000

6.40855902071694e+004,-1.71576107033470e+001,-1.12522933277854e+000

6.49801917084985e+004,-1.71576367019293e+001,-1.14092258945224e+000

6.58872813814055e+004,-1.71576634168113e+001,-1.15683431801395e+000

6.68070335542691e+004,-1.71576908673167e+001,-1.17296754367414e+000

6.77396249890018e+004,-1.71577190732675e+001,-1.18932533289058e+000

6.86852349150199e+004,-1.71577480549958e+001,-1.20591079390651e+000

6.96440450636895e+004,-1.71577778333555e+001,-1.22272707729399e+000

7.06162397032520e+004,-1.71578084297347e+001,-1.23977737650548e+000

7.16020056742374e+004,-1.71578398660671e+001,-1.25706492843006e+000

7.26015324253724e+004,-1.71578721648450e+001,-1.27459301395707e+000

7.36150120499896e+004,-1.71579053491318e+001,-1.29236495854454e+000

7.46426393229441e+004,-1.71579394425747e+001,-1.31038413279668e+000

7.56846117380472e+004,-1.71579744694176e+001,-1.32865395304501e+000

7.67411295460207e+004,-1.71580104545145e+001,-1.34717788193825e+000

7.78123957929823e+004,-1.71580474233424e+001,-1.36595942903692e+000

7.88986163594682e+004,-1.71580854020153e+001,-1.38500215141741e+000

7.99999999999995e+004,-1.71581244172978e+001,-1.40430965427746e+000

8.11167583832018e+004,-1.71581644966187e+001,-1.42388559155580e+000

8.22491061324848e+004,-1.71582056680853e+001,-1.44373366655178e+000

8.33972608672892e+004,-1.71582479604976e+001,-1.46385763255582e+000

8.45614432449099e+004,-1.71582914033626e+001,-1.48426129348516e+000

8.57418770029029e+004,-1.71583360269087e+001,-1.50494850452709e+000

8.69387890020841e+004,-1.71583818621007e+001,-1.52592317278974e+000

8.81524092701283e+004,-1.71584289406540e+001,-1.54718925795893e+000

8.93829710457770e+004,-1.71584772950502e+001,-1.56875077296224e+000

9.06307108236633e+004,-1.71585269585518e+001,-1.59061178464117e+000

9.18958683997622e+004,-1.71585779652173e+001,-1.61277641443023e+000

9.31786869174758e+004,-1.71586303499162e+001,-1.63524883904319e+000

9.44794129143618e+004,-1.71586841483450e+001,-1.65803329116711e+000

9.57982963695136e+004,-1.71587393970420e+001,-1.68113406016283e+000

9.71355907516031e+004,-1.71587961334029e+001,-1.70455549277559e+000

9.84915530675926e+004,-1.71588543956965e+001,-1.72830199384967e+000

9.98664439121282e+004,-1.71589142230799e+001,-1.75237802705508e+000

1.01260527517622e+005,-1.71589756556140e+001,-1.77678811561779e+000

1.02674071805032e+005,-1.71590387342797e+001,-1.80153684306177e+000

1.04107348435354e+005,-1.71591035009924e+001,-1.82662885395660e+000

1.05560632861831e+005,-1.71591699986184e+001,-1.85206885467449e+000

1.07034204382888e+005,-1.71592382709895e+001,-1.87786161415528e+000

1.08528346195813e+005,-1.71593083629193e+001,-1.90401196467990e+000

1.10043345451179e+005,-1.71593803202173e+001,-1.93052480265290e+000

1.11579493308032e+005,-1.71594541897050e+001,-1.95740508939230e+000

1.13137084989847e+005,-1.71595300192303e+001,-1.98465785193129e+000

1.14716419841265e+005,-1.71596078576824e+001,-2.01228818382495e+000

1.16317801385624e+005,-1.71596877550066e+001,-2.04030124597031e+000

1.17941537383287e+005,-1.71597697622186e+001,-2.06870226743259e+000

1.19587939890794e+005,-1.71598539314183e+001,-2.09749654628306e+000

1.21257325320831e+005,-1.71599403158043e+001,-2.12668945044640e+000

1.22950014503040e+005,-1.71600289696868e+001,-2.15628641855680e+000

1.24666332745679e+005,-1.71601199485013e+001,-2.18629296082733e+000

1.26406609898139e+005,-1.71602133088211e+001,-2.21671465992546e+000

1.28171180414339e+005,-1.71603091083701e+001,-2.24755717186412e+000

1.29960383416997e+005,-1.71604074060346e+001,-2.27882622690064e+000

1.31774562762811e+005,-1.71605082618747e+001,-2.31052763044805e+000

1.33614067108538e+005,-1.71606117371359e+001,-2.34266726399918e+000

1.35479249978003e+005,-1.71607178942591e+001,-2.37525108606121e+000

1.37370469830040e+005,-1.71608267968908e+001,-2.40828513310253e+000

1.39288090127379e+005,-1.71609385098925e+001,-2.44177552051515e+000

1.41232479406504e+005,-1.71610530993495e+001,-2.47572844358728e+000

1.43204011348474e+005,-1.71611706325787e+001,-2.51015017849072e+000

1.45203064850745e+005,-1.71612911781364e+001,-2.54504708328211e+000

1.47230024099979e+005,-1.71614148058245e+001,-2.58042559892079e+000

1.49285278645888e+005,-1.71615415866967e+001,-2.61629225029736e+000

1.51369223476094e+005,-1.71616715930633e+001,-2.65265364728301e+000

1.53482259092041e+005,-1.71618048984959e+001,-2.68951648579062e+000

1.55624791585964e+005,-1.71619415778299e+001,-2.72688754885596e+000

1.57797232718936e+005,-1.71620817071680e+001,-2.76477370773423e+000

1.59999999999999e+005,-1.71622253638811e+001,-2.80318192301500e+000

1.62233516766403e+005,-1.71623726266089e+001,-2.84211924575740e+000

1.64498212264969e+005,-1.71625235752598e+001,-2.88159281864207e+000

1.66794521734578e+005,-1.71626782910092e+001,-2.92160987714569e+000

1.69122886489819e+005,-1.71628368562976e+001,-2.96217775073522e+000

1.71483754005805e+005,-1.71629993548264e+001,-3.00330386408457e+000

1.73877578004168e+005,-1.71631658715542e+001,-3.04499573831268e+000

1.76304818540256e+005,-1.71633364926908e+001,-3.08726099224728e+000

1.78765942091554e+005,-1.71635113056905e+001,-3.13010734371043e+000

1.81261421647326e+005,-1.71636903992449e+001,-3.17354261083214e+000

1.83791736799524e+005,-1.71638738632740e+001,-3.21757471338760e+000

1.86357373834951e+005,-1.71640617889160e+001,-3.26221167416385e+000

1.88958825828723e+005,-1.71642542685174e+001,-3.30746162035432e+000

1.91596592739027e+005,-1.71644513956202e+001,-3.35333278498236e+000

1.94271181503206e+005,-1.71646532649501e+001,-3.39983350835544e+000

1.96983106135185e+005,-1.71648599724019e+001,-3.44697223955207e+000

1.99732887824256e+005,-1.71650716150256e+001,-3.49475753794031e+000

2.02521055035243e+005,-1.71652882910109e+001,-3.54319807473099e+000

2.05348143610063e+005,-1.71655100996702e+001,-3.59230263456721e+000

2.08214696870707e+005,-1.71657371414230e+001,-3.64208011714786e+000

2.11121265723661e+005,-1.71659695177771e+001,-3.69253953889190e+000

2.14068408765776e+005,-1.71662073313115e+001,-3.74369003463953e+000

2.17056692391625e+005,-1.71664506856573e+001,-3.79554085939587e+000

2.20086690902357e+005,-1.71666996854794e+001,-3.84810139011314e+000

2.23158986616063e+005,-1.71669544364569e+001,-3.90138112751935e+000

2.26274169979693e+005,-1.71672150452647e+001,-3.95538969798936e+000

2.29432839682530e+005,-1.71674816195545e+001,-4.01013685546118e+000

2.32635602771247e+005,-1.71677542679357e+001,-4.06563248340067e+000

2.35883074766574e+005,-1.71680330999578e+001,-4.12188659681279e+000

2.39175879781588e+005,-1.71683182260926e+001,-4.17890934430366e+000

2.42514650641661e+005,-1.71686097577174e+001,-4.23671101019203e+000

2.45900029006080e+005,-1.71689078070997e+001,-4.29530201667302e+000

2.49332665491357e+005,-1.71692124873826e+001,-4.35469292603573e+000

2.52813219796278e+005,-1.71695239125722e+001,-4.41489444293311e+000

2.56342360828676e+005,-1.71698421975268e+001,-4.47591741670862e+000

2.59920766833993e+005,-1.71701674579475e+001,-4.53777284377811e+000

2.63549125525621e+005,-1.71704998103725e+001,-4.60047187006908e+000

2.67228134217075e+005,-1.71708393721726e+001,-4.66402579351784e+000

2.70958499956006e+005,-1.71711862615509e+001,-4.72844606662527e+000

2.74740939660078e+005,-1.71715405975450e+001,-4.79374429907160e+000

2.78576180254757e+005,-1.71719025000334e+001,-4.85993226039240e+000

2.82464958813007e+005,-1.71722720897457e+001,-4.92702188271301e+000

2.86408022696948e+005,-1.71726494882772e+001,-4.99502526354513e+000

2.90406129701488e+005,-1.71730348181083e+001,-5.06395466864454e+000

2.94460048199957e+005,-1.71734282026288e+001,-5.13382253492895e+000

2.98570557291775e+005,-1.71738297661682e+001,-5.20464147345737e+000

3.02738446952187e+005,-1.71742396340317e+001,-5.27642427247047e+000

3.06964518184081e+005,-1.71746579325421e+001,-5.34918390049168e+000

3.11249583171928e+005,-1.71750847890893e+001,-5.42293350948760e+000

3.15594465437872e+005,-1.71755203321861e+001,-5.49768643808980e+000

3.19999999999997e+005,-1.71759646915320e+001,-5.57345621487235e+000

3.24467033532806e+005,-1.71764179980849e+001,-5.65025656169005e+000

3.28996424529938e+005,-1.71768803841409e+001,-5.72810139707110e+000

3.33589043469155e+005,-1.71773519834234e+001,-5.80700483966655e+000

3.38245772979638e+005,-1.71778329311804e+001,-5.88698121175330e+000

3.42967508011610e+005,-1.71783233642924e+001,-5.96804504278799e+000

3.47755156008335e+005,-1.71788234213892e+001,-6.05021107301379e+000

3.52609637080511e+005,-1.71793332429780e+001,-6.13349425711327e+000

3.57531884183106e+005,-1.71798529715808e+001,-6.21790976790954e+000

3.62522843294651e+005,-1.71803827518837e+001,-6.30347300011018e+000

3.67583473599047e+005,-1.71809227308974e+001,-6.39019957409336e+000

3.72714747669902e+005,-1.71814730581282e+001,-6.47810533973341e+000

3.77917651657445e+005,-1.71820338857623e+001,-6.56720638026202e+000

3.83193185478053e+005,-1.71826053688604e+001,-6.65751901616372e+000

3.88542363006410e+005,-1.71831876655660e+001,-6.74905980910161e+000

3.93966212270369e+005,-1.71837809373256e+001,-6.84184556587095e+000

3.99465775648511e+005,-1.71843853491204e+001,-6.93589334237745e+000

4.05042110070485e+005,-1.71850010697126e+001,-7.03122044763652e+000

4.10696287220124e+005,-1.71856282719030e+001,-7.12784444779026e+000

4.16429393741414e+005,-1.71862671328020e+001,-7.22578317014107e+000

4.22242531447321e+005,-1.71869178341133e+001,-7.32505470719376e+000

4.28136817531551e+005,-1.71875805624305e+001,-7.42567742070948e+000

4.34113384783250e+005,-1.71882555095467e+001,-7.52766994576130e+000

4.40173381804713e+005,-1.71889428727763e+001,-7.63105119479355e+000

4.46317973232124e+005,-1.71896428552905e+001,-7.73584036167865e+000

4.52548339959385e+005,-1.71903556664637e+001,-7.84205692576942e+000

4.58865679365059e+005,-1.71910815222340e+001,-7.94972065594389e+000

4.65271205542494e+005,-1.71918206454742e+001,-8.05885161463852e+000

4.71766149533147e+005,-1.71925732663763e+001,-8.16947016186916e+000

4.78351759563174e+005,-1.71933396228460e+001,-8.28159695923398e+000

4.85029301283321e+005,-1.71941199609100e+001,-8.39525297389900e+000

4.91800058012158e+005,-1.71949145351333e+001,-8.51045948256159e+000

4.98665330982714e+005,-1.71957236090479e+001,-8.62723807539053e+000

5.05626439592555e+005,-1.71965474555915e+001,-8.74561065994028e+000

5.12684721657352e+005,-1.71973863575562e+001,-8.86559946503869e+000

5.19841533667984e+005,-1.71982406080473e+001,-8.98722704464463e+000

5.27098251051240e+005,-1.71991105109506e+001,-9.11051628167590e+000

5.34456268434150e+005,-1.71999963814088e+001,-9.23549039180534e+000

5.41916999912011e+005,-1.72008985463067e+001,-9.36217292722457e+000

