Freq.,VOut,OutRef

1.00000000000000e+004,-1.07558084794775e+001,-1.45384498712364e-001

1.01395947979003e+004,-1.07558087329905e+001,-1.47413948261967e-001

1.02811382665607e+004,-1.07558089936236e+001,-1.49471726071215e-001

1.04246576084112e+004,-1.07558092615768e+001,-1.51558227510189e-001

1.05701804056138e+004,-1.07558095370549e+001,-1.53673853468788e-001

1.07177346253629e+004,-1.07558098202695e+001,-1.55819010424046e-001

1.08673486252606e+004,-1.07558101114372e+001,-1.57994110530266e-001

1.10190511587661e+004,-1.07558104107815e+001,-1.60199571685068e-001

1.11728713807222e+004,-1.07558107185317e+001,-1.62435817619178e-001

1.13288388529580e+004,-1.07558110349233e+001,-1.64703277975309e-001

1.14869835499703e+004,-1.07558113601986e+001,-1.67002388388486e-001

1.16473358646846e+004,-1.07558116946072e+001,-1.69333590568803e-001

1.18099266142953e+004,-1.07558120384046e+001,-1.71697332391772e-001

1.19747870461893e+004,-1.07558123918544e+001,-1.74094067977130e-001

1.21419488439505e+004,-1.07558127552273e+001,-1.76524257779588e-001

1.23114441334492e+004,-1.07558131288011e+001,-1.78988368677893e-001

1.24833054890161e+004,-1.07558135128622e+001,-1.81486874060543e-001

1.26575659397028e+004,-1.07558139077042e+001,-1.84020253921566e-001

1.28342589756290e+004,-1.07558143136295e+001,-1.86588994946904e-001

1.30134185544193e+004,-1.07558147309486e+001,-1.89193590611617e-001

1.31950791077289e+004,-1.07558151599807e+001,-1.91834541274325e-001

1.33792755478611e+004,-1.07558156010541e+001,-1.94512354269381e-001

1.35660432744767e+004,-1.07558160545062e+001,-1.97227544007573e-001

1.37554181813974e+004,-1.07558165206837e+001,-1.99980632074222e-001

1.39474366635040e+004,-1.07558169999431e+001,-2.02772147327889e-001

1.41421356237309e+004,-1.07558174926508e+001,-2.05602626000847e-001

1.43395524801583e+004,-1.07558179991834e+001,-2.08472611803953e-001

1.45397251732031e+004,-1.07558185199281e+001,-2.11382656029016e-001

1.47426921729110e+004,-1.07558190552827e+001,-2.14333317656520e-001

1.49484924863494e+004,-1.07558196056565e+001,-2.17325163457568e-001

1.51571656651040e+004,-1.07558201714695e+001,-2.20358768109197e-001

1.53687518128801e+004,-1.07558207531543e+001,-2.23434714297833e-001

1.55832915932100e+004,-1.07558213511547e+001,-2.26553592835718e-001

1.58008262372675e+004,-1.07558219659275e+001,-2.29716002770474e-001

1.60213975517924e+004,-1.07558225979419e+001,-2.32922551501132e-001

1.62450479271247e+004,-1.07558232476802e+001,-2.36173854893892e-001

1.64718203453514e+004,-1.07558239156383e+001,-2.39470537399835e-001

1.67017583885674e+004,-1.07558246023256e+001,-2.42813232175596e-001

1.69349062472505e+004,-1.07558253082658e+001,-2.46202581201501e-001

1.71713087287550e+004,-1.07558260339973e+001,-2.49639235407212e-001

1.74110112659224e+004,-1.07558267800733e+001,-2.53123854792383e-001

1.76540599258131e+004,-1.07558275470625e+001,-2.56657108557182e-001

1.79005014185594e+004,-1.07558283355493e+001,-2.60239675226905e-001

1.81503831063432e+004,-1.07558291461342e+001,-2.63872242783108e-001

1.84037530124975e+004,-1.07558299794347e+001,-2.67555508792946e-001

1.86606598307361e+004,-1.07558308360853e+001,-2.71290180544721e-001

1.89211529345119e+004,-1.07558317167379e+001,-2.75076975181036e-001

1.91852823865052e+004,-1.07558326220628e+001,-2.78916619835967e-001

1.94530989482457e+004,-1.07558335527485e+001,-2.82809851775473e-001

1.97246540898671e+004,-1.07558345095031e+001,-2.86757418534394e-001

1.99999999999999e+004,-1.07558354930537e+001,-2.90760078063009e-001

2.02791895958005e+004,-1.07558365041481e+001,-2.94818598868111e-001

2.05622765331213e+004,-1.07558375435544e+001,-2.98933760161387e-001

2.08493152168224e+004,-1.07558386120621e+001,-3.03106352007228e-001

2.11403608112276e+004,-1.07558397104826e+001,-3.07337175473181e-001

2.14354692507258e+004,-1.07558408396494e+001,-3.11627042782930e-001

2.17346972505211e+004,-1.07558420004195e+001,-3.15976777470466e-001

2.20381023175322e+004,-1.07558431936733e+001,-3.20387214536070e-001

2.23457427614443e+004,-1.07558444203153e+001,-3.24859200607099e-001

2.26576777059159e+004,-1.07558456812753e+001,-3.29393594097336e-001

2.29739670999406e+004,-1.07558469775087e+001,-3.33991265369926e-001

2.32946717293690e+004,-1.07558483099968e+001,-3.38653096906156e-001

2.36198532285905e+004,-1.07558496797485e+001,-3.43379983467004e-001

2.39495740923785e+004,-1.07558510878000e+001,-3.48172832270047e-001

2.42838976879009e+004,-1.07558525352162e+001,-3.53032563156779e-001

2.46228882668982e+004,-1.07558540230912e+001,-3.57960108769476e-001

2.49666109780322e+004,-1.07558555525492e+001,-3.62956414727096e-001

2.53151318794055e+004,-1.07558571247454e+001,-3.68022439804945e-001

2.56685179512580e+004,-1.07558587408664e+001,-3.73159156117584e-001

2.60268371088386e+004,-1.07558604021314e+001,-3.78367549301549e-001

2.63901582154578e+004,-1.07558621097929e+001,-3.83648618704704e-001

2.67585510957221e+004,-1.07558638651380e+001,-3.89003377571289e-001

2.71320865489533e+004,-1.07558656694887e+001,-3.94432853236975e-001

2.75108363627948e+004,-1.07558675242031e+001,-3.99938087323233e-001

2.78948733270080e+004,-1.07558694306768e+001,-4.05520135932387e-001

2.82842712474618e+004,-1.07558713903428e+001,-4.11180069851201e-001

2.86791049603164e+004,-1.07558734046736e+001,-4.16918974748164e-001

2.90794503464061e+004,-1.07558754751818e+001,-4.22737951382013e-001

2.94853843458219e+004,-1.07558776034211e+001,-4.28638115809184e-001

2.98969849726987e+004,-1.07558797909870e+001,-4.34620599594972e-001

3.03143313302078e+004,-1.07558820395191e+001,-4.40686550024216e-001

3.07375036257601e+004,-1.07558843507007e+001,-4.46837130321947e-001

3.11665831864199e+004,-1.07558867262613e+001,-4.53073519868485e-001

3.16016524745350e+004,-1.07558891679770e+001,-4.59396914424252e-001

3.20427951035848e+004,-1.07558916776716e+001,-4.65808526355140e-001

3.24900958542493e+004,-1.07558942572186e+001,-4.72309584858456e-001

3.29436406907028e+004,-1.07558969085420e+001,-4.78901336195445e-001

3.34035167771346e+004,-1.07558996336172e+001,-4.85585043926686e-001

3.38698124945009e+004,-1.07559024344733e+001,-4.92361989146870e-001

3.43426174575100e+004,-1.07559053131936e+001,-4.99233470727786e-001

3.48220225318448e+004,-1.07559082719174e+001,-5.06200805560018e-001

3.53081198516260e+004,-1.07559113128412e+001,-5.13265328801654e-001

3.58010028371187e+004,-1.07559144382205e+001,-5.20428394127737e-001

3.63007662126863e+004,-1.07559176503710e+001,-5.27691373981973e-001

3.68075060249948e+004,-1.07559209516700e+001,-5.35055659837623e-001

3.73213196614721e+004,-1.07559243445586e+001,-5.42522662453025e-001

3.78423058690237e+004,-1.07559278315423e+001,-5.50093812139423e-001

3.83705647730104e+004,-1.07559314151935e+001,-5.57770559024553e-001

3.89061978964912e+004,-1.07559350981526e+001,-5.65554373325356e-001

3.94493081797342e+004,-1.07559388831300e+001,-5.73446745621682e-001

3.99999999999998e+004,-1.07559427729077e+001,-5.81449187132875e-001

4.05583791916010e+004,-1.07559467703410e+001,-5.89563230000625e-001

4.11245530662425e+004,-1.07559508783604e+001,-5.97790427572874e-001

4.16986304336447e+004,-1.07559550999734e+001,-6.06132354692341e-001

4.22807216224550e+004,-1.07559594382663e+001,-6.14590607989551e-001

4.28709385014515e+004,-1.07559638964061e+001,-6.23166806178278e-001

4.34693945010421e+004,-1.07559684776425e+001,-6.31862590356724e-001

4.40762046350642e+004,-1.07559731853099e+001,-6.40679624309438e-001

4.46914855228886e+004,-1.07559780228294e+001,-6.49619594815516e-001

4.53153554118317e+004,-1.07559829937106e+001,-6.58684211962409e-001

4.59479341998812e+004,-1.07559881015540e+001,-6.67875209458809e-001

4.65893434587380e+004,-1.07559933500530e+001,-6.77194344954615e-001

4.72397064571810e+004,-1.07559987429960e+001,-6.86643400366792e-001

4.78991481847569e+004,-1.07560042842685e+001,-6.96224182205430e-001

4.85677953758016e+004,-1.07560099778557e+001,-7.05938521904907e-001

4.92457765337964e+004,-1.07560158278440e+001,-7.15788276163034e-001

4.99332219560642e+004,-1.07560218384243e+001,-7.25775327278425e-001

5.06302637588109e+004,-1.07560280138936e+001,-7.35901583496094e-001

5.13370359025159e+004,-1.07560343586572e+001,-7.46168979358627e-001

5.20536742176771e+004,-1.07560408772319e+001,-7.56579476055459e-001

5.27803164309155e+004,-1.07560475742477e+001,-7.67135061784665e-001

5.35171021914442e+004,-1.07560544544504e+001,-7.77837752112329e-001

5.42641730979066e+004,-1.07560615227044e+001,-7.88689590341347e-001

5.50216727255895e+004,-1.07560687839945e+001,-7.99692647881748e-001

5.57897466540159e+004,-1.07560762434294e+001,-8.10849024625540e-001

5.65685424949235e+004,-1.07560839062432e+001,-8.22160849329970e-001

5.73582099206328e+004,-1.07560917777987e+001,-8.33630279999614e-001

5.81589006928121e+004,-1.07560998635898e+001,-8.45259504278721e-001

5.89707686916437e+004,-1.07561081692441e+001,-8.57050739843798e-001

5.97939699453972e+004,-1.07561167005251e+001,-8.69006234805835e-001

6.06286626604156e+004,-1.07561254633359e+001,-8.81128268110482e-001

6.14750072515201e+004,-1.07561344637205e+001,-8.93419149951789e-001

6.23331663728396e+004,-1.07561437078673e+001,-9.05881222183690e-001

6.32033049490698e+004,-1.07561532021120e+001,-9.18516858738401e-001

6.40855902071694e+004,-1.07561629529391e+001,-9.31328466054084e-001

6.49801917084985e+004,-1.07561729669859e+001,-9.44318483499269e-001

6.58872813814055e+004,-1.07561832510442e+001,-9.57489383812514e-001

6.68070335542691e+004,-1.07561938120632e+001,-9.70843673536960e-001

6.77396249890018e+004,-1.07562046571525e+001,-9.84383893468514e-001

6.86852349150199e+004,-1.07562157935840e+001,-9.98112619103992e-001

6.96440450636895e+004,-1.07562272287952e+001,-1.01203246109768e+000

7.06162397032520e+004,-1.07562389703910e+001,-1.02614606572035e+000

7.16020056742374e+004,-1.07562510261469e+001,-1.04045611532723e+000

7.26015324253724e+004,-1.07562634040110e+001,-1.05496532882790e+000

7.36150120499896e+004,-1.07562761121066e+001,-1.06967646216434e+000

7.46426393229441e+004,-1.07562891587342e+001,-1.08459230879291e+000

7.56846117380472e+004,-1.07563025523745e+001,-1.09971570017199e+000

7.67411295460207e+004,-1.07563163016898e+001,-1.11504950625808e+000

7.78123957929823e+004,-1.07563304155268e+001,-1.13059663600106e+000

7.88986163594682e+004,-1.07563449029179e+001,-1.14636003785433e+000

7.99999999999995e+004,-1.07563597730840e+001,-1.16234270028172e+000

8.11167583832018e+004,-1.07563750354355e+001,-1.17854765227634e+000

8.22491061324848e+004,-1.07563906995746e+001,-1.19497796388345e+000

8.33972608672892e+004,-1.07564067752962e+001,-1.21163674672884e+000

8.45614432449099e+004,-1.07564232725900e+001,-1.22852715455319e+000

8.57418770029029e+004,-1.07564402016415e+001,-1.24565238375303e+000

8.69387890020841e+004,-1.07564575728327e+001,-1.26301567392875e+000

8.81524092701283e+004,-1.07564753967434e+001,-1.28062030843651e+000

8.93829710457770e+004,-1.07564936841520e+001,-1.29846961494908e+000

9.06307108236633e+004,-1.07565124460353e+001,-1.31656696601993e+000

9.18958683997622e+004,-1.07565316935693e+001,-1.33491577965741e+000

9.31786869174758e+004,-1.07565514381292e+001,-1.35351951990183e+000

9.44794129143618e+004,-1.07565716912886e+001,-1.37238169741224e+000

9.57982963695136e+004,-1.07565924648194e+001,-1.39150587005754e+000

9.71355907516031e+004,-1.07566137706905e+001,-1.41089564351513e+000

9.84915530675926e+004,-1.07566356210670e+001,-1.43055467187654e+000

9.98664439121282e+004,-1.07566580283080e+001,-1.45048665826126e+000

1.01260527517622e+005,-1.07566810049653e+001,-1.47069535543383e+000

1.02674071805032e+005,-1.07567045637807e+001,-1.49118456643144e+000

1.04107348435354e+005,-1.07567287176829e+001,-1.51195814519842e+000

1.05560632861831e+005,-1.07567534797849e+001,-1.53301999722724e+000

1.07034204382888e+005,-1.07567788633797e+001,-1.55437408020515e+000

1.08528346195813e+005,-1.07568048819365e+001,-1.57602440467306e+000

1.10043345451179e+005,-1.07568315490954e+001,-1.59797503468794e+000

1.11579493308032e+005,-1.07568588786627e+001,-1.62023008849377e+000

1.13137084989847e+005,-1.07568868846043e+001,-1.64279373920335e+000

1.14716419841265e+005,-1.07569155810398e+001,-1.66567021548429e+000

1.16317801385624e+005,-1.07569449822346e+001,-1.68886380225540e+000

1.17941537383287e+005,-1.07569751025926e+001,-1.71237884139236e+000

1.19587939890794e+005,-1.07570059566467e+001,-1.73621973244034e+000

1.21257325320831e+005,-1.07570375590505e+001,-1.76039093333558e+000

1.22950014503040e+005,-1.07570699245667e+001,-1.78489696113815e+000

1.24666332745679e+005,-1.07571030680573e+001,-1.80974239277056e+000

1.26406609898139e+005,-1.07571370044706e+001,-1.83493186577003e+000

1.28171180414339e+005,-1.07571717488286e+001,-1.86047007904654e+000

1.29960383416997e+005,-1.07572073162134e+001,-1.88636179365294e+000

1.31774562762811e+005,-1.07572437217519e+001,-1.91261183356631e+000

1.33614067108538e+005,-1.07572809805996e+001,-1.93922508647840e+000

1.35479249978003e+005,-1.07573191079241e+001,-1.96620650459588e+000

1.37370469830040e+005,-1.07573581188865e+001,-1.99356110545525e+000

1.39288090127379e+005,-1.07573980286219e+001,-2.02129397274584e+000

1.41232479406504e+005,-1.07574388522185e+001,-2.04941025714788e+000

1.43204011348474e+005,-1.07574806046964e+001,-2.07791517717954e+000

1.45203064850745e+005,-1.07575233009831e+001,-2.10681402005970e+000

1.47230024099979e+005,-1.07575669558896e+001,-2.13611214258261e+000

1.49285278645888e+005,-1.07576115840837e+001,-2.16581497200556e+000

1.51369223476094e+005,-1.07576572000629e+001,-2.19592800695115e+000

1.53482259092041e+005,-1.07577038181242e+001,-2.22645681832594e+000

1.55624791585964e+005,-1.07577514523343e+001,-2.25740705025016e+000

1.57797232718936e+005,-1.07578001164964e+001,-2.28878442100739e+000

1.59999999999999e+005,-1.07578498241163e+001,-2.32059472400731e+000

1.62233516766403e+005,-1.07579005883666e+001,-2.35284382876665e+000

1.64498212264969e+005,-1.07579524220485e+001,-2.38553768190841e+000

1.66794521734578e+005,-1.07580053375531e+001,-2.41868230817615e+000

1.69122886489819e+005,-1.07580593468192e+001,-2.45228381147172e+000

1.71483754005805e+005,-1.07581144612904e+001,-2.48634837590756e+000

1.73877578004168e+005,-1.07581706918700e+001,-2.52088226688265e+000

1.76304818540256e+005,-1.07582280488729e+001,-2.55589183217814e+000

1.78765942091554e+005,-1.07582865419776e+001,-2.59138350307534e+000

1.81261421647326e+005,-1.07583461801734e+001,-2.62736379549606e+000

1.83791736799524e+005,-1.07584069717081e+001,-2.66383931116631e+000

1.86357373834951e+005,-1.07584689240318e+001,-2.70081673880398e+000

1.88958825828723e+005,-1.07585320437394e+001,-2.73830285533426e+000

1.91596592739027e+005,-1.07585963365106e+001,-2.77630452712776e+000

1.94271181503206e+005,-1.07586618070480e+001,-2.81482871126886e+000

1.96983106135185e+005,-1.07587284590127e+001,-2.85388245685102e+000

1.99732887824256e+005,-1.07587962949578e+001,-2.89347290630146e+000

2.02521055035243e+005,-1.07588653162603e+001,-2.93360729673612e+000

2.05348143610063e+005,-1.07589355230495e+001,-2.97429296134733e+000

2.08214696870707e+005,-1.07590069141349e+001,-3.01553733082164e+000

2.11121265723661e+005,-1.07590794869303e+001,-3.05734793479422e+000

2.14068408765776e+005,-1.07591532373774e+001,-3.09973240333539e+000

2.17056692391625e+005,-1.07592281598657e+001,-3.14269846847549e+000

2.20086690902357e+005,-1.07593042471520e+001,-3.18625396576426e+000

2.23158986616063e+005,-1.07593814902765e+001,-3.23040683587194e+000

2.26274169979693e+005,-1.07594598784778e+001,-3.27516512622682e+000

2.29432839682530e+005,-1.07595393991058e+001,-3.32053699269452e+000

2.32635602771247e+005,-1.07596200375330e+001,-3.36653070130005e+000

2.35883074766574e+005,-1.07597017770637e+001,-3.41315462999246e+000

2.39175879781588e+005,-1.07597845988421e+001,-3.46041727045213e+000

2.42514650641661e+005,-1.07598684817585e+001,-3.50832722994659e+000

2.45900029006080e+005,-1.07599534023546e+001,-3.55689323322942e+000

2.49332665491357e+005,-1.07600393347270e+001,-3.60612412449061e+000

2.52813219796278e+005,-1.07601262504298e+001,-3.65602886935108e+000

2.56342360828676e+005,-1.07602141183767e+001,-3.70661655691158e+000

2.59920766833993e+005,-1.07603029047415e+001,-3.75789640185002e+000

2.63549125525621e+005,-1.07603925728586e+001,-3.80987774656953e+000

2.67228134217075e+005,-1.07604830831221e+001,-3.86257006340321e+000

2.70958499956006e+005,-1.07605743928865e+001,-3.91598295686714e+000

2.74740939660078e+005,-1.07606664563648e+001,-3.97012616597289e+000

2.78576180254757e+005,-1.07607592245287e+001,-4.02500956659116e+000

2.82464958813007e+005,-1.07608526450078e+001,-4.08064317387454e+000

2.86408022696948e+005,-1.07609466619905e+001,-4.13703714473310e+000

2.90406129701488e+005,-1.07610412161242e+001,-4.19420178037115e+000

2.94460048199957e+005,-1.07611362444178e+001,-4.25214752887636e+000

2.98570557291775e+005,-1.07612316801443e+001,-4.31088498787145e+000

3.02738446952187e+005,-1.07613274527455e+001,-4.37042490721996e+000

3.06964518184081e+005,-1.07614234877383e+001,-4.43077819179143e+000

3.11249583171928e+005,-1.07615197066220e+001,-4.49195590428568e+000

3.15594465437872e+005,-1.07616160267889e+001,-4.55396926811235e+000

3.19999999999997e+005,-1.07617123614362e+001,-4.61682967033069e+000

3.24467033532806e+005,-1.07618086194813e+001,-4.68054866464490e+000

3.28996424529938e+005,-1.07619047054792e+001,-4.74513797445722e+000

3.33589043469155e+005,-1.07620005195428e+001,-4.81060949597787e+000

3.38245772979638e+005,-1.07620959572672e+001,-4.87697530138948e+000

3.42967508011610e+005,-1.07621909096566e+001,-4.94424764206697e+000

3.47755156008335e+005,-1.07622852630550e+001,-5.01243895185174e+000

3.52609637080511e+005,-1.07623788990807e+001,-5.08156185037901e+000

3.57531884183106e+005,-1.07624716945647e+001,-5.15162914645602e+000

3.62522843294651e+005,-1.07625635214928e+001,-5.22265384149261e+000

3.67583473599047e+005,-1.07626542469526e+001,-5.29464913297938e+000

3.72714747669902e+005,-1.07627437330840e+001,-5.36762841801607e+000

3.77917651657445e+005,-1.07628318370343e+001,-5.44160529688380e+000

3.83193185478053e+005,-1.07629184109182e+001,-5.51659357666507e+000

3.88542363006410e+005,-1.07630033017815e+001,-5.59260727490570e+000

3.93966212270369e+005,-1.07630863515695e+001,-5.66966062331839e+000

3.99465775648511e+005,-1.07631673971004e+001,-5.74776807152798e+000

4.05042110070485e+005,-1.07632462700426e+001,-5.82694429085280e+000

4.10696287220124e+005,-1.07633227968963e+001,-5.90720417812522e+000

4.16429393741414e+005,-1.07633967989797e+001,-5.98856285954550e+000

4.22242531447321e+005,-1.07634680924191e+001,-6.07103569456936e+000

4.28136817531551e+005,-1.07635364881434e+001,-6.15463827982765e+000

4.34113384783250e+005,-1.07636017918819e+001,-6.23938645307573e+000

4.40173381804713e+005,-1.07636638041659e+001,-6.32529629717071e+000

4.46317973232124e+005,-1.07637223203339e+001,-6.41238414407766e+000

4.52548339959385e+005,-1.07637771305398e+001,-6.50066657889838e+000

4.58865679365059e+005,-1.07638280197636e+001,-6.59016044392768e+000

4.65271205542494e+005,-1.07638747678249e+001,-6.68088284273060e+000

4.71766149533147e+005,-1.07639171493987e+001,-6.77285114424302e+000

4.78351759563174e+005,-1.07639549340326e+001,-6.86608298689323e+000

4.85029301283321e+005,-1.07639878861656e+001,-6.96059628274381e+000

4.91800058012158e+005,-1.07640157651475e+001,-7.05640922165505e+000

4.98665330982714e+005,-1.07640383252595e+001,-7.15354027546611e+000

5.05626439592555e+005,-1.07640553157344e+001,-7.25200820219832e+000

5.12684721657352e+005,-1.07640664807760e+001,-7.35183205027661e+000

5.19841533667984e+005,-1.07640715595787e+001,-7.45303116277218e+000

5.27098251051240e+005,-1.07640702863443e+001,-7.55562518166576e+000

5.34456268434150e+005,-1.07640623902983e+001,-7.65963405213285e+000

5.41916999912011e+005,-1.07640475957026e+001,-7.76507802685122e+000

