Freq.,VOut,OutRef

1.00000000000000e+004,-1.36844623520602e+001,-1.63752919681670e-001

1.01395947979003e+004,-1.36844628559584e+001,-1.66038766231211e-001

1.02811382665607e+004,-1.36844633740134e+001,-1.68356519503849e-001

1.04246576084112e+004,-1.36844639066224e+001,-1.70706624795765e-001

1.05701804056138e+004,-1.36844644541944e+001,-1.73089533611731e-001

1.07177346253629e+004,-1.36844650171491e+001,-1.75505703757708e-001

1.08673486252606e+004,-1.36844655959186e+001,-1.77955599423417e-001

1.10190511587661e+004,-1.36844661909467e+001,-1.80439691273769e-001

1.11728713807222e+004,-1.36844668026895e+001,-1.82958456540794e-001

1.13288388529580e+004,-1.36844674316164e+001,-1.85512379109136e-001

1.14869835499703e+004,-1.36844680782097e+001,-1.88101949614808e-001

1.16473358646846e+004,-1.36844687429651e+001,-1.90727665536879e-001

1.18099266142953e+004,-1.36844694263923e+001,-1.93390031291404e-001

1.19747870461893e+004,-1.36844701290155e+001,-1.96089558329485e-001

1.21419488439505e+004,-1.36844708513729e+001,-1.98826765237301e-001

1.23114441334492e+004,-1.36844715940186e+001,-2.01602177829063e-001

1.24833054890161e+004,-1.36844723575217e+001,-2.04416329255430e-001

1.26575659397028e+004,-1.36844731424675e+001,-2.07269760098980e-001

1.28342589756290e+004,-1.36844739494573e+001,-2.10163018483835e-001

1.30134185544193e+004,-1.36844747791097e+001,-2.13096660173319e-001

1.31950791077289e+004,-1.36844756320605e+001,-2.16071248681887e-001

1.33792755478611e+004,-1.36844765089630e+001,-2.19087355383172e-001

1.35660432744767e+004,-1.36844774104889e+001,-2.22145559614869e-001

1.37554181813974e+004,-1.36844783373289e+001,-2.25246448792533e-001

1.39474366635040e+004,-1.36844792901931e+001,-2.28390618521202e-001

1.41421356237309e+004,-1.36844802698109e+001,-2.31578672710585e-001

1.43395524801583e+004,-1.36844812769327e+001,-2.34811223688395e-001

1.45397251732031e+004,-1.36844823123295e+001,-2.38088892319841e-001

1.47426921729110e+004,-1.36844833767942e+001,-2.41412308122021e-001

1.49484924863494e+004,-1.36844844711414e+001,-2.44782109390950e-001

1.51571656651040e+004,-1.36844855962090e+001,-2.48198943315650e-001

1.53687518128801e+004,-1.36844867528579e+001,-2.51663466108840e-001

1.55832915932100e+004,-1.36844879419731e+001,-2.55176343128226e-001

1.58008262372675e+004,-1.36844891644646e+001,-2.58738249004671e-001

1.60213975517924e+004,-1.36844904212675e+001,-2.62349867770196e-001

1.62450479271247e+004,-1.36844917133433e+001,-2.66011892989629e-001

1.64718203453514e+004,-1.36844930416802e+001,-2.69725027893002e-001

1.67017583885674e+004,-1.36844944072937e+001,-2.73489985509901e-001

1.69349062472505e+004,-1.36844958112282e+001,-2.77307488803731e-001

1.71713087287550e+004,-1.36844972545571e+001,-2.81178270810760e-001

1.74110112659224e+004,-1.36844987383833e+001,-2.85103074781399e-001

1.76540599258131e+004,-1.36845002638409e+001,-2.89082654320459e-001

1.79005014185594e+004,-1.36845018320955e+001,-2.93117773529086e-001

1.81503831063432e+004,-1.36845034443453e+001,-2.97209207153818e-001

1.84037530124975e+004,-1.36845051018217e+001,-3.01357740732699e-001

1.86606598307361e+004,-1.36845068057903e+001,-3.05564170745124e-001

1.89211529345119e+004,-1.36845085575526e+001,-3.09829304761014e-001

1.91852823865052e+004,-1.36845103584454e+001,-3.14153961599635e-001

1.94530989482457e+004,-1.36845122098438e+001,-3.18538971480359e-001

1.97246540898671e+004,-1.36845141131601e+001,-3.22985176185623e-001

1.99999999999999e+004,-1.36845160698468e+001,-3.27493429214760e-001

2.02791895958005e+004,-1.36845180813961e+001,-3.32064595954039e-001

2.05622765331213e+004,-1.36845201493423e+001,-3.36699553833483e-001

2.08493152168224e+004,-1.36845222752619e+001,-3.41399192500547e-001

2.11403608112276e+004,-1.36845244607755e+001,-3.46164413984050e-001

2.14354692507258e+004,-1.36845267075485e+001,-3.50996132867999e-001

2.17346972505211e+004,-1.36845290172929e+001,-3.55895276464531e-001

2.20381023175322e+004,-1.36845313917678e+001,-3.60862784991064e-001

2.23457427614443e+004,-1.36845338327815e+001,-3.65899611746032e-001

2.26576777059159e+004,-1.36845363421923e+001,-3.71006723294130e-001

2.29739670999406e+004,-1.36845389219102e+001,-3.76185099644533e-001

2.32946717293690e+004,-1.36845415738977e+001,-3.81435734442321e-001

2.36198532285905e+004,-1.36845443001724e+001,-3.86759635149833e-001

2.39495740923785e+004,-1.36845471028072e+001,-3.92157823244514e-001

2.42838976879009e+004,-1.36845499839327e+001,-3.97631334407985e-001

2.46228882668982e+004,-1.36845529457384e+001,-4.03181218723512e-001

2.49666109780322e+004,-1.36845559904743e+001,-4.08808540874685e-001

2.53151318794055e+004,-1.36845591204528e+001,-4.14514380346331e-001

2.56685179512580e+004,-1.36845623380502e+001,-4.20299831629257e-001

2.60268371088386e+004,-1.36845656457082e+001,-4.26166004426424e-001

2.63901582154578e+004,-1.36845690459362e+001,-4.32114023862913e-001

2.67585510957221e+004,-1.36845725413129e+001,-4.38145030697094e-001

2.71320865489533e+004,-1.36845761344878e+001,-4.44260181539900e-001

2.75108363627948e+004,-1.36845798281841e+001,-4.50460649065865e-001

2.78948733270080e+004,-1.36845836251992e+001,-4.56747622242284e-001

2.82842712474618e+004,-1.36845875284081e+001,-4.63122306547427e-001

2.86791049603164e+004,-1.36845915407649e+001,-4.69585924198447e-001

2.90794503464061e+004,-1.36845956653049e+001,-4.76139714384735e-001

2.94853843458219e+004,-1.36845999051467e+001,-4.82784933496240e-001

2.98969849726987e+004,-1.36846042634949e+001,-4.89522855363371e-001

3.03143313302078e+004,-1.36846087436417e+001,-4.96354771494421e-001

3.07375036257601e+004,-1.36846133489700e+001,-5.03281991318043e-001

3.11665831864199e+004,-1.36846180829553e+001,-5.10305842430443e-001

3.16016524745350e+004,-1.36846229491683e+001,-5.17427670841494e-001

3.20427951035848e+004,-1.36846279512774e+001,-5.24648841231017e-001

3.24900958542493e+004,-1.36846330930516e+001,-5.31970737199602e-001

3.29436406907028e+004,-1.36846383783628e+001,-5.39394761531130e-001

3.34035167771346e+004,-1.36846438111886e+001,-5.46922336453930e-001

3.38698124945009e+004,-1.36846493956152e+001,-5.54554903905167e-001

3.43426174575100e+004,-1.36846551358404e+001,-5.62293925802438e-001

3.48220225318448e+004,-1.36846610361762e+001,-5.70140884314083e-001

3.53081198516260e+004,-1.36846671010520e+001,-5.78097282137959e-001

3.58010028371187e+004,-1.36846733350177e+001,-5.86164642778333e-001

3.63007662126863e+004,-1.36846797427468e+001,-5.94344510832786e-001

3.68075060249948e+004,-1.36846863290398e+001,-6.02638452275939e-001

3.73213196614721e+004,-1.36846930988273e+001,-6.11048054752973e-001

3.78423058690237e+004,-1.36847000571732e+001,-6.19574927873219e-001

3.83705647730104e+004,-1.36847072092789e+001,-6.28220703508348e-001

3.89061978964912e+004,-1.36847145604861e+001,-6.36987036095578e-001

3.94493081797342e+004,-1.36847221162809e+001,-6.45875602942202e-001

3.99999999999998e+004,-1.36847298822972e+001,-6.54888104537077e-001

4.05583791916010e+004,-1.36847378643206e+001,-6.64026264865827e-001

4.11245530662425e+004,-1.36847460682927e+001,-6.73291831725094e-001

4.16986304336447e+004,-1.36847545003143e+001,-6.82686577048235e-001

4.22807216224550e+004,-1.36847631666504e+001,-6.92212297229188e-001

4.28709385014515e+004,-1.36847720737335e+001,-7.01870813454931e-001

4.34693945010421e+004,-1.36847812281683e+001,-7.11663972038127e-001

4.40762046350642e+004,-1.36847906367364e+001,-7.21593644755345e-001

4.46914855228886e+004,-1.36848003063996e+001,-7.31661729193292e-001

4.53153554118317e+004,-1.36848102443059e+001,-7.41870149091999e-001

4.59479341998812e+004,-1.36848204577931e+001,-7.52220854698660e-001

4.65893434587380e+004,-1.36848309543940e+001,-7.62715823123156e-001

4.72397064571810e+004,-1.36848417418411e+001,-7.73357058697892e-001

4.78991481847569e+004,-1.36848528280715e+001,-7.84146593343885e-001

4.85677953758016e+004,-1.36848642212323e+001,-7.95086486938268e-001

4.92457765337964e+004,-1.36848759296851e+001,-8.06178827689328e-001

4.99332219560642e+004,-1.36848879620121e+001,-8.17425732514401e-001

5.06302637588109e+004,-1.36849003270206e+001,-8.28829347424333e-001

5.13370359025159e+004,-1.36849130337489e+001,-8.40391847909093e-001

5.20536742176771e+004,-1.36849260914721e+001,-8.52115439331121e-001

5.27803164309155e+004,-1.36849395097075e+001,-8.64002357322194e-001

5.35171021914442e+004,-1.36849532982202e+001,-8.76054868186737e-001

5.42641730979066e+004,-1.36849674670292e+001,-8.88275269307527e-001

5.50216727255895e+004,-1.36849820264138e+001,-9.00665889556344e-001

5.57897466540159e+004,-1.36849969869189e+001,-9.13229089712595e-001

5.65685424949235e+004,-1.36850123593618e+001,-9.25967262883798e-001

5.73582099206328e+004,-1.36850281548385e+001,-9.38882834931692e-001

5.81589006928121e+004,-1.36850443847298e+001,-9.51978264904188e-001

5.89707686916437e+004,-1.36850610607081e+001,-9.65256045473180e-001

5.97939699453972e+004,-1.36850781947441e+001,-9.78718703373650e-001

6.06286626604156e+004,-1.36850957991134e+001,-9.92368799852636e-001

6.14750072515201e+004,-1.36851138864030e+001,-1.00620893112146e+000

6.23331663728396e+004,-1.36851324695193e+001,-1.02024172881076e+000

6.32033049490698e+004,-1.36851515616937e+001,-1.03446986043583e+000

6.40855902071694e+004,-1.36851711764913e+001,-1.04889602986192e+000

6.49801917084985e+004,-1.36851913278168e+001,-1.06352297777925e+000

6.58872813814055e+004,-1.36852120299226e+001,-1.07835348218108e+000

6.68070335542691e+004,-1.36852332974159e+001,-1.09339035884759e+000

6.77396249890018e+004,-1.36852551452664e+001,-1.10863646183522e+000

6.86852349150199e+004,-1.36852775888139e+001,-1.12409468397179e+000

6.96440450636895e+004,-1.36853006437757e+001,-1.13976795735661e+000

7.06162397032520e+004,-1.36853243262544e+001,-1.15565925386769e+000

7.16020056742374e+004,-1.36853486527462e+001,-1.17177158567186e+000

7.26015324253724e+004,-1.36853736401479e+001,-1.18810800574302e+000

7.36150120499896e+004,-1.36853993057655e+001,-1.20467160838573e+000

7.46426393229441e+004,-1.36854256673221e+001,-1.22146552976152e+000

7.56846117380472e+004,-1.36854527429655e+001,-1.23849294842714e+000

7.67411295460207e+004,-1.36854805512768e+001,-1.25575708587160e+000

7.78123957929823e+004,-1.36855091112781e+001,-1.27326120706377e+000

7.88986163594682e+004,-1.36855384424405e+001,-1.29100862100492e+000

7.99999999999995e+004,-1.36855685646927e+001,-1.30900268128528e+000

8.11167583832018e+004,-1.36855994984288e+001,-1.32724678664962e+000

8.22491061324848e+004,-1.36856312645163e+001,-1.34574438156639e+000

8.33972608672892e+004,-1.36856638843042e+001,-1.36449895680412e+000

8.45614432449099e+004,-1.36856973796312e+001,-1.38351405001353e+000

8.57418770029029e+004,-1.36857317728338e+001,-1.40279324631531e+000

8.69387890020841e+004,-1.36857670867538e+001,-1.42234017889649e+000

8.81524092701283e+004,-1.36858033447465e+001,-1.44215852960940e+000

8.93829710457770e+004,-1.36858405706884e+001,-1.46225202958043e+000

9.06307108236633e+004,-1.36858787889844e+001,-1.48262445982297e+000

9.18958683997622e+004,-1.36859180245764e+001,-1.50327965185667e+000

9.31786869174758e+004,-1.36859583029495e+001,-1.52422148833571e+000

9.44794129143618e+004,-1.36859996501397e+001,-1.54545390368157e+000

9.57982963695136e+004,-1.36860420927416e+001,-1.56698088472115e+000

9.71355907516031e+004,-1.36860856579137e+001,-1.58880647133623e+000

9.84915530675926e+004,-1.36861303733866e+001,-1.61093475711419e+000

9.98664439121282e+004,-1.36861762674683e+001,-1.63336989001064e+000

1.01260527517622e+005,-1.36862233690508e+001,-1.65611607301432e+000

1.02674071805032e+005,-1.36862717076155e+001,-1.67917756482397e+000

1.04107348435354e+005,-1.36863213132391e+001,-1.70255868052766e+000

1.05560632861831e+005,-1.36863722165982e+001,-1.72626379229431e+000

1.07034204382888e+005,-1.36864244489745e+001,-1.75029733006628e+000

1.08528346195813e+005,-1.36864780422585e+001,-1.77466378226774e+000

1.10043345451179e+005,-1.36865330289540e+001,-1.79936769651204e+000

1.11579493308032e+005,-1.36865894421807e+001,-1.82441368032435e+000

1.13137084989847e+005,-1.36866473156778e+001,-1.84980640186677e+000

1.14716419841265e+005,-1.36867066838056e+001,-1.87555059067558e+000

1.16317801385624e+005,-1.36867675815477e+001,-1.90165103840378e+000

1.17941537383287e+005,-1.36868300445115e+001,-1.92811259957424e+000

1.19587939890794e+005,-1.36868941089293e+001,-1.95494019234055e+000

1.21257325320831e+005,-1.36869598116574e+001,-1.98213879925651e+000

1.22950014503040e+005,-1.36870271901748e+001,-2.00971346805701e+000

1.24666332745679e+005,-1.36870962825822e+001,-2.03766931244462e+000

1.26406609898139e+005,-1.36871671275983e+001,-2.06601151288857e+000

1.28171180414339e+005,-1.36872397645567e+001,-2.09474531743409e+000

1.29960383416997e+005,-1.36873142334014e+001,-2.12387604251861e+000

1.31774562762811e+005,-1.36873905746807e+001,-2.15340907380330e+000

1.33614067108538e+005,-1.36874688295412e+001,-2.18334986701096e+000

1.35479249978003e+005,-1.36875490397196e+001,-2.21370394877847e+000

1.37370469830040e+005,-1.36876312475343e+001,-2.24447691751933e+000

1.39288090127379e+005,-1.36877154958752e+001,-2.27567444429808e+000

1.41232479406504e+005,-1.36878018281923e+001,-2.30730227371822e+000

1.43204011348474e+005,-1.36878902884833e+001,-2.33936622482296e+000

1.45203064850745e+005,-1.36879809212798e+001,-2.37187219200730e+000

1.47230024099979e+005,-1.36880737716318e+001,-2.40482614594785e+000

1.49285278645888e+005,-1.36881688850907e+001,-2.43823413454343e+000

1.51369223476094e+005,-1.36882663076917e+001,-2.47210228387314e+000

1.53482259092041e+005,-1.36883660859333e+001,-2.50643679916860e+000

1.55624791585964e+005,-1.36884682667562e+001,-2.54124396580355e+000

1.57797232718936e+005,-1.36885728975199e+001,-2.57653015030015e+000

1.59999999999999e+005,-1.36886800259784e+001,-2.61230180135190e+000

1.62233516766403e+005,-1.36887897002529e+001,-2.64856545086597e+000

1.64498212264969e+005,-1.36889019688038e+001,-2.68532771502611e+000

1.66794521734578e+005,-1.36890168804005e+001,-2.72259529537091e+000

1.69122886489819e+005,-1.36891344840889e+001,-2.76037497989919e+000

1.71483754005805e+005,-1.36892548291578e+001,-2.79867364419145e+000

1.73877578004168e+005,-1.36893779651021e+001,-2.83749825255709e+000

1.76304818540256e+005,-1.36895039415857e+001,-2.87685585920453e+000

1.78765942091554e+005,-1.36896328084004e+001,-2.91675360943606e+000

1.81261421647326e+005,-1.36897646154243e+001,-2.95719874086732e+000

1.83791736799524e+005,-1.36898994125776e+001,-2.99819858467503e+000

1.86357373834951e+005,-1.36900372497760e+001,-3.03976056687143e+000

1.88958825828723e+005,-1.36901781768823e+001,-3.08189220960771e+000

1.91596592739027e+005,-1.36903222436560e+001,-3.12460113250833e+000

1.94271181503206e+005,-1.36904694997008e+001,-3.16789505403603e+000

1.96983106135185e+005,-1.36906199944093e+001,-3.21178179289002e+000

1.99732887824256e+005,-1.36907737769069e+001,-3.25626926943738e+000

2.02521055035243e+005,-1.36909308959926e+001,-3.30136550718053e+000

2.05348143610063e+005,-1.36910914000782e+001,-3.34707863426079e+000

2.08214696870707e+005,-1.36912553371259e+001,-3.39341688499963e+000

2.11121265723661e+005,-1.36914227545828e+001,-3.44038860148038e+000

2.14068408765776e+005,-1.36915936993155e+001,-3.48800223516915e+000

2.17056692391625e+005,-1.36917682175409e+001,-3.53626634858015e+000

2.20086690902357e+005,-1.36919463547568e+001,-3.58518961698151e+000

2.23158986616063e+005,-1.36921281556705e+001,-3.63478083015027e+000

2.26274169979693e+005,-1.36923136641253e+001,-3.68504889416976e+000

2.29432839682530e+005,-1.36925029230271e+001,-3.73600283327871e+000

2.32635602771247e+005,-1.36926959742681e+001,-3.78765179176688e+000

2.35883074766574e+005,-1.36928928586512e+001,-3.84000503592372e+000

2.39175879781588e+005,-1.36930936158118e+001,-3.89307195603907e+000

2.42514650641661e+005,-1.36932982841409e+001,-3.94686206845560e+000

2.45900029006080e+005,-1.36935069007053e+001,-4.00138501768016e+000

2.49332665491357e+005,-1.36937195011701e+001,-4.05665057854734e+000

2.52813219796278e+005,-1.36939361197190e+001,-4.11266865844486e+000

2.56342360828676e+005,-1.36941567889762e+001,-4.16944929959422e+000

2.59920766833993e+005,-1.36943815399276e+001,-4.22700268139515e+000

2.63549125525621e+005,-1.36946104018440e+001,-4.28533912282776e+000

2.67228134217075e+005,-1.36948434022042e+001,-4.34446908492003e+000

2.70958499956006e+005,-1.36950805666196e+001,-4.40440317327703e+000

2.74740939660078e+005,-1.36953219187605e+001,-4.46515214067452e+000

2.78576180254757e+005,-1.36955674802848e+001,-4.52672688971750e+000

2.82464958813007e+005,-1.36958172707677e+001,-4.58913847556464e+000

2.86408022696948e+005,-1.36960713076348e+001,-4.65239810871800e+000

2.90406129701488e+005,-1.36963296060984e+001,-4.71651715788034e+000

2.94460048199957e+005,-1.36965921790959e+001,-4.78150715287879e+000

2.98570557291775e+005,-1.36968590372327e+001,-4.84737978765439e+000

3.02738446952187e+005,-1.36971301887291e+001,-4.91414692332077e+000

3.06964518184081e+005,-1.36974056393707e+001,-4.98182059128757e+000

3.11249583171928e+005,-1.36976853924646e+001,-5.05041299645182e+000

3.15594465437872e+005,-1.36979694488000e+001,-5.11993652045409e+000

3.19999999999997e+005,-1.36982578066140e+001,-5.19040372500143e+000

3.24467033532806e+005,-1.36985504615643e+001,-5.26182735525409e+000

3.28996424529938e+005,-1.36988474067069e+001,-5.33422034327564e+000

3.33589043469155e+005,-1.36991486324810e+001,-5.40759581154707e+000

3.38245772979638e+005,-1.36994541267005e+001,-5.48196707654041e+000

3.42967508011610e+005,-1.36997638745531e+001,-5.55734765235353e+000

3.47755156008335e+005,-1.37000778586065e+001,-5.63375125440192e+000

3.52609637080511e+005,-1.37003960588227e+001,-5.71119180316856e+000

3.57531884183106e+005,-1.37007184525802e+001,-5.78968342800612e+000

3.62522843294651e+005,-1.37010450147053e+001,-5.86924047099320e+000

3.67583473599047e+005,-1.37013757175106e+001,-5.94987749084011e+000

3.72714747669902e+005,-1.37017105308445e+001,-6.03160926684193e+000

3.77917651657445e+005,-1.37020494221474e+001,-6.11445080287777e+000

3.83193185478053e+005,-1.37023923565194e+001,-6.19841733145151e+000

3.88542363006410e+005,-1.37027392967954e+001,-6.28352431777343e+000

3.93966212270369e+005,-1.37030902036313e+001,-6.36978746387874e+000

3.99465775648511e+005,-1.37034450355984e+001,-6.45722271277937e+000

4.05042110070485e+005,-1.37038037492887e+001,-6.54584625264929e+000

4.10696287220124e+005,-1.37041662994288e+001,-6.63567452103521e+000

4.16429393741414e+005,-1.37045326390035e+001,-6.72672420909537e+000

4.22242531447321e+005,-1.37049027193897e+001,-6.81901226585961e+000

4.28136817531551e+005,-1.37052764904985e+001,-6.91255590250804e+000

4.34113384783250e+005,-1.37056539009275e+001,-7.00737259666840e+000

4.40173381804713e+005,-1.37060348981218e+001,-7.10348009672486e+000

4.46317973232124e+005,-1.37064194285437e+001,-7.20089642613869e+000

4.52548339959385e+005,-1.37068074378512e+001,-7.29963988777799e+000

4.58865679365059e+005,-1.37071988710846e+001,-7.39972906825150e+000

4.65271205542494e+005,-1.37075936728614e+001,-7.50118284224700e+000

4.71766149533147e+005,-1.37079917875782e+001,-7.60402037686949e+000

4.78351759563174e+005,-1.37083931596205e+001,-7.70826113597983e+000

4.85029301283321e+005,-1.37087977335789e+001,-7.81392488452897e+000

4.91800058012158e+005,-1.37092054544712e+001,-7.92103169288860e+000

4.98665330982714e+005,-1.37096162679714e+001,-8.02960194117571e+000

5.05626439592555e+005,-1.37100301206429e+001,-8.13965632356942e+000

5.12684721657352e+005,-1.37104469601777e+001,-8.25121585262030e+000

5.19841533667984e+005,-1.37108667356385e+001,-8.36430186355058e+000

5.27098251051240e+005,-1.37112893977058e+001,-8.47893601854579e+000

5.34456268434150e+005,-1.37117148989277e+001,-8.59514031103650e+000

5.41916999912011e+005,-1.37121431939719e+001,-8.71293706997214e+000

