Freq.,VOut,OutRef

1.00000000000000e+004,-2.36256440781232e+001,-3.23118873016683e-001

1.01395947979003e+004,-2.36256465033126e+001,-3.27629274230198e-001

1.02811382665607e+004,-2.36256489966575e+001,-3.32202631074926e-001

1.04246576084112e+004,-2.36256515600726e+001,-3.36839822072873e-001

1.05701804056138e+004,-2.36256541955261e+001,-3.41541737996138e-001

1.07177346253629e+004,-2.36256569050419e+001,-3.46309282037750e-001

1.08673486252606e+004,-2.36256596907002e+001,-3.51143369985194e-001

1.10190511587661e+004,-2.36256625546399e+001,-3.56044930394977e-001

1.11728713807222e+004,-2.36256654990601e+001,-3.61014904768999e-001

1.13288388529580e+004,-2.36256685262209e+001,-3.66054247739573e-001

1.14869835499703e+004,-2.36256716384466e+001,-3.71163927244463e-001

1.16473358646846e+004,-2.36256748381263e+001,-3.76344924718865e-001

1.18099266142953e+004,-2.36256781277163e+001,-3.81598235278919e-001

1.19747870461893e+004,-2.36256815097417e+001,-3.86924867913466e-001

1.21419488439505e+004,-2.36256849867985e+001,-3.92325845676147e-001

1.23114441334492e+004,-2.36256885615556e+001,-3.97802205882383e-001

1.24833054890161e+004,-2.36256922367567e+001,-4.03355000305252e-001

1.26575659397028e+004,-2.36256960152224e+001,-4.08985295379290e-001

1.28342589756290e+004,-2.36256998998525e+001,-4.14694172401419e-001

1.30134185544193e+004,-2.36257038936281e+001,-4.20482727739708e-001

1.31950791077289e+004,-2.36257079996141e+001,-4.26352073040359e-001

1.33792755478611e+004,-2.36257122209608e+001,-4.32303335443071e-001

1.35660432744767e+004,-2.36257165609076e+001,-4.38337657792385e-001

1.37554181813974e+004,-2.36257210227842e+001,-4.44456198859136e-001

1.39474366635040e+004,-2.36257256100137e+001,-4.50660133560570e-001

1.41421356237309e+004,-2.36257303261154e+001,-4.56950653182400e-001

1.43395524801583e+004,-2.36257351747071e+001,-4.63328965609225e-001

1.45397251732031e+004,-2.36257401595079e+001,-4.69796295552865e-001

1.47426921729110e+004,-2.36257452843416e+001,-4.76353884785832e-001

1.49484924863494e+004,-2.36257505531385e+001,-4.83002992379159e-001

1.51571656651040e+004,-2.36257559699395e+001,-4.89744894941949e-001

1.53687518128801e+004,-2.36257615388987e+001,-4.96580886863644e-001

1.55832915932100e+004,-2.36257672642864e+001,-5.03512280560880e-001

1.58008262372675e+004,-2.36257731504928e+001,-5.10540406728158e-001

1.60213975517924e+004,-2.36257792020309e+001,-5.17666614591012e-001

1.62450479271247e+004,-2.36257854235398e+001,-5.24892272162595e-001

1.64718203453514e+004,-2.36257918197894e+001,-5.32218766502245e-001

1.67017583885674e+004,-2.36257983956824e+001,-5.39647503982728e-001

1.69349062472505e+004,-2.36258051562590e+001,-5.47179910555011e-001

1.71713087287550e+004,-2.36258121067005e+001,-5.54817432021172e-001

1.74110112659224e+004,-2.36258192523335e+001,-5.62561534305964e-001

1.76540599258131e+004,-2.36258265986334e+001,-5.70413703739850e-001

1.79005014185594e+004,-2.36258341512290e+001,-5.78375447337371e-001

1.81503831063432e+004,-2.36258419159065e+001,-5.86448293085707e-001

1.84037530124975e+004,-2.36258498986141e+001,-5.94633790232941e-001

1.86606598307361e+004,-2.36258581054664e+001,-6.02933509583822e-001

1.89211529345119e+004,-2.36258665427491e+001,-6.11349043795735e-001

1.91852823865052e+004,-2.36258752169236e+001,-6.19882007682459e-001

1.94530989482457e+004,-2.36258841346320e+001,-6.28534038518253e-001

1.97246540898671e+004,-2.36258933027023e+001,-6.37306796350191e-001

1.99999999999999e+004,-2.36259027281532e+001,-6.46201964310383e-001

2.02791895958005e+004,-2.36259124181997e+001,-6.55221248936423e-001

2.05622765331213e+004,-2.36259223802584e+001,-6.64366380492755e-001

2.08493152168224e+004,-2.36259326219531e+001,-6.73639113299275e-001

2.11403608112276e+004,-2.36259431511207e+001,-6.83041226062194e-001

2.14354692507258e+004,-2.36259539758170e+001,-6.92574522209165e-001

2.17346972505211e+004,-2.36259651043228e+001,-7.02240830231556e-001

2.20381023175322e+004,-2.36259765451501e+001,-7.12042004029735e-001

2.23457427614443e+004,-2.36259883070483e+001,-7.21979923261719e-001

2.26576777059159e+004,-2.36260003990117e+001,-7.32056493696185e-001

2.29739670999406e+004,-2.36260128302849e+001,-7.42273647575955e-001

2.32946717293690e+004,-2.36260256103707e+001,-7.52633343979183e-001

2.36198532285905e+004,-2.36260387490372e+001,-7.63137569186435e-001

2.39495740923785e+004,-2.36260522563247e+001,-7.73788337058591e-001

2.42838976879009e+004,-2.36260661425533e+001,-7.84587689413027e-001

2.46228882668982e+004,-2.36260804183313e+001,-7.95537696407022e-001

2.49666109780322e+004,-2.36260950945621e+001,-8.06640456929013e-001

2.53151318794055e+004,-2.36261101824533e+001,-8.17898098988763e-001

2.56685179512580e+004,-2.36261256935245e+001,-8.29312780120303e-001

2.60268371088386e+004,-2.36261416396163e+001,-8.40886687784096e-001

2.63901582154578e+004,-2.36261580328987e+001,-8.52622039777735e-001

2.67585510957221e+004,-2.36261748858807e+001,-8.64521084650850e-001

2.71320865489533e+004,-2.36261922114193e+001,-8.76586102124835e-001

2.75108363627948e+004,-2.36262100227291e+001,-8.88819403521376e-001

2.78948733270080e+004,-2.36262283333923e+001,-9.01223332191494e-001

2.82842712474618e+004,-2.36262471573687e+001,-9.13800263953423e-001

2.86791049603164e+004,-2.36262665090060e+001,-9.26552607537715e-001

2.90794503464061e+004,-2.36262864030506e+001,-9.39482805033608e-001

2.94853843458219e+004,-2.36263068546585e+001,-9.52593332344013e-001

2.98969849726987e+004,-2.36263278794065e+001,-9.65886699647596e-001

3.03143313302078e+004,-2.36263494933038e+001,-9.79365451863498e-001

3.07375036257601e+004,-2.36263717128037e+001,-9.93032169124468e-001

3.11665831864199e+004,-2.36263945548159e+001,-1.00688946725553e+000

3.16016524745350e+004,-2.36264180367190e+001,-1.02093999825876e+000

3.20427951035848e+004,-2.36264421763730e+001,-1.03518645080339e+000

3.24900958542493e+004,-2.36264669921330e+001,-1.04963155072410e+000

3.29436406907028e+004,-2.36264925028622e+001,-1.06427806152414e+000

3.34035167771346e+004,-2.36265187279459e+001,-1.07912878488431e+000

3.38698124945009e+004,-2.36265456873059e+001,-1.09418656118139e+000

3.43426174575100e+004,-2.36265734014149e+001,-1.10945427000889e+000

3.48220225318448e+004,-2.36266018913114e+001,-1.12493483070793e+000

3.53081198516260e+004,-2.36266311786153e+001,-1.14063120290314e+000

3.58010028371187e+004,-2.36266612855436e+001,-1.15654638704512e+000

3.63007662126863e+004,-2.36266922349266e+001,-1.17268342496072e+000

3.68075060249948e+004,-2.36267240502243e+001,-1.18904540040887e+000

3.73213196614721e+004,-2.36267567555436e+001,-1.20563543964496e+000

3.78423058690237e+004,-2.36267903756558e+001,-1.22245671199094e+000

3.83705647730104e+004,-2.36268249360147e+001,-1.23951243041158e+000

3.89061978964912e+004,-2.36268604627743e+001,-1.25680585210188e+000

3.94493081797342e+004,-2.36268969828086e+001,-1.27434027907537e+000

3.99999999999998e+004,-2.36269345237303e+001,-1.29211905876540e+000

4.05583791916010e+004,-2.36269731139108e+001,-1.31014558463126e+000

4.11245530662425e+004,-2.36270127825006e+001,-1.32842329677044e+000

4.16986304336447e+004,-2.36270535594502e+001,-1.34695568254070e+000

4.22807216224550e+004,-2.36270954755315e+001,-1.36574627718865e+000

4.28709385014515e+004,-2.36271385623595e+001,-1.38479866448469e+000

4.34693945010421e+004,-2.36271828524150e+001,-1.40411647736874e+000

4.40762046350642e+004,-2.36272283790678e+001,-1.42370339859809e+000

4.46914855228886e+004,-2.36272751766001e+001,-1.44356316140939e+000

4.53153554118317e+004,-2.36273232802305e+001,-1.46369955018424e+000

4.59479341998812e+004,-2.36273727261395e+001,-1.48411640112330e+000

4.65893434587380e+004,-2.36274235514944e+001,-1.50481760292870e+000

4.72397064571810e+004,-2.36274757944753e+001,-1.52580709749426e+000

4.78991481847569e+004,-2.36275294943024e+001,-1.54708888060422e+000

4.85677953758016e+004,-2.36275846912625e+001,-1.56866700263924e+000

4.92457765337964e+004,-2.36276414267380e+001,-1.59054556928984e+000

4.99332219560642e+004,-2.36276997432349e+001,-1.61272874227917e+000

5.06302637588109e+004,-2.36277596844122e+001,-1.63522074009433e+000

5.13370359025159e+004,-2.36278212951127e+001,-1.65802583872326e+000

5.20536742176771e+004,-2.36278846213929e+001,-1.68114837240411e+000

5.27803164309155e+004,-2.36279497105553e+001,-1.70459273437748e+000

5.35171021914442e+004,-2.36280166111804e+001,-1.72836337765161e+000

5.42641730979066e+004,-2.36280853731598e+001,-1.75246481577480e+000

5.50216727255895e+004,-2.36281560477299e+001,-1.77690162361386e+000

5.57897466540159e+004,-2.36282286875071e+001,-1.80167843814350e+000

5.65685424949235e+004,-2.36283033465223e+001,-1.82679995924372e+000

5.73582099206328e+004,-2.36283800802583e+001,-1.85227095050449e+000

5.81589006928121e+004,-2.36284589456859e+001,-1.87809624004085e+000

5.89707686916437e+004,-2.36285400013023e+001,-1.90428072131408e+000

5.97939699453972e+004,-2.36286233071700e+001,-1.93082935396409e+000

6.06286626604156e+004,-2.36287089249559e+001,-1.95774716464775e+000

6.14750072515201e+004,-2.36287969179728e+001,-1.98503924788814e+000

6.23331663728396e+004,-2.36288873512196e+001,-2.01271076693120e+000

6.32033049490698e+004,-2.36289802914248e+001,-2.04076695461006e+000

6.40855902071694e+004,-2.36290758070892e+001,-2.06921311422038e+000

6.49801917084985e+004,-2.36291739685299e+001,-2.09805462040279e+000

6.58872813814055e+004,-2.36292748479262e+001,-2.12729692003363e+000

6.68070335542691e+004,-2.36293785193649e+001,-2.15694553312536e+000

6.77396249890018e+004,-2.36294850588878e+001,-2.18700605373453e+000

6.86852349150199e+004,-2.36295945445396e+001,-2.21748415088052e+000

6.96440450636895e+004,-2.36297070564173e+001,-2.24838556946937e+000

7.06162397032520e+004,-2.36298226767198e+001,-2.27971613122975e+000

7.16020056742374e+004,-2.36299414897989e+001,-2.31148173565621e+000

7.26015324253724e+004,-2.36300635822120e+001,-2.34368836095979e+000

7.36150120499896e+004,-2.36301890427745e+001,-2.37634206502922e+000

7.46426393229441e+004,-2.36303179626144e+001,-2.40944898640043e+000

7.56846117380472e+004,-2.36304504352272e+001,-2.44301534523266e+000

7.67411295460207e+004,-2.36305865565322e+001,-2.47704744429657e+000

7.78123957929823e+004,-2.36307264249299e+001,-2.51155166996715e+000

7.88986163594682e+004,-2.36308701413600e+001,-2.54653449322795e+000

7.99999999999995e+004,-2.36310178093614e+001,-2.58200247068277e+000

8.11167583832018e+004,-2.36311695351319e+001,-2.61796224557625e+000

8.22491061324848e+004,-2.36313254275902e+001,-2.65442054882157e+000

8.33972608672892e+004,-2.36314855984382e+001,-2.69138420003925e+000

8.45614432449099e+004,-2.36316501622251e+001,-2.72886010860134e+000

8.57418770029029e+004,-2.36318192364114e+001,-2.76685527468706e+000

8.69387890020841e+004,-2.36319929414353e+001,-2.80537679034405e+000

8.81524092701283e+004,-2.36321714007793e+001,-2.84443184055973e+000

8.93829710457770e+004,-2.36323547410377e+001,-2.88402770434111e+000

9.06307108236633e+004,-2.36325430919863e+001,-2.92417175580161e+000

9.18958683997622e+004,-2.36327365866512e+001,-2.96487146525847e+000

9.31786869174758e+004,-2.36329353613809e+001,-3.00613440033528e+000

9.44794129143618e+004,-2.36331395559175e+001,-3.04796822707635e+000

9.57982963695136e+004,-2.36333493134701e+001,-3.09038071106749e+000

9.71355907516031e+004,-2.36335647807882e+001,-3.13337971856486e+000

9.84915530675926e+004,-2.36337861082371e+001,-3.17697321763373e+000

9.98664439121282e+004,-2.36340134498734e+001,-3.22116927929469e+000

1.01260527517622e+005,-2.36342469635221e+001,-3.26597607867789e+000

1.02674071805032e+005,-2.36344868108539e+001,-3.31140189618685e+000

1.04107348435354e+005,-2.36347331574636e+001,-3.35745511867036e+000

1.05560632861831e+005,-2.36349861729501e+001,-3.40414424060294e+000

1.07034204382888e+005,-2.36352460309958e+001,-3.45147786527355e+000

1.08528346195813e+005,-2.36355129094481e+001,-3.49946470598442e+000

1.10043345451179e+005,-2.36357869904009e+001,-3.54811358725756e+000

1.11579493308032e+005,-2.36360684602770e+001,-3.59743344605071e+000

1.13137084989847e+005,-2.36363575099112e+001,-3.64743333298229e+000

1.14716419841265e+005,-2.36366543346343e+001,-3.69812241356633e+000

1.16317801385624e+005,-2.36369591343569e+001,-3.74950996945638e+000

1.17941537383287e+005,-2.36372721136548e+001,-3.80160539969932e+000

1.19587939890794e+005,-2.36375934818540e+001,-3.85441822199893e+000

1.21257325320831e+005,-2.36379234531169e+001,-3.90795807399032e+000

1.22950014503040e+005,-2.36382622465283e+001,-3.96223471452424e+000

1.24666332745679e+005,-2.36386100861822e+001,-4.01725802496284e+000

1.26406609898139e+005,-2.36389672012683e+001,-4.07303801048624e+000

1.28171180414339e+005,-2.36393338261600e+001,-4.12958480141075e+000

1.29960383416997e+005,-2.36397102005009e+001,-4.18690865451985e+000

1.31774562762811e+005,-2.36400965692930e+001,-4.24501995440637e+000

1.33614067108538e+005,-2.36404931829837e+001,-4.30392921482939e+000

1.35479249978003e+005,-2.36409002975542e+001,-4.36364708008295e+000

1.37370469830040e+005,-2.36413181746064e+001,-4.42418432638050e+000

1.39288090127379e+005,-2.36417470814507e+001,-4.48555186325392e+000

1.41232479406504e+005,-2.36421872911936e+001,-4.54776073496675e+000

1.43204011348474e+005,-2.36426390828246e+001,-4.61082212194569e+000

1.45203064850745e+005,-2.36431027413033e+001,-4.67474734222803e+000

1.47230024099979e+005,-2.36435785576459e+001,-4.73954785292778e+000

1.49285278645888e+005,-2.36440668290118e+001,-4.80523525171971e+000

1.51369223476094e+005,-2.36445678587891e+001,-4.87182127834501e+000

1.53482259092041e+005,-2.36450819566804e+001,-4.93931781613620e+000

1.55624791585964e+005,-2.36456094387875e+001,-5.00773689356541e+000

1.57797232718936e+005,-2.36461506276960e+001,-5.07709068581554e+000

1.59999999999999e+005,-2.36467058525592e+001,-5.14739151637605e+000

1.62233516766403e+005,-2.36472754491811e+001,-5.21865185866518e+000

1.64498212264969e+005,-2.36478597600996e+001,-5.29088433767830e+000

1.66794521734578e+005,-2.36484591346684e+001,-5.36410173166702e+000

1.69122886489819e+005,-2.36490739291385e+001,-5.43831697384647e+000

1.71483754005805e+005,-2.36497045067393e+001,-5.51354315413703e+000

1.73877578004168e+005,-2.36503512377585e+001,-5.58979352093797e+000

1.76304818540256e+005,-2.36510144996227e+001,-5.66708148293774e+000

1.78765942091554e+005,-2.36516946769759e+001,-5.74542061096114e+000

1.81261421647326e+005,-2.36523921617593e+001,-5.82482463985617e+000

1.83791736799524e+005,-2.36531073532890e+001,-5.90530747042246e+000

1.86357373834951e+005,-2.36538406583347e+001,-5.98688317138256e+000

1.88958825828723e+005,-2.36545924911978e+001,-6.06956598140017e+000

1.91596592739027e+005,-2.36553632737897e+001,-6.15337031114454e+000

1.94271181503206e+005,-2.36561534357094e+001,-6.23831074540612e+000

1.96983106135185e+005,-2.36569634143229e+001,-6.32440204526479e+000

1.99732887824256e+005,-2.36577936548413e+001,-6.41165915031266e+000

2.02521055035243e+005,-2.36586446104011e+001,-6.50009718093367e+000

2.05348143610063e+005,-2.36595167421448e+001,-6.58973144064469e+000

2.08214696870707e+005,-2.36604105193024e+001,-6.68057741849643e+000

2.11121265723661e+005,-2.36613264192754e+001,-6.77265079154152e+000

2.14068408765776e+005,-2.36622649277217e+001,-6.86596742736836e+000

2.17056692391625e+005,-2.36632265386429e+001,-6.96054338670598e+000

2.20086690902357e+005,-2.36642117544750e+001,-7.05639492610037e+000

2.23158986616063e+005,-2.36652210861810e+001,-7.15353850066623e+000

2.26274169979693e+005,-2.36662550533478e+001,-7.25199076691631e+000

2.29432839682530e+005,-2.36673141842870e+001,-7.35176858567024e+000

2.32635602771247e+005,-2.36683990161399e+001,-7.45288902504517e+000

2.35883074766574e+005,-2.36695100949879e+001,-7.55536936353201e+000

2.39175879781588e+005,-2.36706479759685e+001,-7.65922709315682e+000

2.42514650641661e+005,-2.36718132233981e+001,-7.76447992273216e+000

2.45900029006080e+005,-2.36730064109011e+001,-7.87114578119804e+000

2.49332665491357e+005,-2.36742281215479e+001,-7.97924282105567e+000

2.52813219796278e+005,-2.36754789479999e+001,-8.08878942189527e+000

2.56342360828676e+005,-2.36767594926658e+001,-8.19980419401853e+000

2.59920766833993e+005,-2.36780703678666e+001,-8.31230598215853e+000

2.63549125525621e+005,-2.36794121960125e+001,-8.42631386929565e+000

2.67228134217075e+005,-2.36807856097916e+001,-8.54184718057300e+000

2.70958499956006e+005,-2.36821912523717e+001,-8.65892548730894e+000

2.74740939660078e+005,-2.36836297776159e+001,-8.77756861110910e+000

2.78576180254757e+005,-2.36851018503136e+001,-8.89779662807581e+000

2.82464958813007e+005,-2.36866081464273e+001,-9.01962987311495e+000

2.86408022696948e+005,-2.36881493533564e+001,-9.14308894433992e+000

2.90406129701488e+005,-2.36897261702196e+001,-9.26819470756970e+000

2.94460048199957e+005,-2.36913393081569e+001,-9.39496830092135e+000

2.98570557291775e+005,-2.36929894906509e+001,-9.52343113949168e+000

3.02738446952187e+005,-2.36946774538717e+001,-9.65360492012853e+000

3.06964518184081e+005,-2.36964039470433e+001,-9.78551162628569e+000

3.11249583171928e+005,-2.36981697328339e+001,-9.91917353295947e+000

3.15594465437872e+005,-2.36999755877727e+001,-1.00546132117020e+001

3.19999999999997e+005,-2.37018223026919e+001,-1.01918535357061e+001

3.24467033532806e+005,-2.37037106831967e+001,-1.03309176849572e+001

3.28996424529938e+005,-2.37056415501643e+001,-1.04718291514452e+001

3.33589043469155e+005,-2.37076157402720e+001,-1.06146117444315e+001

3.38245772979638e+005,-2.37096341065567e+001,-1.07592895957629e+001

3.42967508011610e+005,-2.37116975190070e+001,-1.09058871652245e+001

3.47755156008335e+005,-2.37138068651869e+001,-1.10544292459255e+001

3.52609637080511e+005,-2.37159630508949e+001,-1.12049409697063e+001

3.57531884183106e+005,-2.37181670008574e+001,-1.13574478125608e+001

3.62522843294651e+005,-2.37204196594582e+001,-1.15119756000616e+001

3.67583473599047e+005,-2.37227219915045e+001,-1.16685505127786e+001

3.72714747669902e+005,-2.37250749830300e+001,-1.18271990916827e+001

3.77917651657445e+005,-2.37274796421375e+001,-1.19879482435183e+001

3.83193185478053e+005,-2.37299369998780e+001,-1.21508252461382e+001

3.88542363006410e+005,-2.37324481111711e+001,-1.23158577537857e+001

3.93966212270369e+005,-2.37350140557638e+001,-1.24830738023129e+001

3.99465775648511e+005,-2.37376359392293e+001,-1.26525018143208e+001

4.05042110070485e+005,-2.37403148940065e+001,-1.28241706042113e+001

4.10696287220124e+005,-2.37430520804798e+001,-1.29981093831330e+001

4.16429393741414e+005,-2.37458486880980e+001,-1.31743477638133e+001

4.22242531447321e+005,-2.37487059365351e+001,-1.33529157652571e+001

4.28136817531551e+005,-2.37516250768899e+001,-1.35338438173021e+001

4.34113384783250e+005,-2.37546073929258e+001,-1.37171627650160e+001

4.40173381804713e+005,-2.37576542023493e+001,-1.39029038729212e+001

4.46317973232124e+005,-2.37607668581280e+001,-1.40910988290320e+001

4.52548339959385e+005,-2.37639467498458e+001,-1.42817797486943e+001

4.58865679365059e+005,-2.37671953050956e+001,-1.44749791782093e+001

4.65271205542494e+005,-2.37705139909083e+001,-1.46707300982305e+001

4.71766149533147e+005,-2.37739043152177e+001,-1.48690659269210e+001

4.78351759563174e+005,-2.37773678283583e+001,-1.50700205228563e+001

4.85029301283321e+005,-2.37809061245973e+001,-1.52736281876606e+001

4.91800058012158e+005,-2.37845208436979e+001,-1.54799236683653e+001

4.98665330982714e+005,-2.37882136725124e+001,-1.56889421594760e+001

5.05626439592555e+005,-2.37919863466052e+001,-1.59007193047377e+001

5.12684721657352e+005,-2.37958406519015e+001,-1.61152911985863e+001

5.19841533667984e+005,-2.37997784263627e+001,-1.63326943872772e+001

5.27098251051240e+005,-2.38038015616854e+001,-1.65529658696776e+001

5.34456268434150e+005,-2.38079120050218e+001,-1.67761430977186e+001

5.41916999912011e+005,-2.38121117607207e+001,-1.70022639764914e+001

