Freq.,VOut,OutRef

1.00000000000000e+004,-2.13805360457257e+001,-3.89541250854414e-001

1.01395947979003e+004,-2.13805386854582e+001,-3.94978890648514e-001

1.02811382665607e+004,-2.13805413993819e+001,-4.00492430553423e-001

1.04246576084112e+004,-2.13805441895815e+001,-4.06082929818095e-001

1.05701804056138e+004,-2.13805470582001e+001,-4.11751462466837e-001

1.07177346253629e+004,-2.13805500074410e+001,-4.17499117505650e-001

1.08673486252606e+004,-2.13805530395692e+001,-4.23326999128219e-001

1.10190511587661e+004,-2.13805561569136e+001,-4.29236226929883e-001

1.11728713807222e+004,-2.13805593618683e+001,-4.35227936120805e-001

1.13288388529580e+004,-2.13805626568946e+001,-4.41303277743526e-001

1.14869835499703e+004,-2.13805660445229e+001,-4.47463418893824e-001

1.16473358646846e+004,-2.13805695273548e+001,-4.53709542943725e-001

1.18099266142953e+004,-2.13805731080647e+001,-4.60042849767758e-001

1.19747870461893e+004,-2.13805767894021e+001,-4.66464555974293e-001

1.21419488439505e+004,-2.13805805741940e+001,-4.72975895135042e-001

1.23114441334492e+004,-2.13805844653463e+001,-4.79578118025876e-001

1.24833054890161e+004,-2.13805884658467e+001,-4.86272492861092e-001

1.26575659397028e+004,-2.13805925787667e+001,-4.93060305540193e-001

1.28342589756290e+004,-2.13805968072642e+001,-4.99942859891202e-001

1.30134185544193e+004,-2.13806011545852e+001,-5.06921477922023e-001

1.31950791077289e+004,-2.13806056240674e+001,-5.13997500071394e-001

1.33792755478611e+004,-2.13806102191417e+001,-5.21172285466624e-001

1.35660432744767e+004,-2.13806149433354e+001,-5.28447212183005e-001

1.37554181813974e+004,-2.13806198002751e+001,-5.35823677506803e-001

1.39474366635040e+004,-2.13806247936885e+001,-5.43303098203486e-001

1.41421356237309e+004,-2.13806299274085e+001,-5.50886910787344e-001

1.43395524801583e+004,-2.13806352053750e+001,-5.58576571797211e-001

1.45397251732031e+004,-2.13806406316388e+001,-5.66373558072567e-001

1.47426921729110e+004,-2.13806462103642e+001,-5.74279367038068e-001

1.49484924863494e+004,-2.13806519458322e+001,-5.82295516989283e-001

1.51571656651040e+004,-2.13806578424439e+001,-5.90423547380066e-001

1.53687518128801e+004,-2.13806639047239e+001,-5.98665019120333e-001

1.55832915932100e+004,-2.13806701373236e+001,-6.07021514870357e-001

1.58008262372675e+004,-2.13806765450249e+001,-6.15494639345242e-001

1.60213975517924e+004,-2.13806831327436e+001,-6.24086019621048e-001

1.62450479271247e+004,-2.13806899055334e+001,-6.32797305443970e-001

1.64718203453514e+004,-2.13806968685898e+001,-6.41630169544598e-001

1.67017583885674e+004,-2.13807040272537e+001,-6.50586307960297e-001

1.69349062472505e+004,-2.13807113870159e+001,-6.59667440353756e-001

1.71713087287550e+004,-2.13807189535209e+001,-6.68875310345167e-001

1.74110112659224e+004,-2.13807267325714e+001,-6.78211685841706e-001

1.76540599258131e+004,-2.13807347301329e+001,-6.87678359375055e-001

1.79005014185594e+004,-2.13807429523379e+001,-6.97277148443383e-001

1.81503831063432e+004,-2.13807514054905e+001,-7.07009895857962e-001

1.84037530124975e+004,-2.13807600960716e+001,-7.16878470092245e-001

1.86606598307361e+004,-2.13807690307436e+001,-7.26884765638658e-001

1.89211529345119e+004,-2.13807782163557e+001,-7.37030703368895e-001

1.91852823865052e+004,-2.13807876599484e+001,-7.47318230899801e-001

1.94530989482457e+004,-2.13807973687597e+001,-7.57749322963148e-001

1.97246540898671e+004,-2.13808073502302e+001,-7.68325981781214e-001

1.99999999999999e+004,-2.13808176120088e+001,-7.79050237447381e-001

2.02791895958005e+004,-2.13808281619583e+001,-7.89924148312439e-001

2.05622765331213e+004,-2.13808390081617e+001,-8.00949801374792e-001

2.08493152168224e+004,-2.13808501589282e+001,-8.12129312676806e-001

2.11403608112276e+004,-2.13808616227994e+001,-8.23464827707217e-001

2.14354692507258e+004,-2.13808734085562e+001,-8.34958521806813e-001

2.17346972505211e+004,-2.13808855252244e+001,-8.46612600583778e-001

2.20381023175322e+004,-2.13808979820829e+001,-8.58429300328681e-001

2.23457427614443e+004,-2.13809107886700e+001,-8.70410888440186e-001

2.26576777059159e+004,-2.13809239547902e+001,-8.82559663854934e-001

2.29739670999406e+004,-2.13809374905226e+001,-8.94877957482302e-001

2.32946717293690e+004,-2.13809514062278e+001,-9.07368132645274e-001

2.36198532285905e+004,-2.13809657125559e+001,-9.20032585529553e-001

2.39495740923785e+004,-2.13809804204548e+001,-9.32873745633961e-001

2.42838976879009e+004,-2.13809955411780e+001,-9.45894076233263e-001

2.46228882668982e+004,-2.13810110862934e+001,-9.59096074840663e-001

2.49666109780322e+004,-2.13810270676920e+001,-9.72482273681186e-001

2.53151318794055e+004,-2.13810434975969e+001,-9.86055240170222e-001

2.56685179512580e+004,-2.13810603885721e+001,-9.99817577396993e-001

2.60268371088386e+004,-2.13810777535328e+001,-1.01377192461538e+000

2.63901582154578e+004,-2.13810956057541e+001,-1.02792095774310e+000

2.67585510957221e+004,-2.13811139588816e+001,-1.04226738986545e+000

2.71320865489533e+004,-2.13811328269417e+001,-1.05681397174477e+000

2.75108363627948e+004,-2.13811522243517e+001,-1.07156349234003e+000

2.78948733270080e+004,-2.13811721659311e+001,-1.08651877933074e+000

2.82842712474618e+004,-2.13811926669124e+001,-1.10168269964895e+000

2.86791049603164e+004,-2.13812137429523e+001,-1.11705816001775e+000

2.90794503464061e+004,-2.13812354101443e+001,-1.13264810749667e+000

2.94853843458219e+004,-2.13812576850296e+001,-1.14845553003570e+000

2.98969849726987e+004,-2.13812805846103e+001,-1.16448345703452e+000

3.03143313302078e+004,-2.13813041263619e+001,-1.18073495991132e+000

3.07375036257601e+004,-2.13813283282459e+001,-1.19721315267853e+000

3.11665831864199e+004,-2.13813532087239e+001,-1.21392119252279e+000

3.16016524745350e+004,-2.13813787867710e+001,-1.23086228039850e+000

3.20427951035848e+004,-2.13814050818896e+001,-1.24803966162520e+000

3.24900958542493e+004,-2.13814321141247e+001,-1.26545662649206e+000

3.29436406907028e+004,-2.13814599040779e+001,-1.28311651087442e+000

3.34035167771346e+004,-2.13814884729236e+001,-1.30102269685289e+000

3.38698124945009e+004,-2.13815178424239e+001,-1.31917861334534e+000

3.43426174575100e+004,-2.13815480349451e+001,-1.33758773674529e+000

3.48220225318448e+004,-2.13815790734743e+001,-1.35625359156606e+000

3.53081198516260e+004,-2.13816109816363e+001,-1.37517975109854e+000

3.58010028371187e+004,-2.13816437837111e+001,-1.39436983807259e+000

3.63007662126863e+004,-2.13816775046517e+001,-1.41382752532922e+000

3.68075060249948e+004,-2.13817121701028e+001,-1.43355653650079e+000

3.73213196614721e+004,-2.13817478064189e+001,-1.45356064670203e+000

3.78423058690237e+004,-2.13817844406847e+001,-1.47384368322488e+000

3.83705647730104e+004,-2.13818221007345e+001,-1.49440952624812e+000

3.89061978964912e+004,-2.13818608151723e+001,-1.51526210955164e+000

3.94493081797342e+004,-2.13819006133932e+001,-1.53640542124227e+000

3.99999999999998e+004,-2.13819415256049e+001,-1.55784350448772e+000

4.05583791916010e+004,-2.13819835828496e+001,-1.57958045825919e+000

4.11245530662425e+004,-2.13820268170262e+001,-1.60162043808555e+000

4.16986304336447e+004,-2.13820712609146e+001,-1.62396765681465e+000

4.22807216224550e+004,-2.13821169481986e+001,-1.64662638538487e+000

4.28709385014515e+004,-2.13821639134905e+001,-1.66960095360783e+000

4.34693945010421e+004,-2.13822121923568e+001,-1.69289575095751e+000

4.40762046350642e+004,-2.13822618213431e+001,-1.71651522737291e+000

4.46914855228886e+004,-2.13823128380010e+001,-1.74046389406838e+000

4.53153554118317e+004,-2.13823652809151e+001,-1.76474632435344e+000

4.59479341998812e+004,-2.13824191897307e+001,-1.78936715446589e+000

4.65893434587380e+004,-2.13824746051824e+001,-1.81433108441016e+000

4.72397064571810e+004,-2.13825315691230e+001,-1.83964287881121e+000

4.78991481847569e+004,-2.13825901245540e+001,-1.86530736777422e+000

4.85677953758016e+004,-2.13826503156557e+001,-1.89132944775792e+000

4.92457765337964e+004,-2.13827121878193e+001,-1.91771408245654e+000

4.99332219560642e+004,-2.13827757876787e+001,-1.94446630369356e+000

5.06302637588109e+004,-2.13828411631437e+001,-1.97159121232542e+000

5.13370359025159e+004,-2.13829083634343e+001,-1.99909397915583e+000

5.20536742176771e+004,-2.13829774391150e+001,-2.02697984586218e+000

5.27803164309155e+004,-2.13830484421307e+001,-2.05525412593050e+000

5.35171021914442e+004,-2.13831214258431e+001,-2.08392220560519e+000

5.42641730979066e+004,-2.13831964450685e+001,-2.11298954484558e+000

5.50216727255895e+004,-2.13832735561155e+001,-2.14246167829632e+000

5.57897466540159e+004,-2.13833528168249e+001,-2.17234421626911e+000

5.65685424949235e+004,-2.13834342866097e+001,-2.20264284573384e+000

5.73582099206328e+004,-2.13835180264964e+001,-2.23336333132317e+000

5.81589006928121e+004,-2.13836040991673e+001,-2.26451151634733e+000

5.89707686916437e+004,-2.13836925690034e+001,-2.29609332382070e+000

5.97939699453972e+004,-2.13837835021293e+001,-2.32811475750126e+000

6.06286626604156e+004,-2.13838769664581e+001,-2.36058190293860e+000

6.14750072515201e+004,-2.13839730317381e+001,-2.39350092853766e+000

6.23331663728396e+004,-2.13840717696000e+001,-2.42687808663141e+000

6.32033049490698e+004,-2.13841732536062e+001,-2.46071971456582e+000

6.40855902071694e+004,-2.13842775592997e+001,-2.49503223579837e+000

6.49801917084985e+004,-2.13843847642561e+001,-2.52982216100617e+000

6.58872813814055e+004,-2.13844949481348e+001,-2.56509608920906e+000

6.68070335542691e+004,-2.13846081927332e+001,-2.60086070890108e+000

6.77396249890018e+004,-2.13847245820404e+001,-2.63712279919784e+000

6.86852349150199e+004,-2.13848442022939e+001,-2.67388923099345e+000

6.96440450636895e+004,-2.13849671420361e+001,-2.71116696813105e+000

7.06162397032520e+004,-2.13850934921728e+001,-2.74896306858556e+000

7.16020056742374e+004,-2.13852233460331e+001,-2.78728468565757e+000

7.26015324253724e+004,-2.13853567994301e+001,-2.82613906918144e+000

7.36150120499896e+004,-2.13854939507236e+001,-2.86553356674505e+000

7.46426393229441e+004,-2.13856349008833e+001,-2.90547562492108e+000

7.56846117380472e+004,-2.13857797535545e+001,-2.94597279051240e+000

7.67411295460207e+004,-2.13859286151243e+001,-2.98703271180943e+000

7.78123957929823e+004,-2.13860815947895e+001,-3.02866313985915e+000

7.88986163594682e+004,-2.13862388046261e+001,-3.07087192974816e+000

7.99999999999995e+004,-2.13864003596599e+001,-3.11366704189841e+000

8.11167583832018e+004,-2.13865663779393e+001,-3.15705654337373e+000

8.22491061324848e+004,-2.13867369806087e+001,-3.20104860920144e+000

8.33972608672892e+004,-2.13869122919838e+001,-3.24565152370532e+000

8.45614432449099e+004,-2.13870924396289e+001,-3.29087368185156e+000

8.57418770029029e+004,-2.13872775544345e+001,-3.33672359060864e+000

8.69387890020841e+004,-2.13874677706984e+001,-3.38320987031776e+000

8.81524092701283e+004,-2.13876632262061e+001,-3.43034125607891e+000

8.93829710457770e+004,-2.13878640623146e+001,-3.47812659914771e+000

9.06307108236633e+004,-2.13880704240369e+001,-3.52657486834627e+000

9.18958683997622e+004,-2.13882824601285e+001,-3.57569515148688e+000

9.31786869174758e+004,-2.13885003231751e+001,-3.62549665680865e+000

9.44794129143618e+004,-2.13887241696826e+001,-3.67598871442678e+000

9.57982963695136e+004,-2.13889541601680e+001,-3.72718077779611e+000

9.71355907516031e+004,-2.13891904592524e+001,-3.77908242518686e+000

9.84915530675926e+004,-2.13894332357556e+001,-3.83170336117320e+000

9.98664439121282e+004,-2.13896826627925e+001,-3.88505341813646e+000

1.01260527517622e+005,-2.13899389178707e+001,-3.93914255778043e+000

1.02674071805032e+005,-2.13902021829906e+001,-3.99398087266103e+000

1.04107348435354e+005,-2.13904726447461e+001,-4.04957858772815e+000

1.05560632861831e+005,-2.13907504944279e+001,-4.10594606188259e+000

1.07034204382888e+005,-2.13910359281284e+001,-4.16309378954464e+000

1.08528346195813e+005,-2.13913291468475e+001,-4.22103240223964e+000

1.10043345451179e+005,-2.13916303566012e+001,-4.27977267019284e+000

1.11579493308032e+005,-2.13919397685310e+001,-4.33932550394254e+000

1.13137084989847e+005,-2.13922575990156e+001,-4.39970195596467e+000

1.14716419841265e+005,-2.13925840697837e+001,-4.46091322231224e+000

1.16317801385624e+005,-2.13929194080293e+001,-4.52297064426983e+000

1.17941537383287e+005,-2.13932638465275e+001,-4.58588571002182e+000

1.19587939890794e+005,-2.13936176237534e+001,-4.64967005633570e+000

1.21257325320831e+005,-2.13939809840011e+001,-4.71433547026059e+000

1.22950014503040e+005,-2.13943541775061e+001,-4.77989389084014e+000

1.24666332745679e+005,-2.13947374605674e+001,-4.84635741084274e+000

1.26406609898139e+005,-2.13951310956733e+001,-4.91373827850445e+000

1.28171180414339e+005,-2.13955353516267e+001,-4.98204889929149e+000

1.29960383416997e+005,-2.13959505036740e+001,-5.05130183767608e+000

1.31774562762811e+005,-2.13963768336343e+001,-5.12150981893101e+000

1.33614067108538e+005,-2.13968146300304e+001,-5.19268573094012e+000

1.35479249978003e+005,-2.13972641882220e+001,-5.26484262602725e+000

1.37370469830040e+005,-2.13977258105400e+001,-5.33799372280230e+000

1.39288090127379e+005,-2.13981998064222e+001,-5.41215240802641e+000

1.41232479406504e+005,-2.13986864925510e+001,-5.48733223849567e+000

1.43204011348474e+005,-2.13991861929927e+001,-5.56354694294451e+000

1.45203064850745e+005,-2.13996992393375e+001,-5.64081042396958e+000

1.47230024099979e+005,-2.14002259708426e+001,-5.71913675997387e+000

1.49285278645888e+005,-2.14007667345753e+001,-5.79854020713233e+000

1.51369223476094e+005,-2.14013218855584e+001,-5.87903520138006e+000

1.53482259092041e+005,-2.14018917869176e+001,-5.96063636042309e+000

1.55624791585964e+005,-2.14024768100295e+001,-6.04335848577288e+000

1.57797232718936e+005,-2.14030773346720e+001,-6.12721656480567e+000

1.59999999999999e+005,-2.14036937491759e+001,-6.21222577284779e+000

1.62233516766403e+005,-2.14043264505784e+001,-6.29840147528556e+000

1.64498212264969e+005,-2.14049758447783e+001,-6.38575922970525e+000

1.66794521734578e+005,-2.14056423466927e+001,-6.47431478806013e+000

1.69122886489819e+005,-2.14063263804157e+001,-6.56408409886662e+000

1.71483754005805e+005,-2.14070283793790e+001,-6.65508330943331e+000

1.73877578004168e+005,-2.14077487865141e+001,-6.74732876811972e+000

1.76304818540256e+005,-2.14084880544168e+001,-6.84083702662973e+000

1.78765942091554e+005,-2.14092466455139e+001,-6.93562484233935e+000

1.81261421647326e+005,-2.14100250322317e+001,-7.03170918066070e+000

1.83791736799524e+005,-2.14108236971671e+001,-7.12910721744224e+000

1.86357373834951e+005,-2.14116431332610e+001,-7.22783634140927e+000

1.88958825828723e+005,-2.14124838439745e+001,-7.32791415664378e+000

1.91596592739027e+005,-2.14133463434676e+001,-7.42935848510675e+000

1.94271181503206e+005,-2.14142311567810e+001,-7.53218736920270e+000

1.96983106135185e+005,-2.14151388200210e+001,-7.63641907439084e+000

1.99732887824256e+005,-2.14160698805480e+001,-7.74207209184177e+000

2.02521055035243e+005,-2.14170248971677e+001,-7.84916514114172e+000

2.05348143610063e+005,-2.14180044403278e+001,-7.95771717304854e+000

2.08214696870707e+005,-2.14190090923169e+001,-8.06774737229748e+000

2.11121265723661e+005,-2.14200394474695e+001,-8.17927516046056e+000

2.14068408765776e+005,-2.14210961123750e+001,-8.29232019886102e+000

2.17056692391625e+005,-2.14221797060918e+001,-8.40690239154381e+000

2.20086690902357e+005,-2.14232908603673e+001,-8.52304188830365e+000

2.23158986616063e+005,-2.14244302198636e+001,-8.64075908777368e+000

2.26274169979693e+005,-2.14255984423897e+001,-8.76007464057338e+000

2.29432839682530e+005,-2.14267961991408e+001,-8.88100945251981e+000

2.32635602771247e+005,-2.14280241749444e+001,-9.00358468790284e+000

2.35883074766574e+005,-2.14292830685149e+001,-9.12782177282402e+000

2.39175879781588e+005,-2.14305735927166e+001,-9.25374239860255e+000

2.42514650641661e+005,-2.14318964748354e+001,-9.38136852524695e+000

2.45900029006080e+005,-2.14332524568606e+001,-9.51072238499644e+000

2.49332665491357e+005,-2.14346422957770e+001,-9.64182648592841e+000

2.52813219796278e+005,-2.14360667638678e+001,-9.77470361563694e+000

2.56342360828676e+005,-2.14375266490300e+001,-9.90937684497903e+000

2.59920766833993e+005,-2.14390227551014e+001,-1.00458695318911e+001

2.63549125525621e+005,-2.14405559022016e+001,-1.01842053252742e+001

2.67228134217075e+005,-2.14421269270872e+001,-1.03244081689482e+001

2.70958499956006e+005,-2.14437366835212e+001,-1.04665023056741e+001

2.74740939660078e+005,-2.14453860426596e+001,-1.06105122812426e+001

2.78576180254757e+005,-2.14470758934532e+001,-1.07564629486298e+001

2.82464958813007e+005,-2.14488071430684e+001,-1.09043794722157e+001

2.86408022696948e+005,-2.14505807173257e+001,-1.10542873320655e+001

2.90406129701488e+005,-2.14523975611584e+001,-1.12062123282703e+001

2.94460048199957e+005,-2.14542586390912e+001,-1.13601805853446e+001

2.98570557291775e+005,-2.14561649357410e+001,-1.15162185566778e+001

3.02738446952187e+005,-2.14581174563392e+001,-1.16743530290352e+001

3.06964518184081e+005,-2.14601172272787e+001,-1.18346111271055e+001

3.11249583171928e+005,-2.14621652966843e+001,-1.19970203180889e+001

3.15594465437872e+005,-2.14642627350091e+001,-1.21616084163229e+001

3.19999999999997e+005,-2.14664106356571e+001,-1.23284035879369e+001

3.24467033532806e+005,-2.14686101156334e+001,-1.24974343555333e+001

3.28996424529938e+005,-2.14708623162224e+001,-1.26687296028859e+001

3.33589043469155e+005,-2.14731684036956e+001,-1.28423185796500e+001

3.38245772979638e+005,-2.14755295700494e+001,-1.30182309060752e+001

3.42967508011610e+005,-2.14779470337736e+001,-1.31964965777152e+001

3.47755156008335e+005,-2.14804220406525e+001,-1.33771459701228e+001

3.52609637080511e+005,-2.14829558645974e+001,-1.35602098435241e+001

3.57531884183106e+005,-2.14855498085139e+001,-1.37457193474599e+001

3.62522843294651e+005,-2.14882052052020e+001,-1.39337060253855e+001

3.67583473599047e+005,-2.14909234182911e+001,-1.41242018192184e+001

3.72714747669902e+005,-2.14937058432102e+001,-1.43172390738215e+001

3.77917651657445e+005,-2.14965539081941e+001,-1.45128505414115e+001

3.83193185478053e+005,-2.14994690753249e+001,-1.47110693858806e+001

3.88542363006410e+005,-2.15024528416096e+001,-1.49119291870184e+001

3.93966212270369e+005,-2.15055067400952e+001,-1.51154639446219e+001

3.99465775648511e+005,-2.15086323410196e+001,-1.53217080824794e+001

4.05042110070485e+005,-2.15118312529991e+001,-1.55306964522175e+001

4.10696287220124e+005,-2.15151051242524e+001,-1.57424643369943e+001

4.16429393741414e+005,-2.15184556438615e+001,-1.59570474550277e+001

4.22242531447321e+005,-2.15218845430680e+001,-1.61744819629421e+001

4.28136817531551e+005,-2.15253935966048e+001,-1.63948044589226e+001

4.34113384783250e+005,-2.15289846240638e+001,-1.66180519856585e+001

4.40173381804713e+005,-2.15326594912971e+001,-1.68442620330652e+001

4.46317973232124e+005,-2.15364201118522e+001,-1.70734725407668e+001

4.52548339959385e+005,-2.15402684484400e+001,-1.73057219003285e+001

4.58865679365059e+005,-2.15442065144342e+001,-1.75410489572202e+001

4.65271205542494e+005,-2.15482363754022e+001,-1.77794930125019e+001

4.71766149533147e+005,-2.15523601506642e+001,-1.80210938242117e+001

4.78351759563174e+005,-2.15565800148812e+001,-1.82658916084467e+001

4.85029301283321e+005,-2.15608981996691e+001,-1.85139270401202e+001

4.91800058012158e+005,-2.15653169952381e+001,-1.87652412533842e+001

4.98665330982714e+005,-2.15698387520551e+001,-1.90198758417006e+001

5.05626439592555e+005,-2.15744658825275e+001,-1.92778728575529e+001

5.12684721657352e+005,-2.15792008627066e+001,-1.95392748117818e+001

5.19841533667984e+005,-2.15840462340089e+001,-1.98041246725352e+001

5.27098251051240e+005,-2.15890046049519e+001,-2.00724658638201e+001

5.34456268434150e+005,-2.15940786529041e+001,-2.03443422636460e+001

5.41916999912011e+005,-2.15992711258448e+001,-2.06197982017478e+001

