Freq.,VOut,OutRef

1.00000000000000e+004,-1.36930134769139e+001,-9.33126500291680e-002

1.01395947979003e+004,-1.36930138013037e+001,-9.46152066458527e-002

1.02811382665607e+004,-1.36930141348068e+001,-9.59359446017393e-002

1.04246576084112e+004,-1.36930144776793e+001,-9.72751176260916e-002

1.05701804056138e+004,-1.36930148301837e+001,-9.86329829915677e-002

1.07177346253629e+004,-1.36930151925909e+001,-1.00009801553905e-001

1.08673486252606e+004,-1.36930155651785e+001,-1.01405837811628e-001

1.10190511587661e+004,-1.36930159482325e+001,-1.02821359947535e-001

1.11728713807222e+004,-1.36930163420464e+001,-1.04256639889586e-001

1.13288388529580e+004,-1.36930167469223e+001,-1.05711953353865e-001

1.14869835499703e+004,-1.36930171631708e+001,-1.07187579902269e-001

1.16473358646846e+004,-1.36930175911108e+001,-1.08683802997910e-001

1.18099266142953e+004,-1.36930180310704e+001,-1.10200910053408e-001

1.19747870461893e+004,-1.36930184833871e+001,-1.11739192490038e-001

1.21419488439505e+004,-1.36930189484073e+001,-1.13298945794085e-001

1.23114441334492e+004,-1.36930194264878e+001,-1.14880469569108e-001

1.24833054890161e+004,-1.36930199179949e+001,-1.16484067598839e-001

1.26575659397028e+004,-1.36930204233048e+001,-1.18110047902974e-001

1.28342589756290e+004,-1.36930209428054e+001,-1.19758722790227e-001

1.30134185544193e+004,-1.36930214768943e+001,-1.21430408930531e-001

1.31950791077289e+004,-1.36930220259810e+001,-1.23125427403284e-001

1.33792755478611e+004,-1.36930225904858e+001,-1.24844103766614e-001

1.35660432744767e+004,-1.36930231708411e+001,-1.26586768116643e-001

1.37554181813974e+004,-1.36930237674917e+001,-1.28353755149198e-001

1.39474366635040e+004,-1.36930243808943e+001,-1.30145404226808e-001

1.41421356237309e+004,-1.36930250115188e+001,-1.31962059441225e-001

1.43395524801583e+004,-1.36930256598479e+001,-1.33804069681505e-001

1.45397251732031e+004,-1.36930263263779e+001,-1.35671788697857e-001

1.47426921729110e+004,-1.36930270116192e+001,-1.37565575170817e-001

1.49484924863494e+004,-1.36930277160961e+001,-1.39485792779872e-001

1.51571656651040e+004,-1.36930284403478e+001,-1.41432810271611e-001

1.53687518128801e+004,-1.36930291849286e+001,-1.43407001531695e-001

1.55832915932100e+004,-1.36930299504078e+001,-1.45408745656574e-001

1.58008262372675e+004,-1.36930307373713e+001,-1.47438427021745e-001

1.60213975517924e+004,-1.36930315464213e+001,-1.49496435358075e-001

1.62450479271247e+004,-1.36930323781759e+001,-1.51583165831017e-001

1.64718203453514e+004,-1.36930332332715e+001,-1.53699019104373e-001

1.67017583885674e+004,-1.36930341123620e+001,-1.55844401426395e-001

1.69349062472505e+004,-1.36930350161190e+001,-1.58019724705744e-001

1.71713087287550e+004,-1.36930359452335e+001,-1.60225406584828e-001

1.74110112659224e+004,-1.36930369004156e+001,-1.62461870523889e-001

1.76540599258131e+004,-1.36930378823949e+001,-1.64729545881727e-001

1.79005014185594e+004,-1.36930388919216e+001,-1.67028867994816e-001

1.81503831063432e+004,-1.36930399297668e+001,-1.69360278263111e-001

1.84037530124975e+004,-1.36930409967229e+001,-1.71724224231248e-001

1.86606598307361e+004,-1.36930420936049e+001,-1.74121159673579e-001

1.89211529345119e+004,-1.36930432212498e+001,-1.76551544685213e-001

1.91852823865052e+004,-1.36930443805183e+001,-1.79015845763121e-001

1.94530989482457e+004,-1.36930455722951e+001,-1.81514535898321e-001

1.97246540898671e+004,-1.36930467974891e+001,-1.84048094667703e-001

1.99999999999999e+004,-1.36930480570349e+001,-1.86617008319017e-001

2.02791895958005e+004,-1.36930493518932e+001,-1.89221769867293e-001

2.05622765331213e+004,-1.36930506830509e+001,-1.91862879190985e-001

2.08493152168224e+004,-1.36930520515226e+001,-1.94540843120409e-001

2.11403608112276e+004,-1.36930534583514e+001,-1.97256175536964e-001

2.14354692507258e+004,-1.36930549046087e+001,-2.00009397473634e-001

2.17346972505211e+004,-1.36930563913961e+001,-2.02801037208965e-001

2.20381023175322e+004,-1.36930579198458e+001,-2.05631630368600e-001

2.23457427614443e+004,-1.36930594911212e+001,-2.08501720027990e-001

2.26576777059159e+004,-1.36930611064181e+001,-2.11411856813768e-001

2.29739670999406e+004,-1.36930627669655e+001,-2.14362599008893e-001

2.32946717293690e+004,-1.36930644740261e+001,-2.17354512658598e-001

2.36198532285905e+004,-1.36930662288981e+001,-2.20388171674815e-001

2.39495740923785e+004,-1.36930680329152e+001,-2.23464157948437e-001

2.42838976879009e+004,-1.36930698874483e+001,-2.26583061456406e-001

2.46228882668982e+004,-1.36930717939061e+001,-2.29745480372891e-001

2.49666109780322e+004,-1.36930737537364e+001,-2.32952021184103e-001

2.53151318794055e+004,-1.36930757684268e+001,-2.36203298803100e-001

2.56685179512580e+004,-1.36930778395059e+001,-2.39499936683278e-001

2.60268371088386e+004,-1.36930799685451e+001,-2.42842566934877e-001

2.63901582154578e+004,-1.36930821571584e+001,-2.46231830450173e-001

2.67585510957221e+004,-1.36930844070048e+001,-2.49668377017636e-001

2.71320865489533e+004,-1.36930867197890e+001,-2.53152865445517e-001

2.75108363627948e+004,-1.36930890972626e+001,-2.56685963688382e-001

2.78948733270080e+004,-1.36930915412253e+001,-2.60268348970873e-001

2.82842712474618e+004,-1.36930940535265e+001,-2.63900707914237e-001

2.86791049603164e+004,-1.36930966360665e+001,-2.67583736664995e-001

2.90794503464061e+004,-1.36930992907976e+001,-2.71318141028169e-001

2.94853843458219e+004,-1.36931020197258e+001,-2.75104636596936e-001

2.98969849726987e+004,-1.36931048249126e+001,-2.78943948885436e-001

3.03143313302078e+004,-1.36931077084753e+001,-2.82836813469195e-001

3.07375036257601e+004,-1.36931106725900e+001,-2.86783976116819e-001

3.11665831864199e+004,-1.36931137194916e+001,-2.90786192935899e-001

3.16016524745350e+004,-1.36931168514771e+001,-2.94844230506906e-001

3.20427951035848e+004,-1.36931200709055e+001,-2.98958866033207e-001

3.24900958542493e+004,-1.36931233802008e+001,-3.03130887479388e-001

3.29436406907028e+004,-1.36931267818528e+001,-3.07361093724035e-001

3.34035167771346e+004,-1.36931302784197e+001,-3.11650294703977e-001

3.38698124945009e+004,-1.36931338725291e+001,-3.15999311565761e-001

3.43426174575100e+004,-1.36931375668802e+001,-3.20408976820918e-001

3.48220225318448e+004,-1.36931413642458e+001,-3.24880134496879e-001

3.53081198516260e+004,-1.36931452674740e+001,-3.29413640294423e-001

3.58010028371187e+004,-1.36931492794902e+001,-3.34010361749089e-001

3.63007662126863e+004,-1.36931534032993e+001,-3.38671178386296e-001

3.68075060249948e+004,-1.36931576419875e+001,-3.43396981889001e-001

3.73213196614721e+004,-1.36931619987248e+001,-3.48188676258889e-001

3.78423058690237e+004,-1.36931664767667e+001,-3.53047177986013e-001

3.83705647730104e+004,-1.36931710794570e+001,-3.57973416214054e-001

3.89061978964912e+004,-1.36931758102293e+001,-3.62968332914719e-001

3.94493081797342e+004,-1.36931806726100e+001,-3.68032883058979e-001

3.99999999999998e+004,-1.36931856702205e+001,-3.73168034793936e-001

4.05583791916010e+004,-1.36931908067795e+001,-3.78374769617726e-001

4.11245530662425e+004,-1.36931960861055e+001,-3.83654082562050e-001

4.16986304336447e+004,-1.36932015121197e+001,-3.89006982371873e-001

4.22807216224550e+004,-1.36932070888480e+001,-3.94434491692010e-001

4.28709385014515e+004,-1.36932128204240e+001,-3.99937647252686e-001

4.34693945010421e+004,-1.36932187110920e+001,-4.05517500056676e-001

4.40762046350642e+004,-1.36932247652092e+001,-4.11175115573339e-001

4.46914855228886e+004,-1.36932309872488e+001,-4.16911573930164e-001

4.53153554118317e+004,-1.36932373818031e+001,-4.22727970110441e-001

4.59479341998812e+004,-1.36932439535864e+001,-4.28625414147853e-001

4.65893434587380e+004,-1.36932507074375e+001,-4.34605031333492e-001

4.72397064571810e+004,-1.36932576483235e+001,-4.40667962412604e-001

4.78991481847569e+004,-1.36932647813426e+001,-4.46815363793622e-001

4.85677953758016e+004,-1.36932721117272e+001,-4.53048407756597e-001

4.92457765337964e+004,-1.36932796448479e+001,-4.59368282660265e-001

4.99332219560642e+004,-1.36932873862154e+001,-4.65776193160789e-001

5.06302637588109e+004,-1.36932953414856e+001,-4.72273360421733e-001

5.13370359025159e+004,-1.36933035164618e+001,-4.78861022335467e-001

5.20536742176771e+004,-1.36933119170992e+001,-4.85540433743199e-001

5.27803164309155e+004,-1.36933205495075e+001,-4.92312866658303e-001

5.35171021914442e+004,-1.36933294199554e+001,-4.99179610492651e-001

5.42641730979066e+004,-1.36933385348741e+001,-5.06141972283445e-001

5.50216727255895e+004,-1.36933479008608e+001,-5.13201276927901e-001

5.57897466540159e+004,-1.36933575246833e+001,-5.20358867412245e-001

5.65685424949235e+004,-1.36933674132830e+001,-5.27616105054175e-001

5.73582099206328e+004,-1.36933775737796e+001,-5.34974369736837e-001

5.81589006928121e+004,-1.36933880134750e+001,-5.42435060154063e-001

5.89707686916437e+004,-1.36933987398573e+001,-5.49999594054225e-001

5.97939699453972e+004,-1.36934097606052e+001,-5.57669408487599e-001

6.06286626604156e+004,-1.36934210835920e+001,-5.65445960056366e-001

6.14750072515201e+004,-1.36934327168903e+001,-5.73330725168258e-001

6.23331663728396e+004,-1.36934446687758e+001,-5.81325200293428e-001

6.32033049490698e+004,-1.36934569477324e+001,-5.89430902221140e-001

6.40855902071694e+004,-1.36934695624566e+001,-5.97649368321272e-001

6.49801917084985e+004,-1.36934825218612e+001,-6.05982156811917e-001

6.58872813814055e+004,-1.36934958350812e+001,-6.14430847022504e-001

6.68070335542691e+004,-1.36935095114776e+001,-6.22997039667342e-001

6.77396249890018e+004,-1.36935235606420e+001,-6.31682357116635e-001

6.86852349150199e+004,-1.36935379924023e+001,-6.40488443673545e-001

6.96440450636895e+004,-1.36935528168265e+001,-6.49416965852416e-001

7.06162397032520e+004,-1.36935680442280e+001,-6.58469612660842e-001

7.16020056742374e+004,-1.36935836851703e+001,-6.67648095885508e-001

7.26015324253724e+004,-1.36935997504721e+001,-6.76954150378813e-001

7.36150120499896e+004,-1.36936162512122e+001,-6.86389534349804e-001

7.46426393229441e+004,-1.36936331987340e+001,-6.95956029659233e-001

7.56846117380472e+004,-1.36936506046515e+001,-7.05655442114414e-001

7.67411295460207e+004,-1.36936684808529e+001,-7.15489601771238e-001

7.78123957929823e+004,-1.36936868395069e+001,-7.25460363235549e-001

7.88986163594682e+004,-1.36937056930668e+001,-7.35569605970344e-001

7.99999999999995e+004,-1.36937250542760e+001,-7.45819234603390e-001

8.11167583832018e+004,-1.36937449361727e+001,-7.56211179241649e-001

8.22491061324848e+004,-1.36937653520948e+001,-7.66747395784907e-001

8.33972608672892e+004,-1.36937863156851e+001,-7.77429866245093e-001

8.45614432449099e+004,-1.36938078408963e+001,-7.88260599066610e-001

8.57418770029029e+004,-1.36938299419952e+001,-7.99241629454194e-001

8.69387890020841e+004,-1.36938526335680e+001,-8.10375019697572e-001

8.81524092701283e+004,-1.36938759305251e+001,-8.21662859504807e-001

8.93829710457770e+004,-1.36938998481055e+001,-8.33107266335735e-001

9.06307108236633e+004,-1.36939244018814e+001,-8.44710385741009e-001

9.18958683997622e+004,-1.36939496077625e+001,-8.56474391702707e-001

9.31786869174758e+004,-1.36939754820010e+001,-8.68401486977944e-001

9.44794129143618e+004,-1.36940020411950e+001,-8.80493903447356e-001

9.57982963695136e+004,-1.36940293022931e+001,-8.92753902466667e-001

9.71355907516031e+004,-1.36940572825981e+001,-9.05183775221786e-001

9.84915530675926e+004,-1.36940859997711e+001,-9.17785843084959e-001

9.98664439121282e+004,-1.36941154718346e+001,-9.30562457977451e-001

1.01260527517622e+005,-1.36941457171760e+001,-9.43516002736133e-001

1.02674071805032e+005,-1.36941767545512e+001,-9.56648891480651e-001

1.04107348435354e+005,-1.36942086030870e+001,-9.69963569985875e-001

1.05560632861831e+005,-1.36942412822838e+001,-9.83462516058729e-001

1.07034204382888e+005,-1.36942748120182e+001,-9.97148239918889e-001

1.08528346195813e+005,-1.36943092125450e+001,-1.01102328458001e+000

1.10043345451179e+005,-1.36943445044989e+001,-1.02509022624136e+000

1.11579493308032e+005,-1.36943807088957e+001,-1.03935167467603e+000

1.13137084989847e+005,-1.36944178471338e+001,-1.05381027362912e+000

1.14716419841265e+005,-1.36944559409944e+001,-1.06846870121628e+000

1.16317801385624e+005,-1.36944950126420e+001,-1.08332967032925e+000

1.17941537383287e+005,-1.36945350846240e+001,-1.09839592904400e+000

1.19587939890794e+005,-1.36945761798698e+001,-1.11367026103383e+000

1.21257325320831e+005,-1.36946183216901e+001,-1.12915548598822e+000

1.22950014503040e+005,-1.36946615337749e+001,-1.14485446003377e+000

1.24666332745679e+005,-1.36947058401908e+001,-1.16077007616326e+000

1.26406609898139e+005,-1.36947512653787e+001,-1.17690526466852e+000

1.28171180414339e+005,-1.36947978341499e+001,-1.19326299357650e+000

1.29960383416997e+005,-1.36948455716820e+001,-1.20984626909433e+000

1.31774562762811e+005,-1.36948945035141e+001,-1.22665813605740e+000

1.33614067108538e+005,-1.36949446555409e+001,-1.24370167838505e+000

1.35479249978003e+005,-1.36949960540068e+001,-1.26098001953883e+000

1.37370469830040e+005,-1.36950487254981e+001,-1.27849632299348e+000

1.39288090127379e+005,-1.36951026969356e+001,-1.29625379270715e+000

1.41232479406504e+005,-1.36951579955653e+001,-1.31425567360317e+000

1.43204011348474e+005,-1.36952146489490e+001,-1.33250525205713e+000

1.45203064850745e+005,-1.36952726849528e+001,-1.35100585639286e+000

1.47230024099979e+005,-1.36953321317366e+001,-1.36976085738230e+000

1.49285278645888e+005,-1.36953930177403e+001,-1.38877366875912e+000

1.51369223476094e+005,-1.36954553716708e+001,-1.40804774773496e+000

1.53482259092041e+005,-1.36955192224864e+001,-1.42758659552989e+000

1.55624791585964e+005,-1.36955845993815e+001,-1.44739375790591e+000

1.57797232718936e+005,-1.36956515317690e+001,-1.46747282571667e+000

1.59999999999999e+005,-1.36957200492623e+001,-1.48782743546206e+000

1.62233516766403e+005,-1.36957901816554e+001,-1.50846126985534e+000

1.64498212264969e+005,-1.36958619589023e+001,-1.52937805840188e+000

1.66794521734578e+005,-1.36959354110949e+001,-1.55058157798842e+000

1.69122886489819e+005,-1.36960105684393e+001,-1.57207565348395e+000

1.71483754005805e+005,-1.36960874612312e+001,-1.59386415835507e+000

1.73877578004168e+005,-1.36961661198300e+001,-1.61595101529183e+000

1.76304818540256e+005,-1.36962465746303e+001,-1.63834019685152e+000

1.78765942091554e+005,-1.36963288560341e+001,-1.66103572611115e+000

1.81261421647326e+005,-1.36964129944196e+001,-1.68404167734061e+000

1.83791736799524e+005,-1.36964990201094e+001,-1.70736217668826e+000

1.86357373834951e+005,-1.36965869633375e+001,-1.73100140288513e+000

1.88958825828723e+005,-1.36966768542141e+001,-1.75496358796357e+000

1.91596592739027e+005,-1.36967687226894e+001,-1.77925301799819e+000

1.94271181503206e+005,-1.36968625985159e+001,-1.80387403386122e+000

1.96983106135185e+005,-1.36969585112091e+001,-1.82883103200018e+000

1.99732887824256e+005,-1.36970564900071e+001,-1.85412846523568e+000

2.02521055035243e+005,-1.36971565638276e+001,-1.87977084358033e+000

2.05348143610063e+005,-1.36972587612254e+001,-1.90576273507911e+000

2.08214696870707e+005,-1.36973631103469e+001,-1.93210876667371e+000

2.11121265723661e+005,-1.36974696388835e+001,-1.95881362509159e+000

2.14068408765776e+005,-1.36975783740245e+001,-1.98588205775793e+000

2.17056692391625e+005,-1.36976893424084e+001,-2.01331887373435e+000

2.20086690902357e+005,-1.36978025700719e+001,-2.04112894468603e+000

2.23158986616063e+005,-1.36979180823995e+001,-2.06931720587330e+000

2.26274169979693e+005,-1.36980359040707e+001,-2.09788865717564e+000

2.29432839682530e+005,-1.36981560590071e+001,-2.12684836414144e+000

2.32635602771247e+005,-1.36982785703180e+001,-2.15620145907157e+000

2.35883074766574e+005,-1.36984034602453e+001,-2.18595314213250e+000

2.39175879781588e+005,-1.36985307501079e+001,-2.21610868250295e+000

2.42514650641661e+005,-1.36986604602455e+001,-2.24667341955222e+000

2.45900029006080e+005,-1.36987926099621e+001,-2.27765276405472e+000

2.49332665491357e+005,-1.36989272174685e+001,-2.30905219943879e+000

2.52813219796278e+005,-1.36990642998255e+001,-2.34087728307004e+000

2.56342360828676e+005,-1.36992038728864e+001,-2.37313364757387e+000

2.59920766833993e+005,-1.36993459512404e+001,-2.40582700219268e+000

2.63549125525621e+005,-1.36994905481555e+001,-2.43896313418408e+000

2.67228134217075e+005,-1.36996376755222e+001,-2.47254791025509e+000

2.70958499956006e+005,-1.36997873437987e+001,-2.50658727803730e+000

2.74740939660078e+005,-1.36999395619552e+001,-2.54108726760199e+000

2.78576180254757e+005,-1.37000943374212e+001,-2.57605399301504e+000

2.82464958813007e+005,-1.37002516760332e+001,-2.61149365393267e+000

2.86408022696948e+005,-1.37004115819837e+001,-2.64741253723849e+000

2.90406129701488e+005,-1.37005740577725e+001,-2.68381701872218e+000

2.94460048199957e+005,-1.37007391041596e+001,-2.72071356479915e+000

2.98570557291775e+005,-1.37009067201210e+001,-2.75810873427131e+000

3.02738446952187e+005,-1.37010769028057e+001,-2.79600918013106e+000

3.06964518184081e+005,-1.37012496474971e+001,-2.83442165140500e+000

3.11249583171928e+005,-1.37014249475757e+001,-2.87335299503909e+000

3.15594465437872e+005,-1.37016027944858e+001,-2.91281015782583e+000

3.19999999999997e+005,-1.37017831777062e+001,-2.95280018836926e+000

3.24467033532806e+005,-1.37019660847231e+001,-2.99333023909281e+000

3.28996424529938e+005,-1.37021515010085e+001,-3.03440756828413e+000

3.33589043469155e+005,-1.37023394100012e+001,-3.07603954217826e+000

3.38245772979638e+005,-1.37025297930942e+001,-3.11823363707882e+000

3.42967508011610e+005,-1.37027226296239e+001,-3.16099744151671e+000

3.47755156008335e+005,-1.37029178968671e+001,-3.20433865844060e+000

3.52609637080511e+005,-1.37031155700407e+001,-3.24826510744545e+000

3.57531884183106e+005,-1.37033156223077e+001,-3.29278472703040e+000

3.62522843294651e+005,-1.37035180247883e+001,-3.33790557688987e+000

3.67583473599047e+005,-1.37037227465767e+001,-3.38363584023303e+000

3.72714747669902e+005,-1.37039297547631e+001,-3.42998382613272e+000

3.77917651657445e+005,-1.37041390144618e+001,-3.47695797189842e+000

3.83193185478053e+005,-1.37043504888455e+001,-3.52456684547610e+000

3.88542363006410e+005,-1.37045641391844e+001,-3.57281914786927e+000

3.93966212270369e+005,-1.37047799248932e+001,-3.62172371558095e+000

3.99465775648511e+005,-1.37049978035822e+001,-3.67128952307379e+000

4.05042110070485e+005,-1.37052177311158e+001,-3.72152568524880e+000

4.10696287220124e+005,-1.37054396616768e+001,-3.77244145993631e+000

4.16429393741414e+005,-1.37056635478362e+001,-3.82404625040164e+000

4.22242531447321e+005,-1.37058893406297e+001,-3.87634960785929e+000

4.28136817531551e+005,-1.37061169896399e+001,-3.92936123399774e+000

4.34113384783250e+005,-1.37063464430839e+001,-3.98309098350934e+000

4.40173381804713e+005,-1.37065776479071e+001,-4.03754886662565e+000

4.46317973232124e+005,-1.37068105498821e+001,-4.09274505165438e+000

4.52548339959385e+005,-1.37070450937135e+001,-4.14868986751819e+000

4.58865679365059e+005,-1.37072812231469e+001,-4.20539380629195e+000

4.65271205542494e+005,-1.37075188810836e+001,-4.26286752573765e+000

4.71766149533147e+005,-1.37077580096995e+001,-4.32112185183447e+000

4.78351759563174e+005,-1.37079985505684e+001,-4.38016778130390e+000

4.85029301283321e+005,-1.37082404447896e+001,-4.44001648412790e+000

4.91800058012158e+005,-1.37084836331188e+001,-4.50067930605796e+000

4.98665330982714e+005,-1.37087280561025e+001,-4.56216777111637e+000

5.05626439592555e+005,-1.37089736542161e+001,-4.62449358408628e+000

5.12684721657352e+005,-1.37092203680034e+001,-4.68766863299156e+000

5.19841533667984e+005,-1.37094681382195e+001,-4.75170499156632e+000

5.27098251051240e+005,-1.37097169059755e+001,-4.81661492171077e+000

5.34456268434150e+005,-1.37099666128836e+001,-4.88241087593827e+000

5.41916999912011e+005,-1.37102172012052e+001,-4.94910549980838e+000

