Freq.,VOut,OutRef

1.00000000000000e+004,-1.92014627613546e+001,-1.42598427427446e-001

1.01395947979003e+004,-1.92014633574980e+001,-1.44588974209126e-001

1.02811382665607e+004,-1.92014639703926e+001,-1.46607305735312e-001

1.04246576084112e+004,-1.92014646005091e+001,-1.48653809769990e-001

1.05701804056138e+004,-1.92014652483307e+001,-1.50728879489465e-001

1.07177346253629e+004,-1.92014659143550e+001,-1.52832913549750e-001

1.08673486252606e+004,-1.92014665990931e+001,-1.54966316169995e-001

1.10190511587661e+004,-1.92014673030704e+001,-1.57129497207301e-001

1.11728713807222e+004,-1.92014680268272e+001,-1.59322872236167e-001

1.13288388529580e+004,-1.92014687709190e+001,-1.61546862624793e-001

1.14869835499703e+004,-1.92014695359164e+001,-1.63801895621588e-001

1.16473358646846e+004,-1.92014703224068e+001,-1.66088404430386e-001

1.18099266142953e+004,-1.92014711309934e+001,-1.68406828299118e-001

1.19747870461893e+004,-1.92014719622967e+001,-1.70757612600270e-001

1.21419488439505e+004,-1.92014728169542e+001,-1.73141208918368e-001

1.23114441334492e+004,-1.92014736956219e+001,-1.75558075133090e-001

1.24833054890161e+004,-1.92014745989736e+001,-1.78008675511978e-001

1.26575659397028e+004,-1.92014755277021e+001,-1.80493480796353e-001

1.28342589756290e+004,-1.92014764825199e+001,-1.83012968288572e-001

1.30134185544193e+004,-1.92014774641591e+001,-1.85567621950041e-001

1.31950791077289e+004,-1.92014784733727e+001,-1.88157932488346e-001

1.33792755478611e+004,-1.92014795109343e+001,-1.90784397453128e-001

1.35660432744767e+004,-1.92014805776398e+001,-1.93447521329853e-001

1.37554181813974e+004,-1.92014816743069e+001,-1.96147815639434e-001

1.39474366635040e+004,-1.92014828017763e+001,-1.98885799034141e-001

1.41421356237309e+004,-1.92014839609125e+001,-2.01661997393354e-001

1.43395524801583e+004,-1.92014851526038e+001,-2.04476943931885e-001

1.45397251732031e+004,-1.92014863777637e+001,-2.07331179294512e-001

1.47426921729110e+004,-1.92014876373312e+001,-2.10225251662294e-001

1.49484924863494e+004,-1.92014889322716e+001,-2.13159716858749e-001

1.51571656651040e+004,-1.92014902635771e+001,-2.16135138452814e-001

1.53687518128801e+004,-1.92014916322677e+001,-2.19152087869753e-001

1.55832915932100e+004,-1.92014930393921e+001,-2.22211144496696e-001

1.58008262372675e+004,-1.92014944860281e+001,-2.25312895797690e-001

1.60213975517924e+004,-1.92014959732839e+001,-2.28457937420965e-001

1.62450479271247e+004,-1.92014975022987e+001,-2.31646873315961e-001

1.64718203453514e+004,-1.92014990742431e+001,-2.34880315849545e-001

1.67017583885674e+004,-1.92015006903211e+001,-2.38158885917905e-001

1.69349062472505e+004,-1.92015023517701e+001,-2.41483213069316e-001

1.71713087287550e+004,-1.92015040598618e+001,-2.44853935623783e-001

1.74110112659224e+004,-1.92015058159039e+001,-2.48271700792690e-001

1.76540599258131e+004,-1.92015076212403e+001,-2.51737164804216e-001

1.79005014185594e+004,-1.92015094772527e+001,-2.55250993027320e-001

1.81503831063432e+004,-1.92015113853613e+001,-2.58813860098515e-001

1.84037530124975e+004,-1.92015133470259e+001,-2.62426450050983e-001

1.86606598307361e+004,-1.92015153637472e+001,-2.66089456444300e-001

1.89211529345119e+004,-1.92015174370678e+001,-2.69803582496032e-001

1.91852823865052e+004,-1.92015195685731e+001,-2.73569541218545e-001

1.94530989482457e+004,-1.92015217598933e+001,-2.77388055549370e-001

1.97246540898671e+004,-1.92015240127035e+001,-2.81259858493593e-001

1.99999999999999e+004,-1.92015263287259e+001,-2.85185693261361e-001

2.02791895958005e+004,-1.92015287097307e+001,-2.89166313409028e-001

2.05622765331213e+004,-1.92015311575373e+001,-2.93202482982528e-001

2.08493152168224e+004,-1.92015336740159e+001,-2.97294976662432e-001

2.11403608112276e+004,-1.92015362610891e+001,-3.01444579911732e-001

2.14354692507258e+004,-1.92015389207327e+001,-3.05652089124973e-001

2.17346972505211e+004,-1.92015416549778e+001,-3.09918311777991e-001

2.20381023175322e+004,-1.92015444659118e+001,-3.14244066583735e-001

2.23457427614443e+004,-1.92015473556806e+001,-3.18630183645032e-001

2.26576777059159e+004,-1.92015503264896e+001,-3.23077504612730e-001

2.29739670999406e+004,-1.92015533806057e+001,-3.27586882846780e-001

2.32946717293690e+004,-1.92015565203588e+001,-3.32159183576254e-001

2.36198532285905e+004,-1.92015597481437e+001,-3.36795284062742e-001

2.39495740923785e+004,-1.92015630664217e+001,-3.41496073769376e-001

2.42838976879009e+004,-1.92015664777224e+001,-3.46262454526334e-001

2.46228882668982e+004,-1.92015699846461e+001,-3.51095340701682e-001

2.49666109780322e+004,-1.92015735898650e+001,-3.55995659376355e-001

2.53151318794055e+004,-1.92015772961257e+001,-3.60964350516876e-001

2.56685179512580e+004,-1.92015811062510e+001,-3.66002367154647e-001

2.60268371088386e+004,-1.92015850231419e+001,-3.71110675565426e-001

2.63901582154578e+004,-1.92015890497802e+001,-3.76290255451534e-001

2.67585510957221e+004,-1.92015931892300e+001,-3.81542100127606e-001

2.71320865489533e+004,-1.92015974446407e+001,-3.86867216705997e-001

2.75108363627948e+004,-1.92016018192488e+001,-3.92266626288289e-001

2.78948733270080e+004,-1.92016063163807e+001,-3.97741364156761e-001

2.82842712474618e+004,-1.92016109394543e+001,-4.03292479971197e-001

2.86791049603164e+004,-1.92016156919828e+001,-4.08921037962526e-001

2.90794503464061e+004,-1.92016205775763e+001,-4.14628117136425e-001

2.94853843458219e+004,-1.92016255999447e+001,-4.20414811474969e-001

2.98969849726987e+004,-1.92016307629004e+001,-4.26282230142193e-001

3.03143313302078e+004,-1.92016360703612e+001,-4.32231497692141e-001

3.07375036257601e+004,-1.92016415263531e+001,-4.38263754279624e-001

3.11665831864199e+004,-1.92016471350131e+001,-4.44380155874439e-001

3.16016524745350e+004,-1.92016529005927e+001,-4.50581874476785e-001

3.20427951035848e+004,-1.92016588274601e+001,-4.56870098339015e-001

3.24900958542493e+004,-1.92016649201040e+001,-4.63246032185932e-001

3.29436406907028e+004,-1.92016711831371e+001,-4.69710897439515e-001

3.34035167771346e+004,-1.92016776212985e+001,-4.76265932449800e-001

3.38698124945009e+004,-1.92016842394581e+001,-4.82912392722639e-001

3.43426174575100e+004,-1.92016910426193e+001,-4.89651551157672e-001

3.48220225318448e+004,-1.92016980359233e+001,-4.96484698280801e-001

3.53081198516260e+004,-1.92017052246522e+001,-5.03413142489662e-001

3.58010028371187e+004,-1.92017126142332e+001,-5.10438210291728e-001

3.63007662126863e+004,-1.92017202102422e+001,-5.17561246555925e-001

3.68075060249948e+004,-1.92017280184077e+001,-5.24783614759073e-001

3.73213196614721e+004,-1.92017360446153e+001,-5.32106697240190e-001

3.78423058690237e+004,-1.92017442949117e+001,-5.39531895454831e-001

3.83705647730104e+004,-1.92017527755084e+001,-5.47060630239086e-001

3.89061978964912e+004,-1.92017614927870e+001,-5.54694342067072e-001

3.94493081797342e+004,-1.92017704533032e+001,-5.62434491320088e-001

3.99999999999998e+004,-1.92017796637912e+001,-5.70282558556148e-001

4.05583791916010e+004,-1.92017891311690e+001,-5.78240044782169e-001

4.11245530662425e+004,-1.92017988625427e+001,-5.86308471731591e-001

4.16986304336447e+004,-1.92018088652119e+001,-5.94489382142186e-001

4.22807216224550e+004,-1.92018191466741e+001,-6.02784340043119e-001

4.28709385014515e+004,-1.92018297146307e+001,-6.11194931038277e-001

4.34693945010421e+004,-1.92018405769918e+001,-6.19722762599739e-001

4.40762046350642e+004,-1.92018517418817e+001,-6.28369464360518e-001

4.46914855228886e+004,-1.92018632176448e+001,-6.37136688413502e-001

4.53153554118317e+004,-1.92018750128508e+001,-6.46026109613753e-001

4.59479341998812e+004,-1.92018871363009e+001,-6.55039425881731e-001

4.65893434587380e+004,-1.92018995970335e+001,-6.64178358515386e-001

4.72397064571810e+004,-1.92019124043309e+001,-6.73444652501301e-001

4.78991481847569e+004,-1.92019255677247e+001,-6.82840076832491e-001

4.85677953758016e+004,-1.92019390970027e+001,-6.92366424829586e-001

4.92457765337964e+004,-1.92019530022157e+001,-7.02025514464110e-001

4.99332219560642e+004,-1.92019672936835e+001,-7.11819188689539e-001

5.06302637588109e+004,-1.92019819820023e+001,-7.21749315771733e-001

5.13370359025159e+004,-1.92019970780516e+001,-7.31817789627232e-001

5.20536742176771e+004,-1.92020125930009e+001,-7.42026530164308e-001

5.27803164309155e+004,-1.92020285383178e+001,-7.52377483625576e-001

5.35171021914442e+004,-1.92020449257747e+001,-7.62872622940048e-001

5.42641730979066e+004,-1.92020617674571e+001,-7.73513948073999e-001

5.50216727255895e+004,-1.92020790757708e+001,-7.84303486390286e-001

5.57897466540159e+004,-1.92020968634502e+001,-7.95243293008836e-001

5.65685424949235e+004,-1.92021151435661e+001,-8.06335451172694e-001

5.73582099206328e+004,-1.92021339295348e+001,-8.17582072617956e-001

5.81589006928121e+004,-1.92021532351255e+001,-8.28985297949397e-001

5.89707686916437e+004,-1.92021730744695e+001,-8.40547297018517e-001

5.97939699453972e+004,-1.92021934620689e+001,-8.52270269307599e-001

6.06286626604156e+004,-1.92022144128059e+001,-8.64156444315661e-001

6.14750072515201e+004,-1.92022359419512e+001,-8.76208081953712e-001

6.23331663728396e+004,-1.92022580651744e+001,-8.88427472937197e-001

6.32033049490698e+004,-1.92022807985522e+001,-9.00816939192532e-001

6.40855902071694e+004,-1.92023041585793e+001,-9.13378834258031e-001

6.49801917084985e+004,-1.92023281621776e+001,-9.26115543696830e-001

6.58872813814055e+004,-1.92023528267063e+001,-9.39029485511528e-001

6.68070335542691e+004,-1.92023781699724e+001,-9.52123110563460e-001

6.77396249890018e+004,-1.92024042102407e+001,-9.65398902996998e-001

6.86852349150199e+004,-1.92024309662450e+001,-9.78859380668024e-001

6.96440450636895e+004,-1.92024584571980e+001,-9.92507095579909e-001

7.06162397032520e+004,-1.92024867028029e+001,-1.00634463431952e+000

7.16020056742374e+004,-1.92025157232645e+001,-1.02037461850097e+000

7.26015324253724e+004,-1.92025455392999e+001,-1.03459970521489e+000

7.36150120499896e+004,-1.92025761721504e+001,-1.04902258748154e+000

7.46426393229441e+004,-1.92026076435933e+001,-1.06364599470665e+000

7.56846117380472e+004,-1.92026399759534e+001,-1.07847269314641e+000

7.67411295460207e+004,-1.92026731921148e+001,-1.09350548637405e+000

7.78123957929823e+004,-1.92027073155333e+001,-1.10874721575375e+000

7.88986163594682e+004,-1.92027423702487e+001,-1.12420076091697e+000

7.99999999999995e+004,-1.92027783808970e+001,-1.13986904024641e+000

8.11167583832018e+004,-1.92028153727230e+001,-1.15575501136342e+000

8.22491061324848e+004,-1.92028533715932e+001,-1.17186167162144e+000

8.33972608672892e+004,-1.92028924040086e+001,-1.18819205860398e+000

8.45614432449099e+004,-1.92029324971174e+001,-1.20474925062744e+000

8.57418770029029e+004,-1.92029736787285e+001,-1.22153636725167e+000

8.69387890020841e+004,-1.92030159773246e+001,-1.23855656979078e+000

8.81524092701283e+004,-1.92030594220750e+001,-1.25581306183639e+000

8.93829710457770e+004,-1.92031040428501e+001,-1.27330908977793e+000

9.06307108236633e+004,-1.92031498702339e+001,-1.29104794333544e+000

9.18958683997622e+004,-1.92031969355379e+001,-1.30903295609525e+000

9.31786869174758e+004,-1.92032452708153e+001,-1.32726750604798e+000

9.44794129143618e+004,-1.92032949088737e+001,-1.34575501613880e+000

9.57982963695136e+004,-1.92033458832898e+001,-1.36449895481613e+000

9.71355907516031e+004,-1.92033982284227e+001,-1.38350283659263e+000

9.84915530675926e+004,-1.92034519794277e+001,-1.40277022260533e+000

9.98664439121282e+004,-1.92035071722705e+001,-1.42230472118765e+000

1.01260527517622e+005,-1.92035638437405e+001,-1.44210998844294e+000

1.02674071805032e+005,-1.92036220314647e+001,-1.46218972882706e+000

1.04107348435354e+005,-1.92036817739217e+001,-1.48254769573357e+000

1.05560632861831e+005,-1.92037431104552e+001,-1.50318769208872e+000

1.07034204382888e+005,-1.92038060812873e+001,-1.52411357094990e+000

1.08528346195813e+005,-1.92038707275326e+001,-1.54532923611139e+000

1.10043345451179e+005,-1.92039370912106e+001,-1.56683864271773e+000

1.11579493308032e+005,-1.92040052152599e+001,-1.58864579788120e+000

1.13137084989847e+005,-1.92040751435504e+001,-1.61075476130797e+000

1.14716419841265e+005,-1.92041469208966e+001,-1.63316964592904e+000

1.16317801385624e+005,-1.92042205930701e+001,-1.65589461854113e+000

1.17941537383287e+005,-1.92042962068120e+001,-1.67893390045165e+000

1.19587939890794e+005,-1.92043738098447e+001,-1.70229176813300e+000

1.21257325320831e+005,-1.92044534508838e+001,-1.72597255388268e+000

1.22950014503040e+005,-1.92045351796501e+001,-1.74998064649182e+000

1.24666332745679e+005,-1.92046190468799e+001,-1.77432049192212e+000

1.26406609898139e+005,-1.92047051043359e+001,-1.79899659399026e+000

1.28171180414339e+005,-1.92047934048179e+001,-1.82401351505989e+000

1.29960383416997e+005,-1.92048840021722e+001,-1.84937587674296e+000

1.31774562762811e+005,-1.92049769513014e+001,-1.87508836060962e+000

1.33614067108538e+005,-1.92050723081724e+001,-1.90115570890788e+000

1.35479249978003e+005,-1.92051701298256e+001,-1.92758272529084e+000

1.37370469830040e+005,-1.92052704743822e+001,-1.95437427555552e+000

1.39288090127379e+005,-1.92053734010512e+001,-1.98153528839011e+000

1.41232479406504e+005,-1.92054789701358e+001,-2.00907075613340e+000

1.43204011348474e+005,-1.92055872430397e+001,-2.03698573554215e+000

1.45203064850745e+005,-1.92056982822711e+001,-2.06528534857384e+000

1.47230024099979e+005,-1.92058121514479e+001,-2.09397478317554e+000

1.49285278645888e+005,-1.92059289153009e+001,-2.12305929409013e+000

1.51369223476094e+005,-1.92060486396760e+001,-2.15254420367201e+000

1.53482259092041e+005,-1.92061713915367e+001,-2.18243490271530e+000

1.55624791585964e+005,-1.92062972389646e+001,-2.21273685129820e+000

1.57797232718936e+005,-1.92064262511593e+001,-2.24345557963944e+000

1.59999999999999e+005,-1.92065584984379e+001,-2.27459668896953e+000

1.62233516766403e+005,-1.92066940522324e+001,-2.30616585241926e+000

1.64498212264969e+005,-1.92068329850878e+001,-2.33816881591988e+000

1.66794521734578e+005,-1.92069753706570e+001,-2.37061139912550e+000

1.69122886489819e+005,-1.92071212836966e+001,-2.40349949634839e+000

1.71483754005805e+005,-1.92072708000606e+001,-2.43683907751493e+000

1.73877578004168e+005,-1.92074239966932e+001,-2.47063618913819e+000

1.76304818540256e+005,-1.92075809516211e+001,-2.50489695531265e+000

1.78765942091554e+005,-1.92077417439435e+001,-2.53962757872805e+000

1.81261421647326e+005,-1.92079064538222e+001,-2.57483434170450e+000

1.83791736799524e+005,-1.92080751624702e+001,-2.61052360724990e+000

1.86357373834951e+005,-1.92082479521387e+001,-2.64670182014226e+000

1.88958825828723e+005,-1.92084249061041e+001,-2.68337550803319e+000

1.91596592739027e+005,-1.92086061086530e+001,-2.72055128257908e+000

1.94271181503206e+005,-1.92087916450665e+001,-2.75823584059761e+000

1.96983106135185e+005,-1.92089816016037e+001,-2.79643596525145e+000

1.99732887824256e+005,-1.92091760654841e+001,-2.83515852726022e+000

2.02521055035243e+005,-1.92093751248690e+001,-2.87441048614293e+000

2.05348143610063e+005,-1.92095788688422e+001,-2.91419889148897e+000

2.08214696870707e+005,-1.92097873873899e+001,-2.95453088426296e+000

2.11121265723661e+005,-1.92100007713800e+001,-2.99541369814112e+000

2.14068408765776e+005,-1.92102191125406e+001,-3.03685466088278e+000

2.17056692391625e+005,-1.92104425034379e+001,-3.07886119573555e+000

2.20086690902357e+005,-1.92106710374541e+001,-3.12144082287897e+000

2.23158986616063e+005,-1.92109048087647e+001,-3.16460116090466e+000

2.26274169979693e+005,-1.92111439123155e+001,-3.20834992833531e+000

2.29432839682530e+005,-1.92113884438002e+001,-3.25269494518435e+000

2.32635602771247e+005,-1.92116384996373e+001,-3.29764413455605e+000

2.35883074766574e+005,-1.92118941769477e+001,-3.34320552429009e+000

2.39175879781588e+005,-1.92121555735334e+001,-3.38938724864618e+000

2.42514650641661e+005,-1.92124227878555e+001,-3.43619755003764e+000

2.45900029006080e+005,-1.92126959190142e+001,-3.48364478080778e+000

2.49332665491357e+005,-1.92129750667295e+001,-3.53173740505466e+000

2.52813219796278e+005,-1.92132603313231e+001,-3.58048400050366e+000

2.56342360828676e+005,-1.92135518137025e+001,-3.62989326042837e+000

2.59920766833993e+005,-1.92138496153461e+001,-3.67997399562193e+000

2.63549125525621e+005,-1.92141538382904e+001,-3.73073513642000e+000

2.67228134217075e+005,-1.92144645851209e+001,-3.78218573477265e+000

2.70958499956006e+005,-1.92147819589639e+001,-3.83433496637171e+000

2.74740939660078e+005,-1.92151060634826e+001,-3.88719213282844e+000

2.78576180254757e+005,-1.92154370028761e+001,-3.94076666390541e+000

2.82464958813007e+005,-1.92157748818815e+001,-3.99506811980310e+000

2.86408022696948e+005,-1.92161198057812e+001,-4.05010619349903e+000

2.90406129701488e+005,-1.92164718804134e+001,-4.10589071314282e+000

2.94460048199957e+005,-1.92168312121878e+001,-4.16243164450333e+000

2.98570557291775e+005,-1.92171979081065e+001,-4.21973909347348e+000

3.02738446952187e+005,-1.92175720757899e+001,-4.27782330862636e+000

3.06964518184081e+005,-1.92179538235089e+001,-4.33669468382645e+000

3.11249583171928e+005,-1.92183432602231e+001,-4.39636376089376e+000

3.15594465437872e+005,-1.92187404956253e+001,-4.45684123232176e+000

3.19999999999997e+005,-1.92191456401931e+001,-4.51813794404634e+000

3.24467033532806e+005,-1.92195588052486e+001,-4.58026489826556e+000

3.28996424529938e+005,-1.92199801030245e+001,-4.64323325631071e+000

3.33589043469155e+005,-1.92204096467393e+001,-4.70705434156535e+000

3.38245772979638e+005,-1.92208475506804e+001,-4.77173964243153e+000

3.42967508011610e+005,-1.92212939302965e+001,-4.83730081534235e+000

3.47755156008335e+005,-1.92217489022989e+001,-4.90374968781853e+000

3.52609637080511e+005,-1.92222125847718e+001,-4.97109826156691e+000

3.57531884183106e+005,-1.92226850972935e+001,-5.03935871561990e+000

3.62522843294651e+005,-1.92231665610672e+001,-5.10854340951220e+000

3.67583473599047e+005,-1.92236570990615e+001,-5.17866488649337e+000

3.72714747669902e+005,-1.92241568361629e+001,-5.24973587677485e+000

3.77917651657445e+005,-1.92246658993384e+001,-5.32176930080611e+000

3.83193185478053e+005,-1.92251844178092e+001,-5.39477827258036e+000

3.88542363006410e+005,-1.92257125232364e+001,-5.46877610296478e+000

3.93966212270369e+005,-1.92262503499172e+001,-5.54377630305318e+000

3.99465775648511e+005,-1.92267980349939e+001,-5.61979258753895e+000

4.05042110070485e+005,-1.92273557186740e+001,-5.69683887810406e+000

4.10696287220124e+005,-1.92279235444620e+001,-5.77492930682071e+000

4.16429393741414e+005,-1.92285016594039e+001,-5.85407821956574e+000

4.22242531447321e+005,-1.92290902143426e+001,-5.93430017943923e+000

4.28136817531551e+005,-1.92296893641863e+001,-6.01560997018945e+000

4.34113384783250e+005,-1.92302992681879e+001,-6.09802259963836e+000

4.40173381804713e+005,-1.92309200902369e+001,-6.18155330310506e+000

4.46317973232124e+005,-1.92315519991624e+001,-6.26621754682341e+000

4.52548339959385e+005,-1.92321951690483e+001,-6.35203103135311e+000

4.58865679365059e+005,-1.92328497795595e+001,-6.43900969497898e+000

4.65271205542494e+005,-1.92335160162794e+001,-6.52716971709681e+000

4.71766149533147e+005,-1.92341940710587e+001,-6.61652752158296e+000

4.78351759563174e+005,-1.92348841423746e+001,-6.70709978014565e+000

4.85029301283321e+005,-1.92355864357002e+001,-6.79890341565484e+000

4.91800058012158e+005,-1.92363011638855e+001,-6.89195560544727e+000

4.98665330982714e+005,-1.92370285475462e+001,-6.98627378461014e+000

5.05626439592555e+005,-1.92377688154640e+001,-7.08187564923269e+000

5.12684721657352e+005,-1.92385222049948e+001,-7.17877915963207e+000

5.19841533667984e+005,-1.92392889624863e+001,-7.27700254354856e+000

5.27098251051240e+005,-1.92400693437039e+001,-7.37656429930857e+000

5.34456268434150e+005,-1.92408636142651e+001,-7.47748319895463e+000

5.41916999912011e+005,-1.92416720500806e+001,-7.57977829134435e+000

