Freq.,VOut,OutRef

1.00000000000000e+004,-1.71591136116663e-001,-1.47028640781941e-002

1.01395947979003e+004,-1.71591146148177e-001,-1.49081071570609e-002

1.02811382665607e+004,-1.71591156461476e-001,-1.51162152694892e-002

1.04246576084112e+004,-1.71591167064616e-001,-1.53272284065635e-002

1.05701804056138e+004,-1.71591177965655e-001,-1.55411871193493e-002

1.07177346253629e+004,-1.71591189172926e-001,-1.57581325238604e-002

1.08673486252606e+004,-1.71591200694854e-001,-1.59781063114538e-002

1.10190511587661e+004,-1.71591212540521e-001,-1.62011507527527e-002

1.11728713807222e+004,-1.71591224718977e-001,-1.64273087094776e-002

1.13288388529580e+004,-1.71591237239484e-001,-1.66566236425855e-002

1.14869835499703e+004,-1.71591250111505e-001,-1.68891396197735e-002

1.16473358646846e+004,-1.71591263345221e-001,-1.71249013204554e-002

1.18099266142953e+004,-1.71591276950632e-001,-1.73639540510757e-002

1.19747870461893e+004,-1.71591290938231e-001,-1.76063437489894e-002

1.21419488439505e+004,-1.71591305318591e-001,-1.78521169936580e-002

1.23114441334492e+004,-1.71591320102786e-001,-1.81013210136998e-002

1.24833054890161e+004,-1.71591335302115e-001,-1.83540036972586e-002

1.26575659397028e+004,-1.71591350928373e-001,-1.86102135997584e-002

1.28342589756290e+004,-1.71591366993460e-001,-1.88699999553724e-002

1.30134185544193e+004,-1.71591383509619e-001,-1.91334126856424e-002

1.31950791077289e+004,-1.71591400489564e-001,-1.94005024080934e-002

1.33792755478611e+004,-1.71591417946303e-001,-1.96713204467876e-002

1.35660432744767e+004,-1.71591435893115e-001,-1.99459188423640e-002

1.37554181813974e+004,-1.71591454343886e-001,-2.02243503608650e-002

1.39474366635040e+004,-1.71591473312658e-001,-2.05066685056498e-002

1.41421356237309e+004,-1.71591492813952e-001,-2.07929275266801e-002

1.43395524801583e+004,-1.71591512862724e-001,-2.10831824299642e-002

1.45397251732031e+004,-1.71591533474356e-001,-2.13774889902224e-002

1.47426921729110e+004,-1.71591554664562e-001,-2.16759037602570e-002

1.49484924863494e+004,-1.71591576449528e-001,-2.19784840817529e-002

1.51571656651040e+004,-1.71591598846078e-001,-2.22852880959271e-002

1.53687518128801e+004,-1.71591621871220e-001,-2.25963747572293e-002

1.55832915932100e+004,-1.71591645542551e-001,-2.29118038415200e-002

1.58008262372675e+004,-1.71591669878229e-001,-2.32316359583484e-002

1.60213975517924e+004,-1.71591694896854e-001,-2.35559325639181e-002

1.62450479271247e+004,-1.71591720617470e-001,-2.38847559721203e-002

1.64718203453514e+004,-1.71591747059998e-001,-2.42181693644561e-002

1.67017583885674e+004,-1.71591774244383e-001,-2.45562368068710e-002

1.69349062472505e+004,-1.71591802191622e-001,-2.48990232565523e-002

1.71713087287550e+004,-1.71591830922824e-001,-2.52465945796999e-002

1.74110112659224e+004,-1.71591860460047e-001,-2.55990175597441e-002

1.76540599258131e+004,-1.71591890825993e-001,-2.59563599115363e-002

1.79005014185594e+004,-1.71591922043704e-001,-2.63186902961310e-002

1.81503831063432e+004,-1.71591954136976e-001,-2.66860783327087e-002

1.84037530124975e+004,-1.71591987130474e-001,-2.70585946095312e-002

1.86606598307361e+004,-1.71592021049329e-001,-2.74363107020148e-002

1.89211529345119e+004,-1.71592055919318e-001,-2.78192991841930e-002

1.91852823865052e+004,-1.71592091767096e-001,-2.82076336410176e-002

1.94530989482457e+004,-1.71592128620136e-001,-2.86013886846350e-002

1.97246540898671e+004,-1.71592166506446e-001,-2.90006399688195e-002

1.99999999999999e+004,-1.71592205454881e-001,-2.94054642025415e-002

2.02791895958005e+004,-1.71592245495233e-001,-2.98159391641298e-002

2.05622765331213e+004,-1.71592286657968e-001,-3.02321437180821e-002

2.08493152168224e+004,-1.71592328974297e-001,-3.06541578292323e-002

2.11403608112276e+004,-1.71592372476818e-001,-3.10820625750716e-002

2.14354692507258e+004,-1.71592417198332e-001,-3.15159401683296e-002

2.17346972505211e+004,-1.71592463172972e-001,-3.19558739661985e-002

2.20381023175322e+004,-1.71592510435889e-001,-3.24019484876980e-002

2.23457427614443e+004,-1.71592559022967e-001,-3.28542494327317e-002

2.26576777059159e+004,-1.71592608971056e-001,-3.33128636966686e-002

2.29739670999406e+004,-1.71592660318263e-001,-3.37778793851421e-002

2.32946717293690e+004,-1.71592713103574e-001,-3.42493858342260e-002

2.36198532285905e+004,-1.71592767367171e-001,-3.47274736251251e-002

2.39495740923785e+004,-1.71592823150193e-001,-3.52122346031766e-002

2.42838976879009e+004,-1.71592880495174e-001,-3.57037618934292e-002

2.46228882668982e+004,-1.71592939445463e-001,-3.62021499218578e-002

2.49666109780322e+004,-1.71593000045918e-001,-3.67074944290732e-002

2.53151318794055e+004,-1.71593062342431e-001,-3.72198924928716e-002

2.56685179512580e+004,-1.71593126382388e-001,-3.77394425426581e-002

2.60268371088386e+004,-1.71593192214309e-001,-3.82662443817586e-002

2.63901582154578e+004,-1.71593259888111e-001,-3.88003992054576e-002

2.67585510957221e+004,-1.71593329454963e-001,-3.93420096200015e-002

2.71320865489533e+004,-1.71593400967634e-001,-3.98911796619732e-002

2.75108363627948e+004,-1.71593474480275e-001,-4.04480148183906e-002

2.78948733270080e+004,-1.71593550048469e-001,-4.10126220480977e-002

2.82842712474618e+004,-1.71593627729351e-001,-4.15851098004349e-002

2.86791049603164e+004,-1.71593707581663e-001,-4.21655880371148e-002

2.90794503464061e+004,-1.71593789665888e-001,-4.27541682517969e-002

2.94853843458219e+004,-1.71593874043769e-001,-4.33509634948862e-002

2.98969849726987e+004,-1.71593960779227e-001,-4.39560883901716e-002

3.03143313302078e+004,-1.71594049937454e-001,-4.45696591619150e-002

3.07375036257601e+004,-1.71594141586011e-001,-4.51917936513058e-002

3.11665831864199e+004,-1.71594235793727e-001,-4.58226113453572e-002

3.16016524745350e+004,-1.71594332631676e-001,-4.64622333942374e-002

3.20427951035848e+004,-1.71594432172670e-001,-4.71107826387708e-002

3.24900958542493e+004,-1.71594534491760e-001,-4.77683836294184e-002

3.29436406907028e+004,-1.71594639665757e-001,-4.84351626544635e-002

3.34035167771346e+004,-1.71594747773752e-001,-4.91112477616386e-002

3.38698124945009e+004,-1.71594858896869e-001,-4.97967687828337e-002

3.43426174575100e+004,-1.71594973118618e-001,-5.04918573589537e-002

3.48220225318448e+004,-1.71595090524573e-001,-5.11966469661224e-002

3.53081198516260e+004,-1.71595211202699e-001,-5.19112729397953e-002

3.58010028371187e+004,-1.71595335243497e-001,-5.26358725003608e-002

3.63007662126863e+004,-1.71595462739785e-001,-5.33705847804864e-002

3.68075060249948e+004,-1.71595593786795e-001,-5.41155508520161e-002

3.73213196614721e+004,-1.71595728482496e-001,-5.48709137511140e-002

3.78423058690237e+004,-1.71595866927586e-001,-5.56368185058933e-002

3.83705647730104e+004,-1.71596009225082e-001,-5.64134121666419e-002

3.89061978964912e+004,-1.71596155481366e-001,-5.72008438287356e-002

3.94493081797342e+004,-1.71596305805076e-001,-5.79992646675486e-002

3.99999999999998e+004,-1.71596460308295e-001,-5.88088279607900e-002

4.05583791916010e+004,-1.71596619105671e-001,-5.96296891230518e-002

4.11245530662425e+004,-1.71596782315262e-001,-6.04620057313422e-002

4.16986304336447e+004,-1.71596950058192e-001,-6.13059375571993e-002

4.22807216224550e+004,-1.71597122458686e-001,-6.21616465978802e-002

4.28709385014515e+004,-1.71597299644481e-001,-6.30292971040765e-002

4.34693945010421e+004,-1.71597481746609e-001,-6.39090556141425e-002

4.40762046350642e+004,-1.71597668899600e-001,-6.48010909847954e-002

4.46914855228886e+004,-1.71597861241589e-001,-6.57055744223069e-002

4.53153554118317e+004,-1.71598058914403e-001,-6.66226795164755e-002

4.59479341998812e+004,-1.71598262063471e-001,-6.75525822728328e-002

4.65893434587380e+004,-1.71598470838253e-001,-6.84954611459191e-002

4.72397064571810e+004,-1.71598685392185e-001,-6.94514970727743e-002

4.78991481847569e+004,-1.71598905882481e-001,-7.04208735095104e-002

4.85677953758016e+004,-1.71599132470737e-001,-7.14037764634417e-002

4.92457765337964e+004,-1.71599365322734e-001,-7.24003945291301e-002

4.99332219560642e+004,-1.71599604608580e-001,-7.34109189249384e-002

5.06302637588109e+004,-1.71599850502787e-001,-7.44355435289681e-002

5.13370359025159e+004,-1.71600103184387e-001,-7.54744649159281e-002

5.20536742176771e+004,-1.71600362837264e-001,-7.65278823927442e-002

5.27803164309155e+004,-1.71600629649931e-001,-7.75959980382026e-002

5.35171021914442e+004,-1.71600903815762e-001,-7.86790167413636e-002

5.42641730979066e+004,-1.71601185533160e-001,-7.97771462388050e-002

5.50216727255895e+004,-1.71601475005771e-001,-8.08905971542936e-002

5.57897466540159e+004,-1.71601772442219e-001,-8.20195830401199e-002

5.65685424949235e+004,-1.71602078056789e-001,-8.31643204150156e-002

5.73582099206328e+004,-1.71602392068917e-001,-8.43250288075993e-002

5.81589006928121e+004,-1.71602714703967e-001,-8.55019307952029e-002

5.89707686916437e+004,-1.71603046192739e-001,-8.66952520488592e-002

5.97939699453972e+004,-1.71603386772055e-001,-8.79052213727615e-002

6.06286626604156e+004,-1.71603736684747e-001,-8.91320707495974e-002

6.14750072515201e+004,-1.71604096179634e-001,-9.03760353836780e-002

6.23331663728396e+004,-1.71604465511815e-001,-9.16373537455418e-002

6.32033049490698e+004,-1.71604844942947e-001,-9.29162676150382e-002

6.40855902071694e+004,-1.71605234740937e-001,-9.42130221302921e-002

6.49801917084985e+004,-1.71605635180647e-001,-9.55278658296683e-002

6.58872813814055e+004,-1.71606046543391e-001,-9.68610507030169e-002

6.68070335542691e+004,-1.71606469117722e-001,-9.82128322349512e-002

6.77396249890018e+004,-1.71606903199133e-001,-9.95834694552408e-002

6.86852349150199e+004,-1.71607349090391e-001,-1.00973224986694e-001

6.96440450636895e+004,-1.71607807101654e-001,-1.02382365094828e-001

7.06162397032520e+004,-1.71608277550500e-001,-1.03811159737134e-001

7.16020056742374e+004,-1.71608760762347e-001,-1.05259882614342e-001

7.26015324253724e+004,-1.71609257070164e-001,-1.06728811221807e-001

7.36150120499896e+004,-1.71609766815177e-001,-1.08218226900546e-001

7.46426393229441e+004,-1.71610290346475e-001,-1.09728414891086e-001

7.56846117380472e+004,-1.71610828021573e-001,-1.11259664385779e-001

7.67411295460207e+004,-1.71611380206343e-001,-1.12812268583522e-001

7.78123957929823e+004,-1.71611947275147e-001,-1.14386524744921e-001

7.88986163594682e+004,-1.71612529611191e-001,-1.15982734246267e-001

7.99999999999995e+004,-1.71613127606432e-001,-1.17601202637743e-001

8.11167583832018e+004,-1.71613741661740e-001,-1.19242239699624e-001

8.22491061324848e+004,-1.71614372187389e-001,-1.20906159498674e-001

8.33972608672892e+004,-1.71615019602796e-001,-1.22593280449176e-001

8.45614432449099e+004,-1.71615684336852e-001,-1.24303925370350e-001

8.57418770029029e+004,-1.71616366827931e-001,-1.26038421547653e-001

8.69387890020841e+004,-1.71617067524284e-001,-1.27797100792528e-001

8.81524092701283e+004,-1.71617786883858e-001,-1.29580299505377e-001

8.93829710457770e+004,-1.71618525374857e-001,-1.31388358736150e-001

9.06307108236633e+004,-1.71619283475269e-001,-1.33221624250620e-001

9.18958683997622e+004,-1.71620061673694e-001,-1.35080446591207e-001

9.31786869174758e+004,-1.71620860468831e-001,-1.36965181144904e-001

9.44794129143618e+004,-1.71621680370042e-001,-1.38876188207157e-001

9.57982963695136e+004,-1.71622521897245e-001,-1.40813833049776e-001

9.71355907516031e+004,-1.71623385581091e-001,-1.42778485988414e-001

9.84915530675926e+004,-1.71624271963071e-001,-1.44770522450626e-001

9.98664439121282e+004,-1.71625181595619e-001,-1.46790323045465e-001

1.01260527517622e+005,-1.71626115042181e-001,-1.48838273634499e-001

1.02674071805032e+005,-1.71627072877356e-001,-1.50914765402159e-001

1.04107348435354e+005,-1.71628055686864e-001,-1.53020194928696e-001

1.05560632861831e+005,-1.71629064067638e-001,-1.55154964263550e-001

1.07034204382888e+005,-1.71630098627985e-001,-1.57319480998860e-001

1.08528346195813e+005,-1.71631159987520e-001,-1.59514158345241e-001

1.10043345451179e+005,-1.71632248777358e-001,-1.61739415207162e-001

1.11579493308032e+005,-1.71633365639905e-001,-1.63995676261411e-001

1.13137084989847e+005,-1.71634511228970e-001,-1.66283372034788e-001

1.14716419841265e+005,-1.71635686209915e-001,-1.68602938982509e-001

1.16317801385624e+005,-1.71636891259468e-001,-1.70954819569761e-001

1.17941537383287e+005,-1.71638127065606e-001,-1.73339462353185e-001

1.19587939890794e+005,-1.71639394327821e-001,-1.75757322062539e-001

1.21257325320831e+005,-1.71640693756778e-001,-1.78208859684823e-001

1.22950014503040e+005,-1.71642026074381e-001,-1.80694542548765e-001

1.24666332745679e+005,-1.71643392013582e-001,-1.83214844411700e-001

1.26406609898139e+005,-1.71644792318411e-001,-1.85770245545541e-001

1.28171180414339e+005,-1.71646227743555e-001,-1.88361232825856e-001

1.29960383416997e+005,-1.71647699054549e-001,-1.90988299820734e-001

1.31774562762811e+005,-1.71649207027312e-001,-1.93651946882521e-001

1.33614067108538e+005,-1.71650752448110e-001,-1.96352681238745e-001

1.35479249978003e+005,-1.71652336113279e-001,-1.99091017085706e-001

1.37370469830040e+005,-1.71653958828822e-001,-2.01867475683983e-001

1.39288090127379e+005,-1.71655621410502e-001,-2.04682585452110e-001

1.41232479406504e+005,-1.71657324682917e-001,-2.07536882067193e-001

1.43204011348474e+005,-1.71659069479846e-001,-2.10430908560010e-001

1.45203064850745e+005,-1.71660856643365e-001,-2.13365215417277e-001

1.47230024099979e+005,-1.71662687023719e-001,-2.16340360681487e-001

1.49285278645888e+005,-1.71664561478601e-001,-2.19356910056230e-001

1.51369223476094e+005,-1.71666480873087e-001,-2.22415437007499e-001

1.53482259092041e+005,-1.71668446078695e-001,-2.25516522871944e-001

1.55624791585964e+005,-1.71670457973207e-001,-2.28660756962253e-001

1.57797232718936e+005,-1.71672517439741e-001,-2.31848736678415e-001

1.59999999999999e+005,-1.71674625366433e-001,-2.35081067615968e-001

1.62233516766403e+005,-1.71676782645519e-001,-2.38358363679744e-001

1.64498212264969e+005,-1.71678990172905e-001,-2.41681247196667e-001

1.66794521734578e+005,-1.71681248846980e-001,-2.45050349032983e-001

1.69122886489819e+005,-1.71683559568392e-001,-2.48466308708806e-001

1.71483754005805e+005,-1.71685923238782e-001,-2.51929774519500e-001

1.73877578004168e+005,-1.71688340759941e-001,-2.55441403655806e-001

1.76304818540256e+005,-1.71690813033186e-001,-2.59001862326175e-001

1.78765942091554e+005,-1.71693340958015e-001,-2.62611825881734e-001

1.81261421647326e+005,-1.71695925431343e-001,-2.66271978942437e-001

1.83791736799524e+005,-1.71698567346147e-001,-2.69983015526854e-001

1.86357373834951e+005,-1.71701267590791e-001,-2.73745639180295e-001

1.88958825828723e+005,-1.71704027047450e-001,-2.77560563109171e-001

1.91596592739027e+005,-1.71706846590982e-001,-2.81428510315979e-001

1.94271181503206e+005,-1.71709727087831e-001,-2.85350213734616e-001

1.96983106135185e+005,-1.71712669394660e-001,-2.89326416369686e-001

1.99732887824256e+005,-1.71715674356748e-001,-2.93357871439503e-001

2.02521055035243e+005,-1.71718742806851e-001,-2.97445342517381e-001

2.05348143610063e+005,-1.71721875563758e-001,-3.01589603678842e-001

2.08214696870707e+005,-1.71725073430576e-001,-3.05791439649345e-001

2.11121265723661e+005,-1.71728337193266e-001,-3.10051645955839e-001

2.14068408765776e+005,-1.71731667619148e-001,-3.14371029079016e-001

2.17056692391625e+005,-1.71735065455154e-001,-3.18750406609641e-001

2.20086690902357e+005,-1.71738531426271e-001,-3.23190607407066e-001

2.23158986616063e+005,-1.71742066233655e-001,-3.27692471759994e-001

2.26274169979693e+005,-1.71745670552900e-001,-3.32256851551069e-001

2.29432839682530e+005,-1.71749345032506e-001,-3.36884610422129e-001

2.32635602771247e+005,-1.71753090291754e-001,-3.41576623944545e-001

2.35883074766574e+005,-1.71756906919011e-001,-3.46333779791655e-001

2.39175879781588e+005,-1.71760795469807e-001,-3.51156977913332e-001

2.42514650641661e+005,-1.71764756464963e-001,-3.56047130714966e-001

2.45900029006080e+005,-1.71768790388804e-001,-3.61005163237917e-001

2.49332665491357e+005,-1.71772897686895e-001,-3.66032013345017e-001

2.52813219796278e+005,-1.71777078764541e-001,-3.71128631906899e-001

2.56342360828676e+005,-1.71781333984531e-001,-3.76295982993803e-001

2.59920766833993e+005,-1.71785663665330e-001,-3.81535044069072e-001

2.63549125525621e+005,-1.71790068079115e-001,-3.86846806186883e-001

2.67228134217075e+005,-1.71794547449996e-001,-3.92232274192235e-001

2.70958499956006e+005,-1.71799101951936e-001,-3.97692466926132e-001

2.74740939660078e+005,-1.71803731706960e-001,-4.03228417432526e-001

2.78576180254757e+005,-1.71808436783256e-001,-4.08841173170004e-001

2.82464958813007e+005,-1.71813217193578e-001,-4.14531796225674e-001

2.86408022696948e+005,-1.71818072893165e-001,-4.20301363534339e-001

2.90406129701488e+005,-1.71823003778362e-001,-4.26150967099524e-001

2.94460048199957e+005,-1.71828009684699e-001,-4.32081714220210e-001

2.98570557291775e+005,-1.71833090385599e-001,-4.38094727718988e-001

3.02738446952187e+005,-1.71838245590508e-001,-4.44191146176124e-001

3.06964518184081e+005,-1.71843474943904e-001,-4.50372124165317e-001

3.11249583171928e+005,-1.71848778023522e-001,-4.56638832495654e-001

3.15594465437872e+005,-1.71854154339436e-001,-4.62992458455078e-001

3.19999999999997e+005,-1.71859603332895e-001,-4.69434206058674e-001

3.24467033532806e+005,-1.71865124375070e-001,-4.75965296301448e-001

3.28996424529938e+005,-1.71870716766412e-001,-4.82586967414267e-001

3.33589043469155e+005,-1.71876379735763e-001,-4.89300475123143e-001

3.38245772979638e+005,-1.71882112439774e-001,-4.96107092913517e-001

3.42967508011610e+005,-1.71887913962237e-001,-5.03008112298391e-001

3.47755156008335e+005,-1.71893783313993e-001,-5.10004843088958e-001

3.52609637080511e+005,-1.71899719432576e-001,-5.17098613671063e-001

3.57531884183106e+005,-1.71905721182130e-001,-5.24290771284144e-001

3.62522843294651e+005,-1.71911787353630e-001,-5.31582682304761e-001

3.67583473599047e+005,-1.71917916665190e-001,-5.38975732533477e-001

3.72714747669902e+005,-1.71924107762492e-001,-5.46471327486493e-001

3.77917651657445e+005,-1.71930359219343e-001,-5.54070892690049e-001

3.83193185478053e+005,-1.71936669538701e-001,-5.61775873979436e-001

3.88542363006410e+005,-1.71943037153447e-001,-5.69587737801949e-001

3.93966212270369e+005,-1.71949460427846e-001,-5.77507971522542e-001

3.99465775648511e+005,-1.71955937658673e-001,-5.85538083734701e-001

4.05042110070485e+005,-1.71962467077003e-001,-5.93679604574101e-001

4.10696287220124e+005,-1.71969046849704e-001,-6.01934086036702e-001

4.16429393741414e+005,-1.71975675081710e-001,-6.10303102299737e-001

4.22242531447321e+005,-1.71982349817852e-001,-6.18788250047137e-001

4.28136817531551e+005,-1.71989069045307e-001,-6.27391148798718e-001

4.34113384783250e+005,-1.71995830696015e-001,-6.36113441242077e-001

4.40173381804713e+005,-1.72002632649427e-001,-6.44956793569453e-001

4.46317973232124e+005,-1.72009472735135e-001,-6.53922895817457e-001

4.52548339959385e+005,-1.72016348736138e-001,-6.63013462209916e-001

4.58865679365059e+005,-1.72023258391675e-001,-6.72230231506364e-001

4.65271205542494e+005,-1.72030199400623e-001,-6.81574967351637e-001

4.71766149533147e+005,-1.72037169425055e-001,-6.91049458630900e-001

4.78351759563174e+005,-1.72044166093490e-001,-7.00655519827769e-001

4.85029301283321e+005,-1.72051187004909e-001,-7.10394991385497e-001

4.91800058012158e+005,-1.72058229732097e-001,-7.20269740073115e-001

4.98665330982714e+005,-1.72065291825952e-001,-7.30281659353995e-001

5.05626439592555e+005,-1.72072370819171e-001,-7.40432669758876e-001

5.12684721657352e+005,-1.72079464230240e-001,-7.50724719262635e-001

5.19841533667984e+005,-1.72086569567859e-001,-7.61159783664064e-001

5.27098251051240e+005,-1.72093684334593e-001,-7.71739866970793e-001

5.34456268434150e+005,-1.72100806031428e-001,-7.82467001787085e-001

5.41916999912011e+005,-1.72107932161825e-001,-7.93343249705748e-001

