Freq.,VOut,OutRef

1.00000000000000e+004,-1.00990951566860e+001,-8.23106541195855e-002

1.01395947979003e+004,-1.00990953035079e+001,-8.34596450603896e-002

1.02811382665607e+004,-1.00990954544538e+001,-8.46246743409912e-002

1.04246576084112e+004,-1.00990956096393e+001,-8.58059658082712e-002

1.05701804056138e+004,-1.00990957691834e+001,-8.70037464305427e-002

1.07177346253629e+004,-1.00990959332085e+001,-8.82182463413494e-002

1.08673486252606e+004,-1.00990961018400e+001,-8.94496988893061e-002

1.10190511587661e+004,-1.00990962752074e+001,-9.06983406733611e-002

1.11728713807222e+004,-1.00990964534435e+001,-9.19644115962971e-002

1.13288388529580e+004,-1.00990966366849e+001,-9.32481549060518e-002

1.14869835499703e+004,-1.00990968250717e+001,-9.45498172464141e-002

1.16473358646846e+004,-1.00990970187489e+001,-9.58696486965662e-002

1.18099266142953e+004,-1.00990972178640e+001,-9.72079028319015e-002

1.19747870461893e+004,-1.00990974225702e+001,-9.85648367579190e-002

1.21419488439505e+004,-1.00990976330241e+001,-9.99407111697160e-002

1.23114441334492e+004,-1.00990978493868e+001,-1.01335790399558e-001

1.24833054890161e+004,-1.00990980718240e+001,-1.02750342465092e-001

1.26575659397028e+004,-1.00990983005058e+001,-1.04184639123635e-001

1.28342589756290e+004,-1.00990985356077e+001,-1.05638955921315e-001

1.30134185544193e+004,-1.00990987773090e+001,-1.07113572250761e-001

1.31950791077289e+004,-1.00990990257954e+001,-1.08608771395948e-001

1.33792755478611e+004,-1.00990992812566e+001,-1.10124840596710e-001

1.35660432744767e+004,-1.00990995438884e+001,-1.11662071096272e-001

1.37554181813974e+004,-1.00990998138913e+001,-1.13220758201949e-001

1.39474366635040e+004,-1.00991000914722e+001,-1.14801201335962e-001

1.41421356237309e+004,-1.00991003768434e+001,-1.16403704098975e-001

1.43395524801583e+004,-1.00991006702228e+001,-1.18028574325219e-001

1.45397251732031e+004,-1.00991009718350e+001,-1.19676124140146e-001

1.47426921729110e+004,-1.00991012819107e+001,-1.21346670020729e-001

1.49484924863494e+004,-1.00991016006865e+001,-1.23040532861781e-001

1.51571656651040e+004,-1.00991019284064e+001,-1.24758038025601e-001

1.53687518128801e+004,-1.00991022653207e+001,-1.26499515416401e-001

1.55832915932100e+004,-1.00991026116867e+001,-1.28265299535756e-001

1.58008262372675e+004,-1.00991029677692e+001,-1.30055729548855e-001

1.60213975517924e+004,-1.00991033338401e+001,-1.31871149349516e-001

1.62450479271247e+004,-1.00991037101785e+001,-1.33711907628864e-001

1.64718203453514e+004,-1.00991040970724e+001,-1.35578357932302e-001

1.67017583885674e+004,-1.00991044948167e+001,-1.37470858739815e-001

1.69349062472505e+004,-1.00991049037149e+001,-1.39389773525786e-001

1.71713087287550e+004,-1.00991053240793e+001,-1.41335470830541e-001

1.74110112659224e+004,-1.00991057562302e+001,-1.43308324333033e-001

1.76540599258131e+004,-1.00991062004975e+001,-1.45308712918905e-001

1.79005014185594e+004,-1.00991066572196e+001,-1.47337020756021e-001

1.81503831063432e+004,-1.00991071267449e+001,-1.49393637363877e-001

1.84037530124975e+004,-1.00991076094313e+001,-1.51478957692143e-001

1.86606598307361e+004,-1.00991081056464e+001,-1.53593382193248e-001

1.89211529345119e+004,-1.00991086157682e+001,-1.55737316900680e-001

1.91852823865052e+004,-1.00991091401853e+001,-1.57911173504625e-001

1.94530989482457e+004,-1.00991096792968e+001,-1.60115369432650e-001

1.97246540898671e+004,-1.00991102335131e+001,-1.62350327925644e-001

1.99999999999999e+004,-1.00991108032563e+001,-1.64616478121770e-001

2.02791895958005e+004,-1.00991113889591e+001,-1.66914255141650e-001

2.05622765331213e+004,-1.00991119910674e+001,-1.69244100160309e-001

2.08493152168224e+004,-1.00991126100387e+001,-1.71606460503878e-001

2.11403608112276e+004,-1.00991132463437e+001,-1.74001789724143e-001

2.14354692507258e+004,-1.00991139004656e+001,-1.76430547694247e-001

2.17346972505211e+004,-1.00991145729014e+001,-1.78893200688075e-001

2.20381023175322e+004,-1.00991152641614e+001,-1.81390221476173e-001

2.23457427614443e+004,-1.00991159747704e+001,-1.83922089410104e-001

2.26576777059159e+004,-1.00991167052676e+001,-1.86489290515303e-001

2.29739670999406e+004,-1.00991174562069e+001,-1.89092317586497e-001

2.32946717293690e+004,-1.00991182281575e+001,-1.91731670277698e-001

2.36198532285905e+004,-1.00991190217048e+001,-1.94407855197063e-001

2.39495740923785e+004,-1.00991198374495e+001,-1.97121386008134e-001

2.42838976879009e+004,-1.00991206760097e+001,-1.99872783520016e-001

2.46228882668982e+004,-1.00991215380198e+001,-2.02662575793438e-001

2.49666109780322e+004,-1.00991224241319e+001,-2.05491298236238e-001

2.53151318794055e+004,-1.00991233350163e+001,-2.08359493707400e-001

2.56685179512580e+004,-1.00991242713615e+001,-2.11267712616629e-001

2.60268371088386e+004,-1.00991252338748e+001,-2.14216513035638e-001

2.63901582154578e+004,-1.00991262232829e+001,-2.17206460797560e-001

2.67585510957221e+004,-1.00991272403328e+001,-2.20238129604706e-001

2.71320865489533e+004,-1.00991282857917e+001,-2.23312101140967e-001

2.75108363627948e+004,-1.00991293604476e+001,-2.26428965180053e-001

2.78948733270080e+004,-1.00991304651105e+001,-2.29589319695396e-001

2.82842712474618e+004,-1.00991316006122e+001,-2.32793770977056e-001

2.86791049603164e+004,-1.00991327678073e+001,-2.36042933743013e-001

2.90794503464061e+004,-1.00991339675740e+001,-2.39337431255961e-001

2.94853843458219e+004,-1.00991352008140e+001,-2.42677895444246e-001

2.98969849726987e+004,-1.00991364684539e+001,-2.46064967015614e-001

3.03143313302078e+004,-1.00991377714454e+001,-2.49499295584220e-001

3.07375036257601e+004,-1.00991391107662e+001,-2.52981539789347e-001

3.11665831864199e+004,-1.00991404874203e+001,-2.56512367420690e-001

3.16016524745350e+004,-1.00991419024393e+001,-2.60092455544524e-001

3.20427951035848e+004,-1.00991433568826e+001,-2.63722490630965e-001

3.24900958542493e+004,-1.00991448518381e+001,-2.67403168684293e-001

3.29436406907028e+004,-1.00991463884235e+001,-2.71135195372404e-001

3.34035167771346e+004,-1.00991479677867e+001,-2.74919286158660e-001

3.38698124945009e+004,-1.00991495911061e+001,-2.78756166442303e-001

3.43426174575100e+004,-1.00991512595925e+001,-2.82646571686074e-001

3.48220225318448e+004,-1.00991529744889e+001,-2.86591247561579e-001

3.53081198516260e+004,-1.00991547370719e+001,-2.90590950086075e-001

3.58010028371187e+004,-1.00991565486526e+001,-2.94646445762341e-001

3.63007662126863e+004,-1.00991584105767e+001,-2.98758511729925e-001

3.68075060249948e+004,-1.00991603242266e+001,-3.02927935899676e-001

3.73213196614721e+004,-1.00991622910213e+001,-3.07155517111439e-001

3.78423058690237e+004,-1.00991643124179e+001,-3.11442065276359e-001

3.83705647730104e+004,-1.00991663899122e+001,-3.15788401533319e-001

3.89061978964912e+004,-1.00991685250400e+001,-3.20195358399515e-001

3.94493081797342e+004,-1.00991707193779e+001,-3.24663779924934e-001

3.99999999999998e+004,-1.00991729745442e+001,-3.29194521854504e-001

4.05583791916010e+004,-1.00991752922006e+001,-3.33788451780719e-001

4.11245530662425e+004,-1.00991776740521e+001,-3.38446449312138e-001

4.16986304336447e+004,-1.00991801218492e+001,-3.43169406231752e-001

4.22807216224550e+004,-1.00991826373885e+001,-3.47958226665548e-001

4.28709385014515e+004,-1.00991852225135e+001,-3.52813827251201e-001

4.34693945010421e+004,-1.00991878791167e+001,-3.57737137304165e-001

4.40762046350642e+004,-1.00991906091399e+001,-3.62729098994630e-001

4.46914855228886e+004,-1.00991934145755e+001,-3.67790667519477e-001

4.53153554118317e+004,-1.00991962974682e+001,-3.72922811279283e-001

4.59479341998812e+004,-1.00991992599161e+001,-3.78126512057422e-001

4.65893434587380e+004,-1.00992023040712e+001,-3.83402765203052e-001

4.72397064571810e+004,-1.00992054321419e+001,-3.88752579811768e-001

4.78991481847569e+004,-1.00992086463935e+001,-3.94176978914446e-001

4.85677953758016e+004,-1.00992119491494e+001,-3.99676999664285e-001

4.92457765337964e+004,-1.00992153427934e+001,-4.05253693526255e-001

4.99332219560642e+004,-1.00992188297698e+001,-4.10908126474628e-001

5.06302637588109e+004,-1.00992224125861e+001,-4.16641379181705e-001

5.13370359025159e+004,-1.00992260938131e+001,-4.22454547223379e-001

5.20536742176771e+004,-1.00992298760876e+001,-4.28348741274668e-001

5.27803164309155e+004,-1.00992337621127e+001,-4.34325087314227e-001

5.35171021914442e+004,-1.00992377546604e+001,-4.40384726829818e-001

5.42641730979066e+004,-1.00992418565722e+001,-4.46528817027561e-001

5.50216727255895e+004,-1.00992460707609e+001,-4.52758531041694e-001

5.57897466540159e+004,-1.00992504002124e+001,-4.59075058147990e-001

5.65685424949235e+004,-1.00992548479869e+001,-4.65479603979630e-001

5.73582099206328e+004,-1.00992594172207e+001,-4.71973390747345e-001

5.81589006928121e+004,-1.00992641111278e+001,-4.78557657458625e-001

5.89707686916437e+004,-1.00992689330013e+001,-4.85233660143040e-001

5.97939699453972e+004,-1.00992738862151e+001,-4.92002672079826e-001

6.06286626604156e+004,-1.00992789742255e+001,-4.98865984026953e-001

6.14750072515201e+004,-1.00992842005730e+001,-5.05824904452934e-001

6.23331663728396e+004,-1.00992895688840e+001,-5.12880759771875e-001

6.32033049490698e+004,-1.00992950828721e+001,-5.20034894582999e-001

6.40855902071694e+004,-1.00993007463401e+001,-5.27288671911281e-001

6.49801917084985e+004,-1.00993065631815e+001,-5.34643473449900e-001

6.58872813814055e+004,-1.00993125373823e+001,-5.42100699809517e-001

6.68070335542691e+004,-1.00993186730224e+001,-5.49661770765650e-001

6.77396249890018e+004,-1.00993249742778e+001,-5.57328125513191e-001

6.86852349150199e+004,-1.00993314454218e+001,-5.65101222920563e-001

6.96440450636895e+004,-1.00993380908269e+001,-5.72982541790028e-001

7.06162397032520e+004,-1.00993449149661e+001,-5.80973581120149e-001

7.16020056742374e+004,-1.00993519224154e+001,-5.89075860366867e-001

7.26015324253724e+004,-1.00993591178542e+001,-5.97290919717652e-001

7.36150120499896e+004,-1.00993665060681e+001,-6.05620320356816e-001

7.46426393229441e+004,-1.00993740919496e+001,-6.14065644743677e-001

7.56846117380472e+004,-1.00993818805003e+001,-6.22628496889676e-001

7.67411295460207e+004,-1.00993898768319e+001,-6.31310502638009e-001

7.78123957929823e+004,-1.00993980861682e+001,-6.40113309948047e-001

7.88986163594682e+004,-1.00994065138461e+001,-6.49038589183563e-001

7.99999999999995e+004,-1.00994151653173e+001,-6.58088033403318e-001

8.11167583832018e+004,-1.00994240461495e+001,-6.67263358655289e-001

8.22491061324848e+004,-1.00994331620279e+001,-6.76566304273041e-001

8.33972608672892e+004,-1.00994425187563e+001,-6.85998633177999e-001

8.45614432449099e+004,-1.00994521222584e+001,-6.95562132182623e-001

8.57418770029029e+004,-1.00994619785786e+001,-7.05258612300482e-001

8.69387890020841e+004,-1.00994720938833e+001,-7.15089909054664e-001

8.81524092701283e+004,-1.00994824744620e+001,-7.25057882795136e-001

8.93829710457770e+004,-1.00994931267275e+001,-7.35164419016506e-001

9.06307108236633e+004,-1.00995040572175e+001,-7.45411428679550e-001

9.18958683997622e+004,-1.00995152725942e+001,-7.55800848539524e-001

9.31786869174758e+004,-1.00995267796459e+001,-7.66334641472654e-001

9.44794129143618e+004,-1.00995385852866e+001,-7.77014796810758e-001

9.57982963695136e+004,-1.00995506965565e+001,-7.87843330680008e-001

9.71355907516031e+004,-1.00995631206218e+001,-7.98822286340072e-001

9.84915530675926e+004,-1.00995758647751e+001,-8.09953734530360e-001

9.98664439121282e+004,-1.00995889364348e+001,-8.21239773817213e-001

1.01260527517622e+005,-1.00996023431447e+001,-8.32682530949691e-001

1.02674071805032e+005,-1.00996160925734e+001,-8.44284161214207e-001

1.04107348435354e+005,-1.00996301925134e+001,-8.56046848796206e-001

1.05560632861831e+005,-1.00996446508799e+001,-8.67972807147426e-001

1.07034204382888e+005,-1.00996594757100e+001,-8.80064279352466e-001

1.08528346195813e+005,-1.00996746751603e+001,-8.92323538505067e-001

1.10043345451179e+005,-1.00996902575058e+001,-9.04752888086079e-001

1.11579493308032e+005,-1.00997062311374e+001,-9.17354662345340e-001

1.13137084989847e+005,-1.00997226045594e+001,-9.30131226690990e-001

1.14716419841265e+005,-1.00997393863871e+001,-9.43084978079257e-001

1.16317801385624e+005,-1.00997565853435e+001,-9.56218345413078e-001

1.17941537383287e+005,-1.00997742102558e+001,-9.69533789942779e-001

1.19587939890794e+005,-1.00997922700517e+001,-9.83033805673399e-001

1.21257325320831e+005,-1.00998107737553e+001,-9.96720919776023e-001

1.22950014503040e+005,-1.00998297304823e+001,-1.01059769300354e+000

1.24666332745679e+005,-1.00998491494350e+001,-1.02466672011559e+000

1.26406609898139e+005,-1.00998690398969e+001,-1.03893063030202e+000

1.28171180414339e+005,-1.00998894112268e+001,-1.05339208761965e+000

1.29960383416997e+005,-1.00999102728521e+001,-1.06805379142807e+000

1.31774562762811e+005,-1.00999316342620e+001,-1.08291847683651e+000

1.33614067108538e+005,-1.00999535049998e+001,-1.09798891515333e+000

1.35479249978003e+005,-1.00999758946552e+001,-1.11326791434110e+000

1.37370469830040e+005,-1.00999988128552e+001,-1.12875831948300e+000

1.39288090127379e+005,-1.01000222692548e+001,-1.14446301324941e+000

1.41232479406504e+005,-1.01000462735275e+001,-1.16038491637561e+000

1.43204011348474e+005,-1.01000708353545e+001,-1.17652698814371e+000

1.45203064850745e+005,-1.01000959644128e+001,-1.19289222687445e+000

1.47230024099979e+005,-1.01001216703646e+001,-1.20948367042323e+000

1.49285278645888e+005,-1.01001479628428e+001,-1.22630439668723e+000

1.51369223476094e+005,-1.01001748514391e+001,-1.24335752411627e+000

1.53482259092041e+005,-1.01002023456887e+001,-1.26064621223619e+000

1.55624791585964e+005,-1.01002304550555e+001,-1.27817366217591e+000

1.57797232718936e+005,-1.01002591889161e+001,-1.29594311720928e+000

1.59999999999999e+005,-1.01002885565432e+001,-1.31395786329853e+000

1.62233516766403e+005,-1.01003185670874e+001,-1.33222122965391e+000

1.64498212264969e+005,-1.01003492295590e+001,-1.35073658929819e+000

1.66794521734578e+005,-1.01003805528084e+001,-1.36950735964412e+000

1.69122886489819e+005,-1.01004125455051e+001,-1.38853700308038e+000

1.71483754005805e+005,-1.01004452161169e+001,-1.40782902756925e+000

1.73877578004168e+005,-1.01004785728868e+001,-1.42738698725549e+000

1.76304818540256e+005,-1.01005126238098e+001,-1.44721448308570e+000

1.78765942091554e+005,-1.01005473766080e+001,-1.46731516344186e+000

1.81261421647326e+005,-1.01005828387051e+001,-1.48769272478538e+000

1.83791736799524e+005,-1.01006190172001e+001,-1.50835091231363e+000

1.86357373834951e+005,-1.01006559188386e+001,-1.52929352063228e+000

1.88958825828723e+005,-1.01006935499850e+001,-1.55052439443938e+000

1.91596592739027e+005,-1.01007319165913e+001,-1.57204742922495e+000

1.94271181503206e+005,-1.01007710241673e+001,-1.59386657198417e+000

1.96983106135185e+005,-1.01008108777470e+001,-1.61598582194913e+000

1.99732887824256e+005,-1.01008514818564e+001,-1.63840923133063e+000

2.02521055035243e+005,-1.01008928404786e+001,-1.66114090608437e+000

2.05348143610063e+005,-1.01009349570179e+001,-1.68418500668686e+000

2.08214696870707e+005,-1.01009778342640e+001,-1.70754574893448e+000

2.11121265723661e+005,-1.01010214743532e+001,-1.73122740475774e+000

2.14068408765776e+005,-1.01010658787307e+001,-1.75523430305460e+000

2.17056692391625e+005,-1.01011110481098e+001,-1.77957083054670e+000

2.20086690902357e+005,-1.01011569824314e+001,-1.80424143265055e+000

2.23158986616063e+005,-1.01012036808226e+001,-1.82925061437342e+000

2.26274169979693e+005,-1.01012511415529e+001,-1.85460294122843e+000

2.29432839682530e+005,-1.01012993619912e+001,-1.88030304017412e+000

2.32635602771247e+005,-1.01013483385611e+001,-1.90635560057339e+000

2.35883074766574e+005,-1.01013980666951e+001,-1.93276537517841e+000

2.39175879781588e+005,-1.01014485407885e+001,-1.95953718113813e+000

2.42514650641661e+005,-1.01014997541528e+001,-1.98667590103069e+000

2.45900029006080e+005,-1.01015516989677e+001,-2.01418648392048e+000

2.49332665491357e+005,-1.01016043662328e+001,-2.04207394644186e+000

2.52813219796278e+005,-1.01016577457195e+001,-2.07034337390811e+000

2.56342360828676e+005,-1.01017118259212e+001,-2.09899992144756e+000

2.59920766833993e+005,-1.01017665940045e+001,-2.12804881516730e+000

2.63549125525621e+005,-1.01018220357587e+001,-2.15749535334455e+000

2.67228134217075e+005,-1.01018781355466e+001,-2.18734490764551e+000

2.70958499956006e+005,-1.01019348762541e+001,-2.21760292437549e+000

2.74740939660078e+005,-1.01019922392406e+001,-2.24827492575445e+000

2.78576180254757e+005,-1.01020502042888e+001,-2.27936651122611e+000

2.82464958813007e+005,-1.01021087495556e+001,-2.31088335879301e+000

2.86408022696948e+005,-1.01021678515228e+001,-2.34283122638558e+000

2.90406129701488e+005,-1.01022274849484e+001,-2.37521595325866e+000

2.94460048199957e+005,-1.01022876228186e+001,-2.40804346141937e+000

2.98570557291775e+005,-1.01023482363004e+001,-2.44131975708811e+000

3.02738446952187e+005,-1.01024092946955e+001,-2.47505093218542e+000

3.06964518184081e+005,-1.01024707653942e+001,-2.50924316585584e+000

3.11249583171928e+005,-1.01025326138318e+001,-2.54390272601646e+000

3.15594465437872e+005,-1.01025948034450e+001,-2.57903597094210e+000

3.19999999999997e+005,-1.01026572956302e+001,-2.61464935087589e+000

3.24467033532806e+005,-1.01027200497033e+001,-2.65074940967471e+000

3.28996424529938e+005,-1.01027830228612e+001,-2.68734278648126e+000

3.33589043469155e+005,-1.01028461701446e+001,-2.72443621742773e+000

3.38245772979638e+005,-1.01029094444031e+001,-2.76203653736885e+000

3.42967508011610e+005,-1.01029727962618e+001,-2.80015068164384e+000

3.47755156008335e+005,-1.01030361740905e+001,-2.83878568786532e+000

3.52609637080511e+005,-1.01030995239745e+001,-2.87794869773858e+000

3.57531884183106e+005,-1.01031627896880e+001,-2.91764695890603e+000

3.62522843294651e+005,-1.01032259126696e+001,-2.95788782681856e+000

3.67583473599047e+005,-1.01032888320004e+001,-2.99867876663276e+000

3.72714747669902e+005,-1.01033514843841e+001,-3.04002735513386e+000

3.77917651657445e+005,-1.01034138041302e+001,-3.08194128268168e+000

3.83193185478053e+005,-1.01034757231391e+001,-3.12442835517940e+000

3.88542363006410e+005,-1.01035371708902e+001,-3.16749649606583e+000

3.93966212270369e+005,-1.01035980744327e+001,-3.21115374832815e+000

3.99465775648511e+005,-1.01036583583781e+001,-3.25540827653582e+000

4.05042110070485e+005,-1.01037179448961e+001,-3.30026836889158e+000

4.10696287220124e+005,-1.01037767537128e+001,-3.34574243930387e+000

4.16429393741414e+005,-1.01038347021111e+001,-3.39183902947418e+000

4.22242531447321e+005,-1.01038917049337e+001,-3.43856681100166e+000

4.28136817531551e+005,-1.01039476745886e+001,-3.48593458750257e+000

4.34113384783250e+005,-1.01040025210560e+001,-3.53395129674472e+000

4.40173381804713e+005,-1.01040561518986e+001,-3.58262601279408e+000

4.46317973232124e+005,-1.01041084722729e+001,-3.63196794817537e+000

4.52548339959385e+005,-1.01041593849426e+001,-3.68198645604272e+000

4.58865679365059e+005,-1.01042087902937e+001,-3.73269103236235e+000

4.65271205542494e+005,-1.01042565863511e+001,-3.78409131810462e+000

4.71766149533147e+005,-1.01043026687967e+001,-3.83619710144496e+000

4.78351759563174e+005,-1.01043469309886e+001,-3.88901831997479e+000

4.85029301283321e+005,-1.01043892639804e+001,-3.94256506291994e+000

4.91800058012158e+005,-1.01044295565428e+001,-3.99684757336661e+000

4.98665330982714e+005,-1.01044676951840e+001,-4.05187625049485e+000

5.05626439592555e+005,-1.01045035641711e+001,-4.10766165182023e+000

5.12684721657352e+005,-1.01045370455519e+001,-4.16421449544137e+000

5.19841533667984e+005,-1.01045680191749e+001,-4.22154566229585e+000

5.27098251051240e+005,-1.01045963627106e+001,-4.27966619842175e+000

5.34456268434150e+005,-1.01046219516700e+001,-4.33858731722857e+000

5.41916999912011e+005,-1.01046446594238e+001,-4.39832040177432e+000

