Freq.,VOut,OutRef

1.00000000000000e+004,-1.10267672902371e+001,-3.07508186680866e-002

1.01395947979003e+004,-1.10267689089237e+001,-3.11798790453062e-002

1.02811382665607e+004,-1.10267705730840e+001,-3.16149201770210e-002

1.04246576084112e+004,-1.10267722839941e+001,-3.20560251851954e-002

1.05701804056138e+004,-1.10267740429669e+001,-3.25032783294713e-002

1.07177346253629e+004,-1.10267758513510e+001,-3.29567650347590e-002

1.08673486252606e+004,-1.10267777105329e+001,-3.34165719047192e-002

1.10190511587661e+004,-1.10267796219386e+001,-3.38827867254448e-002

1.11728713807222e+004,-1.10267815870336e+001,-3.43554984963503e-002

1.13288388529580e+004,-1.10267836073248e+001,-3.48347974357210e-002

1.14869835499703e+004,-1.10267856843616e+001,-3.53207750006996e-002

1.16473358646846e+004,-1.10267878197355e+001,-3.58135239120283e-002

1.18099266142953e+004,-1.10267900150837e+001,-3.63131381548686e-002

1.19747870461893e+004,-1.10267922720895e+001,-3.68197130028731e-002

1.21419488439505e+004,-1.10267945924815e+001,-3.73333450475868e-002

1.23114441334492e+004,-1.10267969780389e+001,-3.78541321895971e-002

1.24833054890161e+004,-1.10267994305898e+001,-3.83821736775864e-002

1.26575659397028e+004,-1.10268019520132e+001,-3.89175701187263e-002

1.28342589756290e+004,-1.10268045442404e+001,-3.94604234995514e-002

1.30134185544193e+004,-1.10268072092580e+001,-4.00108371928551e-002

1.31950791077289e+004,-1.10268099491078e+001,-4.05689159863630e-002

1.33792755478611e+004,-1.10268127658867e+001,-4.11347661115315e-002

1.35660432744767e+004,-1.10268156617539e+001,-4.17084952277369e-002

1.37554181813974e+004,-1.10268186389258e+001,-4.22902124809383e-002

1.39474366635040e+004,-1.10268216996820e+001,-4.28800284994323e-002

1.41421356237309e+004,-1.10268248463666e+001,-4.34780554122854e-002

1.43395524801583e+004,-1.10268280813875e+001,-4.40844068853743e-002

1.45397251732031e+004,-1.10268314072214e+001,-4.46991981215274e-002

1.47426921729110e+004,-1.10268348264140e+001,-4.53225458920230e-002

1.49484924863494e+004,-1.10268383415808e+001,-4.59545685605804e-002

1.51571656651040e+004,-1.10268419554124e+001,-4.65953860856046e-002

1.53687518128801e+004,-1.10268456706727e+001,-4.72451200625589e-002

1.55832915932100e+004,-1.10268494902034e+001,-4.79038937326421e-002

1.58008262372675e+004,-1.10268534169272e+001,-4.85718319923873e-002

1.60213975517924e+004,-1.10268574538453e+001,-4.92490614490678e-002

1.62450479271247e+004,-1.10268616040452e+001,-4.99357104031545e-002

1.64718203453514e+004,-1.10268658706994e+001,-5.06319088950876e-002

1.67017583885674e+004,-1.10268702570690e+001,-5.13377887190709e-002

1.69349062472505e+004,-1.10268747665062e+001,-5.20534834431217e-002

1.71713087287550e+004,-1.10268794024568e+001,-5.27791284327519e-002

1.74110112659224e+004,-1.10268841684625e+001,-5.35148608749519e-002

1.76540599258131e+004,-1.10268890681635e+001,-5.42608198008013e-002

1.79005014185594e+004,-1.10268941053022e+001,-5.50171461002239e-002

1.81503831063432e+004,-1.10268992837246e+001,-5.57839825572610e-002

1.84037530124975e+004,-1.10269046073836e+001,-5.65614738671589e-002

1.86606598307361e+004,-1.10269100803429e+001,-5.73497666557824e-002

1.89211529345119e+004,-1.10269157067788e+001,-5.81490095083723e-002

1.91852823865052e+004,-1.10269214909839e+001,-5.89593529928236e-002

1.94530989482457e+004,-1.10269274373707e+001,-5.97809496780305e-002

1.97246540898671e+004,-1.10269335504733e+001,-6.06139541698102e-002

1.99999999999999e+004,-1.10269398349532e+001,-6.14585231171241e-002

2.02791895958005e+004,-1.10269462956007e+001,-6.23148152520981e-002

2.05622765331213e+004,-1.10269529373388e+001,-6.31829914105159e-002

2.08493152168224e+004,-1.10269597652289e+001,-6.40632145451869e-002

2.11403608112276e+004,-1.10269667844706e+001,-6.49556497720466e-002

2.14354692507258e+004,-1.10269740004097e+001,-6.58604643735989e-002

2.17346972505211e+004,-1.10269814185401e+001,-6.67778278331529e-002

2.20381023175322e+004,-1.10269890445067e+001,-6.77079118673693e-002

2.23457427614443e+004,-1.10269968841126e+001,-6.86508904352659e-002

2.26576777059159e+004,-1.10270049433207e+001,-6.96069397776388e-002

2.29739670999406e+004,-1.10270132282595e+001,-7.05762384334204e-002

2.32946717293690e+004,-1.10270217452271e+001,-7.15589672704528e-002

2.36198532285905e+004,-1.10270305006966e+001,-7.25553095041275e-002

2.39495740923785e+004,-1.10270395013186e+001,-7.35654507382359e-002

2.42838976879009e+004,-1.10270487539293e+001,-7.45895789705335e-002

2.46228882668982e+004,-1.10270582655525e+001,-7.56278846357458e-002

2.49666109780322e+004,-1.10270680434078e+001,-7.66805606141398e-002

2.53151318794055e+004,-1.10270780949123e+001,-7.77478022788853e-002

2.56685179512580e+004,-1.10270884276893e+001,-7.88298074989738e-002

2.60268371088386e+004,-1.10270990495709e+001,-7.99267766869204e-002

2.63901582154578e+004,-1.10271099686070e+001,-8.10389128019850e-002

2.67585510957221e+004,-1.10271211930677e+001,-8.21664213979454e-002

2.71320865489533e+004,-1.10271327314520e+001,-8.33095106292301e-002

2.75108363627948e+004,-1.10271445924921e+001,-8.44683912936997e-002

2.78948733270080e+004,-1.10271567851608e+001,-8.56432768447351e-002

2.82842712474618e+004,-1.10271693186780e+001,-8.68343834193239e-002

2.86791049603164e+004,-1.10271822025156e+001,-8.80419298758415e-002

2.90794503464061e+004,-1.10271954464071e+001,-8.92661377981818e-002

2.94853843458219e+004,-1.10272090603517e+001,-9.05072315408205e-002

2.98969849726987e+004,-1.10272230546243e+001,-9.17654382340247e-002

3.03143313302078e+004,-1.10272374397799e+001,-9.30409878282255e-002

3.07375036257601e+004,-1.10272522266631e+001,-9.43341131053109e-002

3.11665831864199e+004,-1.10272674264156e+001,-9.56450497023347e-002

3.16016524745350e+004,-1.10272830504825e+001,-9.69740361476012e-002

3.20427951035848e+004,-1.10272991106230e+001,-9.83213138642161e-002

3.24900958542493e+004,-1.10273156189167e+001,-9.96871272097945e-002

3.29436406907028e+004,-1.10273325877717e+001,-1.01071723497185e-001

3.34035167771346e+004,-1.10273500299354e+001,-1.02475353005625e-001

3.38698124945009e+004,-1.10273679585017e+001,-1.03898269013017e-001

3.43426174575100e+004,-1.10273863869207e+001,-1.05340727812042e-001

3.48220225318448e+004,-1.10274053290080e+001,-1.06802988733863e-001

3.53081198516260e+004,-1.10274247989535e+001,-1.08285314168647e-001

3.58010028371187e+004,-1.10274448113336e+001,-1.09787969574412e-001

3.63007662126863e+004,-1.10274653811175e+001,-1.11311223515809e-001

3.68075060249948e+004,-1.10274865236811e+001,-1.12855347660327e-001

3.73213196614721e+004,-1.10275082548144e+001,-1.14420616816292e-001

3.78423058690237e+004,-1.10275305907355e+001,-1.16007308926975e-001

3.83705647730104e+004,-1.10275535480983e+001,-1.17615705107039e-001

3.89061978964912e+004,-1.10275771440062e+001,-1.19246089644000e-001

3.94493081797342e+004,-1.10276013960223e+001,-1.20898750018029e-001

3.99999999999998e+004,-1.10276263221816e+001,-1.22573976911564e-001

4.05583791916010e+004,-1.10276519410030e+001,-1.24272064223956e-001

4.11245530662425e+004,-1.10276782715020e+001,-1.25993309075555e-001

4.16986304336447e+004,-1.10277053332027e+001,-1.27738011823731e-001

4.22807216224550e+004,-1.10277331461508e+001,-1.29506476067574e-001

4.28709385014515e+004,-1.10277617309266e+001,-1.31299008657794e-001

4.34693945010421e+004,-1.10277911086591e+001,-1.33115919694977e-001

4.40762046350642e+004,-1.10278213010392e+001,-1.34957522537445e-001

4.46914855228886e+004,-1.10278523303338e+001,-1.36824133803037e-001

4.53153554118317e+004,-1.10278842194001e+001,-1.38716073369294e-001

4.59479341998812e+004,-1.10279169917001e+001,-1.40633664371115e-001

4.65893434587380e+004,-1.10279506713160e+001,-1.42577233197665e-001

4.72397064571810e+004,-1.10279852829648e+001,-1.44547109486374e-001

4.78991481847569e+004,-1.10280208520140e+001,-1.46543626117791e-001

4.85677953758016e+004,-1.10280574044976e+001,-1.48567119203025e-001

4.92457765337964e+004,-1.10280949671326e+001,-1.50617928071508e-001

4.99332219560642e+004,-1.10281335673340e+001,-1.52696395263494e-001

5.06302637588109e+004,-1.10281732332340e+001,-1.54802866499625e-001

5.13370359025159e+004,-1.10282139936965e+001,-1.56937690678542e-001

5.20536742176771e+004,-1.10282558783362e+001,-1.59101219842228e-001

5.27803164309155e+004,-1.10282989175356e+001,-1.61293809156683e-001

5.35171021914442e+004,-1.10283431424638e+001,-1.63515816879781e-001

5.42641730979066e+004,-1.10283885850934e+001,-1.65767604336931e-001

5.50216727255895e+004,-1.10284352782208e+001,-1.68049535880118e-001

5.57897466540159e+004,-1.10284832554837e+001,-1.70361978858363e-001

5.65685424949235e+004,-1.10285325513820e+001,-1.72705303563327e-001

5.73582099206328e+004,-1.10285832012953e+001,-1.75079883202744e-001

5.81589006928121e+004,-1.10286352415050e+001,-1.77486093833098e-001

5.89707686916437e+004,-1.10286887092130e+001,-1.79924314321514e-001

5.97939699453972e+004,-1.10287436425624e+001,-1.82394926282045e-001

6.06286626604156e+004,-1.10288000806588e+001,-1.84898314014525e-001

6.14750072515201e+004,-1.10288580635913e+001,-1.87434864439814e-001

6.23331663728396e+004,-1.10289176324526e+001,-1.90004967035599e-001

6.32033049490698e+004,-1.10289788293626e+001,-1.92609013748370e-001

6.40855902071694e+004,-1.10290416974882e+001,-1.95247398926785e-001

6.49801917084985e+004,-1.10291062810671e+001,-1.97920519227625e-001

6.58872813814055e+004,-1.10291726254286e+001,-2.00628773529036e-001

6.68070335542691e+004,-1.10292407770177e+001,-2.03372562830777e-001

6.77396249890018e+004,-1.10293107834159e+001,-2.06152290158009e-001

6.86852349150199e+004,-1.10293826933662e+001,-2.08968360445524e-001

6.96440450636895e+004,-1.10294565567948e+001,-2.11821180427061e-001

7.06162397032520e+004,-1.10295324248344e+001,-2.14711158516480e-001

7.16020056742374e+004,-1.10296103498480e+001,-2.17638704676439e-001

7.26015324253724e+004,-1.10296903854530e+001,-2.20604230280589e-001

7.36150120499896e+004,-1.10297725865433e+001,-2.23608147980551e-001

7.46426393229441e+004,-1.10298570093134e+001,-2.26650871553206e-001

7.56846117380472e+004,-1.10299437112833e+001,-2.29732815735798e-001

7.67411295460207e+004,-1.10300327513201e+001,-2.32854396075566e-001

7.78123957929823e+004,-1.10301241896636e+001,-2.36016028742060e-001

7.88986163594682e+004,-1.10302180879487e+001,-2.39218130355832e-001

7.99999999999995e+004,-1.10303145092289e+001,-2.42461117796306e-001

8.11167583832018e+004,-1.10304135180004e+001,-2.45745407998415e-001

8.22491061324848e+004,-1.10305151802244e+001,-2.49071417751497e-001

8.33972608672892e+004,-1.10306195633509e+001,-2.52439563474988e-001

8.45614432449099e+004,-1.10307267363403e+001,-2.55850260998173e-001

8.57418770029029e+004,-1.10308367696874e+001,-2.59303925313125e-001

8.69387890020841e+004,-1.10309497354412e+001,-2.62800970342077e-001

8.81524092701283e+004,-1.10310657072290e+001,-2.66341808662831e-001

8.93829710457770e+004,-1.10311847602748e+001,-2.69926851257133e-001

9.06307108236633e+004,-1.10313069714229e+001,-2.73556507215045e-001

9.18958683997622e+004,-1.10314324191548e+001,-2.77231183459678e-001

9.31786869174758e+004,-1.10315611836106e+001,-2.80951284434172e-001

9.44794129143618e+004,-1.10316933466068e+001,-2.84717211793951e-001

9.57982963695136e+004,-1.10318289916542e+001,-2.88529364076522e-001

9.71355907516031e+004,-1.10319682039740e+001,-2.92388136371959e-001

9.84915530675926e+004,-1.10321110705151e+001,-2.96293919961762e-001

9.98664439121282e+004,-1.10322576799672e+001,-3.00247101968593e-001

1.01260527517622e+005,-1.10324081227755e+001,-3.04248064971641e-001

1.02674071805032e+005,-1.10325624911527e+001,-3.08297186622661e-001

1.04107348435354e+005,-1.10327208790902e+001,-3.12394839243895e-001

1.05560632861831e+005,-1.10328833823667e+001,-3.16541389417054e-001

1.07034204382888e+005,-1.10330500985572e+001,-3.20737197552375e-001

1.08528346195813e+005,-1.10332211270390e+001,-3.24982617446606e-001

1.10043345451179e+005,-1.10333965689957e+001,-3.29277995833221e-001

1.11579493308032e+005,-1.10335765274199e+001,-3.33623671911587e-001

1.13137084989847e+005,-1.10337611071143e+001,-3.38019976863380e-001

1.14716419841265e+005,-1.10339504146883e+001,-3.42467233365554e-001

1.16317801385624e+005,-1.10341445585558e+001,-3.46965755072127e-001

1.17941537383287e+005,-1.10343436489278e+001,-3.51515846096427e-001

1.19587939890794e+005,-1.10345477978027e+001,-3.56117800479849e-001

1.21257325320831e+005,-1.10347571189556e+001,-3.60771901633654e-001

1.22950014503040e+005,-1.10349717279219e+001,-3.65478421789543e-001

1.24666332745679e+005,-1.10351917419813e+001,-3.70237621413060e-001

1.26406609898139e+005,-1.10354172801346e+001,-3.75049748625455e-001

1.28171180414339e+005,-1.10356484630801e+001,-3.79915038603851e-001

1.29960383416997e+005,-1.10358854131856e+001,-3.84833712965769e-001

1.31774562762811e+005,-1.10361282544559e+001,-3.89805979149889e-001

1.33614067108538e+005,-1.10363771124971e+001,-3.94832029785106e-001

1.35479249978003e+005,-1.10366321144760e+001,-3.99912042045333e-001

1.37370469830040e+005,-1.10368933890770e+001,-4.05046176995616e-001

1.39288090127379e+005,-1.10371610664519e+001,-4.10234578932154e-001

1.41232479406504e+005,-1.10374352781664e+001,-4.15477374716346e-001

1.43204011348474e+005,-1.10377161571426e+001,-4.20774673090516e-001

1.45203064850745e+005,-1.10380038375944e+001,-4.26126564000942e-001

1.47230024099979e+005,-1.10382984549592e+001,-4.31533117906561e-001

1.49285278645888e+005,-1.10386001458233e+001,-4.36994385088284e-001

1.51369223476094e+005,-1.10389090478415e+001,-4.42510394955155e-001

1.53482259092041e+005,-1.10392252996521e+001,-4.48081155344687e-001

1.55624791585964e+005,-1.10395490407844e+001,-4.53706651827979e-001

1.57797232718936e+005,-1.10398804115603e+001,-4.59386847016252e-001

1.59999999999999e+005,-1.10402195529902e+001,-4.65121679866387e-001

1.62233516766403e+005,-1.10405666066612e+001,-4.70911064995400e-001

1.64498212264969e+005,-1.10409217146196e+001,-4.76754892001295e-001

1.66794521734578e+005,-1.10412850192457e+001,-4.82653024788239e-001

1.69122886489819e+005,-1.10416566631217e+001,-4.88605300908570e-001

1.71483754005805e+005,-1.10420367888920e+001,-4.94611530917630e-001

1.73877578004168e+005,-1.10424255391176e+001,-5.00671497734233e-001

1.76304818540256e+005,-1.10428230561207e+001,-5.06784956033862e-001

1.78765942091554e+005,-1.10432294818232e+001,-5.12951631651249e-001

1.81261421647326e+005,-1.10436449575776e+001,-5.19171221008939e-001

1.83791736799524e+005,-1.10440696239885e+001,-5.25443390577022e-001

1.86357373834951e+005,-1.10445036207288e+001,-5.31767776350233e-001

1.88958825828723e+005,-1.10449470863450e+001,-5.38143983370823e-001

1.91596592739027e+005,-1.10454001580572e+001,-5.44571585275129e-001

1.94271181503206e+005,-1.10458629715498e+001,-5.51050123883943e-001

1.96983106135185e+005,-1.10463356607540e+001,-5.57579108836185e-001

1.99732887824256e+005,-1.10468183576234e+001,-5.64158017263778e-001

2.02521055035243e+005,-1.10473111919020e+001,-5.70786293512624e-001

2.05348143610063e+005,-1.10478142908826e+001,-5.77463348930026e-001

2.08214696870707e+005,-1.10483277791605e+001,-5.84188561687690e-001

2.11121265723661e+005,-1.10488517783776e+001,-5.90961276681531e-001

2.14068408765776e+005,-1.10493864069602e+001,-5.97780805488772e-001

2.17056692391625e+005,-1.10499317798506e+001,-6.04646426388995e-001

2.20086690902357e+005,-1.10504880082306e+001,-6.11557384464841e-001

2.23158986616063e+005,-1.10510551992403e+001,-6.18512891770716e-001

2.26274169979693e+005,-1.10516334556904e+001,-6.25512127585009e-001

2.29432839682530e+005,-1.10522228757683e+001,-6.32554238744842e-001

2.32635602771247e+005,-1.10528235527409e+001,-6.39638340065341e-001

2.35883074766574e+005,-1.10534355746509e+001,-6.46763514853736e-001

2.39175879781588e+005,-1.10540590240111e+001,-6.53928815514471e-001

2.42514650641661e+005,-1.10546939774943e+001,-6.61133264253400e-001

2.45900029006080e+005,-1.10553405056201e+001,-6.68375853885102e-001

2.49332665491357e+005,-1.10559986724409e+001,-6.75655548743697e-001

2.52813219796278e+005,-1.10566685352261e+001,-6.82971285699118e-001

2.56342360828676e+005,-1.10573501441453e+001,-6.90321975290695e-001

2.59920766833993e+005,-1.10580435419530e+001,-6.97706502968883e-001

2.63549125525621e+005,-1.10587487636732e+001,-7.05123730454595e-001

2.67228134217075e+005,-1.10594658362877e+001,-7.12572497218080e-001

2.70958499956006e+005,-1.10601947784267e+001,-7.20051622073640e-001

2.74740939660078e+005,-1.10609356000631e+001,-7.27559904905212e-001

2.78576180254757e+005,-1.10616883022133e+001,-7.35096128503013e-001

2.82464958813007e+005,-1.10624528766429e+001,-7.42659060534744e-001

2.86408022696948e+005,-1.10632293055815e+001,-7.50247455629722e-001

2.90406129701488e+005,-1.10640175614446e+001,-7.57860057597372e-001

2.94460048199957e+005,-1.10648176065656e+001,-7.65495601762712e-001

2.98570557291775e+005,-1.10656293929391e+001,-7.73152817425142e-001

3.02738446952187e+005,-1.10664528619769e+001,-7.80830430436453e-001

3.06964518184081e+005,-1.10672879442753e+001,-7.88527165903400e-001

3.11249583171928e+005,-1.10681345593997e+001,-7.96241750995784e-001

3.15594465437872e+005,-1.10689926156828e+001,-8.03972917878058e-001

3.19999999999997e+005,-1.10698620100416e+001,-8.11719406738343e-001

3.24467033532806e+005,-1.10707426278110e+001,-8.19479968932375e-001

3.28996424529938e+005,-1.10716343425981e+001,-8.27253370218498e-001

3.33589043469155e+005,-1.10725370161565e+001,-8.35038394090386e-001

3.38245772979638e+005,-1.10734504982827e+001,-8.42833845194939e-001

3.42967508011610e+005,-1.10743746267348e+001,-8.50638552831326e-001

3.47755156008335e+005,-1.10753092271753e+001,-8.58451374523137e-001

3.52609637080511e+005,-1.10762541131391e+001,-8.66271199654031e-001

3.57531884183106e+005,-1.10772090860259e+001,-8.74096953163172e-001

3.62522843294651e+005,-1.10781739351212e+001,-8.81927599280963e-001

3.67583473599047e+005,-1.10791484376425e+001,-8.89762145310785e-001

3.72714747669902e+005,-1.10801323588145e+001,-8.97599645433085e-001

3.77917651657445e+005,-1.10811254519730e+001,-9.05439204526738e-001

3.83193185478053e+005,-1.10821274586974e+001,-9.13279981996601e-001

3.88542363006410e+005,-1.10831381089728e+001,-9.21121195595504e-001

3.93966212270369e+005,-1.10841571213812e+001,-9.28962125233026e-001

3.99465775648511e+005,-1.10851842033232e+001,-9.36802116748046e-001

4.05042110070485e+005,-1.10862190512688e+001,-9.44640585647248e-001

4.10696287220124e+005,-1.10872613510384e+001,-9.52477020786833e-001

4.16429393741414e+005,-1.10883107781128e+001,-9.60310987989570e-001

4.22242531447321e+005,-1.10893669979726e+001,-9.68142133583863e-001

4.28136817531551e+005,-1.10904296664656e+001,-9.75970187854490e-001

4.34113384783250e+005,-1.10914984302022e+001,-9.83794968389676e-001

4.40173381804713e+005,-1.10925729269788e+001,-9.91616383312855e-001

4.46317973232124e+005,-1.10936527862259e+001,-9.99434434393314e-001

4.52548339959385e+005,-1.10947376294824e+001,-1.00724922001531e+000

4.58865679365059e+005,-1.10958270708936e+001,-1.01506093800127e+000

4.65271205542494e+005,-1.10969207177319e+001,-1.02286988827771e+000

4.71766149533147e+005,-1.10980181709385e+001,-1.03067647537153e+000

4.78351759563174e+005,-1.10991190256854e+001,-1.03848121072995e+000

4.85029301283321e+005,-1.11002228719552e+001,-1.04628471485269e+000

4.91800058012158e+005,-1.11013292951373e+001,-1.05408771923401e+000

4.98665330982714e+005,-1.11024378766388e+001,-1.06189106809978e+000

5.05626439592555e+005,-1.11035481945084e+001,-1.06969571993934e+000

5.12684721657352e+005,-1.11046598240704e+001,-1.07750274882584e+000

5.19841533667984e+005,-1.11057723385681e+001,-1.08531334551758e+000

5.27098251051240e+005,-1.11068853098133e+001,-1.09312881833973e+000

5.34456268434150e+005,-1.11079983088411e+001,-1.10095059384311e+000

5.41916999912011e+005,-1.11091109065662e+001,-1.10878021723827e+000

