Freq.,VOut,OutRef

1.00000000000000e+004,-1.04798240329198e+000,-1.72780202013997e-001

1.01395947979003e+004,-1.04798231161982e+000,-1.75192125811310e-001

1.02811382665607e+004,-1.04798221737071e+000,-1.77637718897189e-001

1.04246576084112e+004,-1.04798212047221e+000,-1.80117451280806e-001

1.05701804056138e+004,-1.04798202084960e+000,-1.82631799534385e-001

1.07177346253629e+004,-1.04798191842662e+000,-1.85181246879713e-001

1.08673486252606e+004,-1.04798181312425e+000,-1.87766283287995e-001

1.10190511587661e+004,-1.04798170486178e+000,-1.90387405566816e-001

1.11728713807222e+004,-1.04798159355597e+000,-1.93045117461089e-001

1.13288388529580e+004,-1.04798147912124e+000,-1.95739929747965e-001

1.14869835499703e+004,-1.04798136146963e+000,-1.98472360334297e-001

1.16473358646846e+004,-1.04798124051070e+000,-2.01242934357382e-001

1.18099266142953e+004,-1.04798111615160e+000,-2.04052184284533e-001

1.19747870461893e+004,-1.04798098829661e+000,-2.06900650017872e-001

1.21419488439505e+004,-1.04798085684756e+000,-2.09788878994814e-001

1.23114441334492e+004,-1.04798072170337e+000,-2.12717426296114e-001

1.24833054890161e+004,-1.04798058276030e+000,-2.15686854750210e-001

1.26575659397028e+004,-1.04798043991149e+000,-2.18697735043830e-001

1.28342589756290e+004,-1.04798029304717e+000,-2.21750645830032e-001

1.30134185544193e+004,-1.04798014205444e+000,-2.24846173840250e-001

1.31950791077289e+004,-1.04797998681736e+000,-2.27984913995342e-001

1.33792755478611e+004,-1.04797982721653e+000,-2.31167469522870e-001

1.35660432744767e+004,-1.04797966312947e+000,-2.34394452070214e-001

1.37554181813974e+004,-1.04797949442981e+000,-2.37666481825334e-001

1.39474366635040e+004,-1.04797932098823e+000,-2.40984187630979e-001

1.41421356237309e+004,-1.04797914267119e+000,-2.44348207111720e-001

1.43395524801583e+004,-1.04797895934191e+000,-2.47759186790654e-001

1.45397251732031e+004,-1.04797877085922e+000,-2.51217782219425e-001

1.47426921729110e+004,-1.04797857707867e+000,-2.54724658097526e-001

1.49484924863494e+004,-1.04797837785100e+000,-2.58280488407968e-001

1.51571656651040e+004,-1.04797817302339e+000,-2.61885956538947e-001

1.53687518128801e+004,-1.04797796243830e+000,-2.65541755421502e-001

1.55832915932100e+004,-1.04797774593400e+000,-2.69248587658613e-001

1.58008262372675e+004,-1.04797752334411e+000,-2.73007165662667e-001

1.60213975517924e+004,-1.04797729449758e+000,-2.76818211790684e-001

1.62450479271247e+004,-1.04797705921871e+000,-2.80682458484213e-001

1.64718203453514e+004,-1.04797681732666e+000,-2.84600648410336e-001

1.67017583885674e+004,-1.04797656863553e+000,-2.88573534604118e-001

1.69349062472505e+004,-1.04797631295435e+000,-2.92601880612256e-001

1.71713087287550e+004,-1.04797605008664e+000,-2.96686460641935e-001

1.74110112659224e+004,-1.04797577983051e+000,-3.00828059707604e-001

1.76540599258131e+004,-1.04797550197826e+000,-3.05027473783845e-001

1.79005014185594e+004,-1.04797521631653e+000,-3.09285509956314e-001

1.81503831063432e+004,-1.04797492262577e+000,-3.13602986579025e-001

1.84037530124975e+004,-1.04797462068041e+000,-3.17980733430204e-001

1.86606598307361e+004,-1.04797431024856e+000,-3.22419591871494e-001

1.89211529345119e+004,-1.04797399109169e+000,-3.26920415011464e-001

1.91852823865052e+004,-1.04797366296475e+000,-3.31484067867699e-001

1.94530989482457e+004,-1.04797332561559e+000,-3.36111427534982e-001

1.97246540898671e+004,-1.04797297878518e+000,-3.40803383351486e-001

1.99999999999999e+004,-1.04797262220709e+000,-3.45560837072774e-001

2.02791895958005e+004,-1.04797225560739e+000,-3.50384703042688e-001

2.05622765331213e+004,-1.04797187870465e+000,-3.55275908369358e-001

2.08493152168224e+004,-1.04797149120931e+000,-3.60235393105341e-001

2.11403608112276e+004,-1.04797109282379e+000,-3.65264110426209e-001

2.14354692507258e+004,-1.04797068324219e+000,-3.70363026815134e-001

2.17346972505211e+004,-1.04797026214992e+000,-3.75533122247861e-001

2.20381023175322e+004,-1.04796982922360e+000,-3.80775390382052e-001

2.23457427614443e+004,-1.04796938413085e+000,-3.86090838746924e-001

2.26576777059159e+004,-1.04796892652986e+000,-3.91480488938695e-001

2.29739670999406e+004,-1.04796845606922e+000,-3.96945376815953e-001

2.32946717293690e+004,-1.04796797238783e+000,-4.02486552698267e-001

2.36198532285905e+004,-1.04796747511419e+000,-4.08105081569967e-001

2.39495740923785e+004,-1.04796696386655e+000,-4.13802043283108e-001

2.42838976879009e+004,-1.04796643825243e+000,-4.19578532765666e-001

2.46228882668982e+004,-1.04796589786825e+000,-4.25435660233096e-001

2.49666109780322e+004,-1.04796534229918e+000,-4.31374551400290e-001

2.53151318794055e+004,-1.04796477111878e+000,-4.37396347698358e-001

2.56685179512580e+004,-1.04796418388855e+000,-4.43502206495371e-001

2.60268371088386e+004,-1.04796358015777e+000,-4.49693301316931e-001

2.63901582154578e+004,-1.04796295946309e+000,-4.55970822073378e-001

2.67585510957221e+004,-1.04796232132802e+000,-4.62335975288437e-001

2.71320865489533e+004,-1.04796166526280e+000,-4.68789984330646e-001

2.75108363627948e+004,-1.04796099076404e+000,-4.75334089648194e-001

2.78948733270080e+004,-1.04796029731396e+000,-4.81969549009645e-001

2.82842712474618e+004,-1.04795958438060e+000,-4.88697637742502e-001

2.86791049603164e+004,-1.04795885141675e+000,-4.95519648981963e-001

2.90794503464061e+004,-1.04795809786007e+000,-5.02436893916782e-001

2.94853843458219e+004,-1.04795732313238e+000,-5.09450702043302e-001

2.98969849726987e+004,-1.04795652663930e+000,-5.16562421419969e-001

3.03143313302078e+004,-1.04795570776982e+000,-5.23773418927028e-001

3.07375036257601e+004,-1.04795486589566e+000,-5.31085080530375e-001

3.11665831864199e+004,-1.04795400037115e+000,-5.38498811545879e-001

3.16016524745350e+004,-1.04795311053231e+000,-5.46016036912340e-001

3.20427951035848e+004,-1.04795219569667e+000,-5.53638201463441e-001

3.24900958542493e+004,-1.04795125516266e+000,-5.61366770206333e-001

3.29436406907028e+004,-1.04795028820892e+000,-5.69203228604574e-001

3.34035167771346e+004,-1.04794929409401e+000,-5.77149082861776e-001

3.38698124945009e+004,-1.04794827205566e+000,-5.85205860213287e-001

3.43426174575100e+004,-1.04794722131025e+000,-5.93375109218609e-001

3.48220225318448e+004,-1.04794614105212e+000,-6.01658400060275e-001

3.53081198516260e+004,-1.04794503045329e+000,-6.10057324844797e-001

3.58010028371187e+004,-1.04794388866229e+000,-6.18573497910703e-001

3.63007662126863e+004,-1.04794271480405e+000,-6.27208556136911e-001

3.68075060249948e+004,-1.04794150797878e+000,-6.35964159260146e-001

3.73213196614721e+004,-1.04794026726179e+000,-6.44841990191214e-001

3.78423058690237e+004,-1.04793899170213e+000,-6.53843755342651e-001

3.83705647730104e+004,-1.04793768032257e+000,-6.62971184952791e-001

3.89061978964912e+004,-1.04793633211835e+000,-6.72226033422559e-001

3.94493081797342e+004,-1.04793494605658e+000,-6.81610079650609e-001

3.99999999999998e+004,-1.04793352107563e+000,-6.91125127375922e-001

4.05583791916010e+004,-1.04793205608395e+000,-7.00773005526641e-001

4.11245530662425e+004,-1.04793054995967e+000,-7.10555568569622e-001

4.16986304336447e+004,-1.04792900154940e+000,-7.20474696868905e-001

4.22807216224550e+004,-1.04792740966753e+000,-7.30532297047544e-001

4.28709385014515e+004,-1.04792577309520e+000,-7.40730302354129e-001

4.34693945010421e+004,-1.04792409057977e+000,-7.51070673034067e-001

4.40762046350642e+004,-1.04792236083329e+000,-7.61555396708894e-001

4.46914855228886e+004,-1.04792058253194e+000,-7.72186488757247e-001

4.53153554118317e+004,-1.04791875431489e+000,-7.82965992703596e-001

4.59479341998812e+004,-1.04791687478322e+000,-7.93895980611554e-001

4.65893434587380e+004,-1.04791494249904e+000,-8.04978553482208e-001

4.72397064571810e+004,-1.04791295598433e+000,-8.16215841658796e-001

4.78991481847569e+004,-1.04791091371961e+000,-8.27610005238182e-001

4.85677953758016e+004,-1.04790881414307e+000,-8.39163234484950e-001

4.92457765337964e+004,-1.04790665564944e+000,-8.50877750253496e-001

4.99332219560642e+004,-1.04790443658845e+000,-8.62755804416903e-001

5.06302637588109e+004,-1.04790215526384e+000,-8.74799680299514e-001

5.13370359025159e+004,-1.04789980993211e+000,-8.87011693116408e-001

5.20536742176771e+004,-1.04789739880104e+000,-8.99394190420321e-001

5.27803164309155e+004,-1.04789492002841e+000,-9.11949552553034e-001

5.35171021914442e+004,-1.04789237172076e+000,-9.24680193104054e-001

5.42641730979066e+004,-1.04788975193170e+000,-9.37588559375681e-001

5.50216727255895e+004,-1.04788705866073e+000,-9.50677132854129e-001

5.57897466540159e+004,-1.04788428985151e+000,-9.63948429687880e-001

5.65685424949235e+004,-1.04788144339049e+000,-9.77405001172387e-001

5.73582099206328e+004,-1.04787851710525e+000,-9.91049434241098e-001

5.81589006928121e+004,-1.04787550876289e+000,-1.00488435196480e+000

5.89707686916437e+004,-1.04787241606824e+000,-1.01891241405703e+000

5.97939699453972e+004,-1.04786923666250e+000,-1.03313631738505e+000

6.06286626604156e+004,-1.04786596812098e+000,-1.04755879649250e+000

6.14750072515201e+004,-1.04786260795184e+000,-1.06218262412290e+000

6.23331663728396e+004,-1.04785915359371e+000,-1.07701061175758e+000

6.32033049490698e+004,-1.04785560241422e+000,-1.09204561015449e+000

6.40855902071694e+004,-1.04785195170763e+000,-1.10729050990066e+000

6.49801917084985e+004,-1.04784819869331e+000,-1.12274824196696e+000

6.58872813814055e+004,-1.04784434051315e+000,-1.13842177827526e+000

6.68070335542691e+004,-1.04784037422988e+000,-1.15431413226973e+000

6.77396249890018e+004,-1.04783629682458e+000,-1.17042835949948e+000

6.86852349150199e+004,-1.04783210519478e+000,-1.18676755820664e+000

6.96440450636895e+004,-1.04782779615170e+000,-1.20333486992491e+000

7.06162397032520e+004,-1.04782336641840e+000,-1.22013348008453e+000

7.16020056742374e+004,-1.04781881262688e+000,-1.23716661862804e+000

7.26015324253724e+004,-1.04781413131611e+000,-1.25443756063142e+000

7.36150120499896e+004,-1.04780931892893e+000,-1.27194962693907e+000

7.46426393229441e+004,-1.04780437180993e+000,-1.28970618480075e+000

7.56846117380472e+004,-1.04779928620247e+000,-1.30771064852484e+000

7.67411295460207e+004,-1.04779405824595e+000,-1.32596648013519e+000

7.78123957929823e+004,-1.04778868397307e+000,-1.34447719004035e+000

7.88986163594682e+004,-1.04778315930690e+000,-1.36324633771058e+000

7.99999999999995e+004,-1.04777748005781e+000,-1.38227753236533e+000

8.11167583832018e+004,-1.04777164192052e+000,-1.40157443367042e+000

8.22491061324848e+004,-1.04776564047099e+000,-1.42114075244365e+000

8.33972608672892e+004,-1.04775947116301e+000,-1.44098025137250e+000

8.45614432449099e+004,-1.04775312932500e+000,-1.46109674574106e+000

8.57418770029029e+004,-1.04774661015665e+000,-1.48149410416539e+000

8.69387890020841e+004,-1.04773990872548e+000,-1.50217624934221e+000

8.81524092701283e+004,-1.04773301996297e+000,-1.52314715880706e+000

8.93829710457770e+004,-1.04772593866133e+000,-1.54441086570135e+000

9.06307108236633e+004,-1.04771865946936e+000,-1.56597145955317e+000

9.18958683997622e+004,-1.04771117688874e+000,-1.58783308706735e+000

9.31786869174758e+004,-1.04770348527018e+000,-1.60999995292626e+000

9.44794129143618e+004,-1.04769557880903e+000,-1.63247632060390e+000

9.57982963695136e+004,-1.04768745154143e+000,-1.65526651318931e+000

9.71355907516031e+004,-1.04767909733991e+000,-1.67837491422262e+000

9.84915530675926e+004,-1.04767050990883e+000,-1.70180596854345e+000

9.98664439121282e+004,-1.04766168278029e+000,-1.72556418314947e+000

1.01260527517622e+005,-1.04765260930896e+000,-1.74965412806990e+000

1.02674071805032e+005,-1.04764328266780e+000,-1.77408043724795e+000

1.04107348435354e+005,-1.04763369584293e+000,-1.79884780943884e+000

1.05560632861831e+005,-1.04762384162885e+000,-1.82396100911823e+000

1.07034204382888e+005,-1.04761371262304e+000,-1.84942486740511e+000

1.08528346195813e+005,-1.04760330122091e+000,-1.87524428299653e+000

1.10043345451179e+005,-1.04759259961041e+000,-1.90142422311605e+000

1.11579493308032e+005,-1.04758159976644e+000,-1.92796972447587e+000

1.13137084989847e+005,-1.04757029344526e+000,-1.95488589425183e+000

1.14716419841265e+005,-1.04755867217854e+000,-1.98217791107312e+000

1.16317801385624e+005,-1.04754672726758e+000,-2.00985102602552e+000

1.17941537383287e+005,-1.04753444977703e+000,-2.03791056366796e+000

1.19587939890794e+005,-1.04752183052885e+000,-2.06636192306499e+000

1.21257325320831e+005,-1.04750886009560e+000,-2.09521057883339e+000

1.22950014503040e+005,-1.04749552879412e+000,-2.12446208220266e+000

1.24666332745679e+005,-1.04748182667856e+000,-2.15412206209184e+000

1.26406609898139e+005,-1.04746774353363e+000,-2.18419622620032e+000

1.28171180414339e+005,-1.04745326886734e+000,-2.21469036211549e+000

1.29960383416997e+005,-1.04743839190387e+000,-2.24561033843420e+000

1.31774562762811e+005,-1.04742310157590e+000,-2.27696210590260e+000

1.33614067108538e+005,-1.04740738651723e+000,-2.30875169856913e+000

1.35479249978003e+005,-1.04739123505469e+000,-2.34098523495650e+000

1.37370469830040e+005,-1.04737463520020e+000,-2.37366891924883e+000

1.39288090127379e+005,-1.04735757464246e+000,-2.40680904249584e+000

1.41232479406504e+005,-1.04734004073858e+000,-2.44041198383402e+000

1.43204011348474e+005,-1.04732202050531e+000,-2.47448421172557e+000

1.45203064850745e+005,-1.04730350061008e+000,-2.50903228521464e+000

1.47230024099979e+005,-1.04728446736216e+000,-2.54406285520046e+000

1.49285278645888e+005,-1.04726490670293e+000,-2.57958266573043e+000

1.51369223476094e+005,-1.04724480419662e+000,-2.61559855530939e+000

1.53482259092041e+005,-1.04722414502019e+000,-2.65211745822926e+000

1.55624791585964e+005,-1.04720291395341e+000,-2.68914640591635e+000

1.57797232718936e+005,-1.04718109536850e+000,-2.72669252829794e+000

1.59999999999999e+005,-1.04715867321956e+000,-2.76476305518851e+000

1.62233516766403e+005,-1.04713563103146e+000,-2.80336531769574e+000

1.64498212264969e+005,-1.04711195188898e+000,-2.84250674964550e+000

1.66794521734578e+005,-1.04708761842519e+000,-2.88219488902858e+000

1.69122886489819e+005,-1.04706261280968e+000,-2.92243737946656e+000

1.71483754005805e+005,-1.04703691673668e+000,-2.96324197169841e+000

1.73877578004168e+005,-1.04701051141256e+000,-3.00461652508976e+000

1.76304818540256e+005,-1.04698337754316e+000,-3.04656900916149e+000

1.78765942091554e+005,-1.04695549532089e+000,-3.08910750514154e+000

1.81261421647326e+005,-1.04692684441126e+000,-3.13224020753754e+000

1.83791736799524e+005,-1.04689740393924e+000,-3.17597542573310e+000

1.86357373834951e+005,-1.04686715247528e+000,-3.22032158560492e+000

1.88958825828723e+005,-1.04683606802068e+000,-3.26528723116495e+000

1.91596592739027e+005,-1.04680412799305e+000,-3.31088102622374e+000

1.94271181503206e+005,-1.04677130921085e+000,-3.35711175607895e+000

1.96983106135185e+005,-1.04673758787804e+000,-3.40398832922670e+000

1.99732887824256e+005,-1.04670293956779e+000,-3.45151977909830e+000

2.02521055035243e+005,-1.04666733920622e+000,-3.49971526582084e+000

2.05348143610063e+005,-1.04663076105554e+000,-3.54858407800227e+000

2.08214696870707e+005,-1.04659317869646e+000,-3.59813563454349e+000

2.11121265723661e+005,-1.04655456501056e+000,-3.64837948647465e+000

2.14068408765776e+005,-1.04651489216193e+000,-3.69932531881812e+000

2.17056692391625e+005,-1.04647413157833e+000,-3.75098295247795e+000

2.20086690902357e+005,-1.04643225393183e+000,-3.80336234615617e+000

2.23158986616063e+005,-1.04638922911900e+000,-3.85647359829609e+000

2.26274169979693e+005,-1.04634502624045e+000,-3.91032694905375e+000

2.29432839682530e+005,-1.04629961357973e+000,-3.96493278229736e+000

2.32635602771247e+005,-1.04625295858192e+000,-4.02030162763423e+000

2.35883074766574e+005,-1.04620502783125e+000,-4.07644416246844e+000

2.39175879781588e+005,-1.04615578702838e+000,-4.13337121408638e+000

2.42514650641661e+005,-1.04610520096689e+000,-4.19109376177240e+000

2.45900029006080e+005,-1.04605323350906e+000,-4.24962293895539e+000

2.49332665491357e+005,-1.04599984756097e+000,-4.30897003538550e+000

2.52813219796278e+005,-1.04594500504715e+000,-4.36914649934157e+000

2.56342360828676e+005,-1.04588866688398e+000,-4.43016393987189e+000

2.59920766833993e+005,-1.04583079295278e+000,-4.49203412906491e+000

2.63549125525621e+005,-1.04577134207187e+000,-4.55476900435468e+000

2.67228134217075e+005,-1.04571027196784e+000,-4.61838067085830e+000

2.70958499956006e+005,-1.04564753924603e+000,-4.68288140374726e+000

2.74740939660078e+005,-1.04558309936012e+000,-4.74828365065360e+000

2.78576180254757e+005,-1.04551690658084e+000,-4.81460003410980e+000

2.82464958813007e+005,-1.04544891396360e+000,-4.88184335402574e+000

2.86408022696948e+005,-1.04537907331540e+000,-4.95002659019991e+000

2.90406129701488e+005,-1.04530733516050e+000,-5.01916290486841e+000

2.94460048199957e+005,-1.04523364870533e+000,-5.08926564529031e+000

2.98570557291775e+005,-1.04515796180208e+000,-5.16034834637181e+000

3.02738446952187e+005,-1.04508022091142e+000,-5.23242473332762e+000

3.06964518184081e+005,-1.04500037106401e+000,-5.30550872438240e+000

3.11249583171928e+005,-1.04491835582073e+000,-5.37961443351211e+000

3.15594465437872e+005,-1.04483411723202e+000,-5.45475617322473e+000

3.19999999999997e+005,-1.04474759579570e+000,-5.53094845738331e+000

3.24467033532806e+005,-1.04465873041371e+000,-5.60820600407071e+000

3.28996424529938e+005,-1.04456745834753e+000,-5.68654373849628e+000

3.33589043469155e+005,-1.04447371517216e+000,-5.76597679594718e+000

3.38245772979638e+005,-1.04437743472892e+000,-5.84652052478285e+000

3.42967508011610e+005,-1.04427854907671e+000,-5.92819048947483e+000

3.47755156008335e+005,-1.04417698844173e+000,-6.01100247369337e+000

3.52609637080511e+005,-1.04407268116606e+000,-6.09497248343872e+000

3.57531884183106e+005,-1.04396555365438e+000,-6.18011675022198e+000

3.62522843294651e+005,-1.04385553031936e+000,-6.26645173429328e+000

3.67583473599047e+005,-1.04374253352527e+000,-6.35399412791962e+000

3.72714747669902e+005,-1.04362648353017e+000,-6.44276085871285e+000

3.77917651657445e+005,-1.04350729842624e+000,-6.53276909300936e+000

3.83193185478053e+005,-1.04338489407847e+000,-6.62403623930116e+000

3.88542363006410e+005,-1.04325918406179e+000,-6.71657995172074e+000

3.93966212270369e+005,-1.04313007959597e+000,-6.81041813358034e+000

3.99465775648511e+005,-1.04299748947924e+000,-6.90556894096537e+000

4.05042110070485e+005,-1.04286132001962e+000,-7.00205078638589e+000

4.10696287220124e+005,-1.04272147496456e+000,-7.09988234248391e+000

4.16429393741414e+005,-1.04257785542875e+000,-7.19908254579986e+000

4.22242531447321e+005,-1.04243035981958e+000,-7.29967060059903e+000

4.28136817531551e+005,-1.04227888376095e+000,-7.40166598275831e+000

4.34113384783250e+005,-1.04212332001503e+000,-7.50508844371521e+000

4.40173381804713e+005,-1.04196355840170e+000,-7.60995801447997e+000

4.46317973232124e+005,-1.04179948571598e+000,-7.71629500971248e+000

4.52548339959385e+005,-1.04163098564349e+000,-7.82412003186416e+000

4.58865679365059e+005,-1.04145793867346e+000,-7.93345397538824e+000

4.65271205542494e+005,-1.04128022200962e+000,-8.04431803101654e+000

4.71766149533147e+005,-1.04109770947900e+000,-8.15673369010763e+000

4.78351759563174e+005,-1.04091027143813e+000,-8.27072274906517e+000

4.85029301283321e+005,-1.04071777467725e+000,-8.38630731382863e+000

4.91800058012158e+005,-1.04052008232184e+000,-8.50350980443848e+000

4.98665330982714e+005,-1.04031705373203e+000,-8.62235295967654e+000

5.05626439592555e+005,-1.04010854439958e+000,-8.74285984178247e+000

5.12684721657352e+005,-1.03989440584213e+000,-8.86505384125000e+000

5.19841533667984e+005,-1.03967448549537e+000,-8.98895868170164e+000

5.27098251051240e+005,-1.03944862660236e+000,-9.11459842484632e+000

5.34456268434150e+005,-1.03921666810053e+000,-9.24199747551870e+000

5.41916999912011e+005,-1.03897844450603e+000,-9.37118058680457e+000

