Freq.,VOut,OutRef

1.00000000000000e+004,-1.95795439122944e+001,-8.33738201774139e-002

1.01395947979003e+004,-1.95795443757023e+001,-8.45376244771163e-002

1.02811382665607e+004,-1.95795448521299e+001,-8.57176727221459e-002

1.04246576084112e+004,-1.95795453419431e+001,-8.69141915753003e-002

1.05701804056138e+004,-1.95795458455173e+001,-8.81274108638742e-002

1.07177346253629e+004,-1.95795463632390e+001,-8.93575636175287e-002

1.08673486252606e+004,-1.95795468955055e+001,-9.06048861139682e-002

1.10190511587661e+004,-1.95795474427248e+001,-9.18696179280042e-002

1.11728713807222e+004,-1.95795480053171e+001,-9.31520019689665e-002

1.13288388529580e+004,-1.95795485837134e+001,-9.44522845377455e-002

1.14869835499703e+004,-1.95795491783577e+001,-9.57707153647016e-002

1.16473358646846e+004,-1.95795497897061e+001,-9.71075476616265e-002

1.18099266142953e+004,-1.95795504182271e+001,-9.84630381725817e-002

1.19747870461893e+004,-1.95795510644029e+001,-9.98374472160658e-002

1.21419488439505e+004,-1.95795517287288e+001,-1.01231038741200e-001

1.23114441334492e+004,-1.95795524117143e+001,-1.02644080373566e-001

1.24833054890161e+004,-1.95795531138830e+001,-1.04076843470583e-001

1.26575659397028e+004,-1.95795538357731e+001,-1.05529603169351e-001

1.28342589756290e+004,-1.95795545779378e+001,-1.07002638442505e-001

1.30134185544193e+004,-1.95795553409462e+001,-1.08496232146895e-001

1.31950791077289e+004,-1.95795561253830e+001,-1.10010671081976e-001

1.33792755478611e+004,-1.95795569318493e+001,-1.11546246044126e-001

1.35660432744767e+004,-1.95795577609632e+001,-1.13103251878332e-001

1.37554181813974e+004,-1.95795586133599e+001,-1.14681987539057e-001

1.39474366635040e+004,-1.95795594896922e+001,-1.16282756145417e-001

1.41421356237309e+004,-1.95795603906317e+001,-1.17905865036241e-001

1.43395524801583e+004,-1.95795613168683e+001,-1.19551625833040e-001

1.45397251732031e+004,-1.95795622691116e+001,-1.21220354495526e-001

1.47426921729110e+004,-1.95795632480906e+001,-1.22912371386442e-001

1.49484924863494e+004,-1.95795642545552e+001,-1.24628001326145e-001

1.51571656651040e+004,-1.95795652892759e+001,-1.26367573660216e-001

1.53687518128801e+004,-1.95795663530446e+001,-1.28131422320227e-001

1.55832915932100e+004,-1.95795674466760e+001,-1.29919885883715e-001

1.58008262372675e+004,-1.95795685710067e+001,-1.31733307646491e-001

1.60213975517924e+004,-1.95795697268975e+001,-1.33572035677801e-001

1.62450479271247e+004,-1.95795709152326e+001,-1.35436422896644e-001

1.64718203453514e+004,-1.95795721369213e+001,-1.37326827130206e-001

1.67017583885674e+004,-1.95795733928982e+001,-1.39243611187527e-001

1.69349062472505e+004,-1.95795746841238e+001,-1.41187142926471e-001

1.71713087287550e+004,-1.95795760115856e+001,-1.43157795322688e-001

1.74110112659224e+004,-1.95795773762989e+001,-1.45155946539675e-001

1.76540599258131e+004,-1.95795787793066e+001,-1.47181980006411e-001

1.79005014185594e+004,-1.95795802216815e+001,-1.49236284480192e-001

1.81503831063432e+004,-1.95795817045260e+001,-1.51319254128957e-001

1.84037530124975e+004,-1.95795832289732e+001,-1.53431288602231e-001

1.86606598307361e+004,-1.95795847961877e+001,-1.55572793106396e-001

1.89211529345119e+004,-1.95795864073667e+001,-1.57744178483516e-001

1.91852823865052e+004,-1.95795880637411e+001,-1.59945861285453e-001

1.94530989482457e+004,-1.95795897665753e+001,-1.62178263857404e-001

1.97246540898671e+004,-1.95795915171695e+001,-1.64441814414817e-001

1.99999999999999e+004,-1.95795933168602e+001,-1.66736947122502e-001

2.02791895958005e+004,-1.95795951670206e+001,-1.69064102182207e-001

2.05622765331213e+004,-1.95795970690626e+001,-1.71423725909038e-001

2.08493152168224e+004,-1.95795990244371e+001,-1.73816270821154e-001

2.11403608112276e+004,-1.95796010346356e+001,-1.76242195721920e-001

2.14354692507258e+004,-1.95796031011907e+001,-1.78701965787692e-001

2.17346972505211e+004,-1.95796052256780e+001,-1.81196052655570e-001

2.20381023175322e+004,-1.95796074097166e+001,-1.83724934510361e-001

2.23457427614443e+004,-1.95796096549708e+001,-1.86289096177084e-001

2.26576777059159e+004,-1.95796119631510e+001,-1.88889029209300e-001

2.29739670999406e+004,-1.95796143360150e+001,-1.91525231985413e-001

2.32946717293690e+004,-1.95796167753695e+001,-1.94198209798121e-001

2.36198532285905e+004,-1.95796192830717e+001,-1.96908474949848e-001

2.39495740923785e+004,-1.95796218610293e+001,-1.99656546854187e-001

2.42838976879009e+004,-1.95796245112040e+001,-2.02442952124459e-001

2.46228882668982e+004,-1.95796272356111e+001,-2.05268224679423e-001

2.49666109780322e+004,-1.95796300363220e+001,-2.08132905840760e-001

2.53151318794055e+004,-1.95796329154655e+001,-2.11037544433475e-001

2.56685179512580e+004,-1.95796358752292e+001,-2.13982696888688e-001

2.60268371088386e+004,-1.95796389178613e+001,-2.16968927348561e-001

2.63901582154578e+004,-1.95796420456722e+001,-2.19996807771454e-001

2.67585510957221e+004,-1.95796452610359e+001,-2.23066918038432e-001

2.71320865489533e+004,-1.95796485663922e+001,-2.26179846060293e-001

2.75108363627948e+004,-1.95796519642483e+001,-2.29336187886622e-001

2.78948733270080e+004,-1.95796554571805e+001,-2.32536547819999e-001

2.82842712474618e+004,-1.95796590478360e+001,-2.35781538524305e-001

2.86791049603164e+004,-1.95796627389354e+001,-2.39071781139954e-001

2.90794503464061e+004,-1.95796665332738e+001,-2.42407905399833e-001

2.94853843458219e+004,-1.95796704337236e+001,-2.45790549745136e-001

2.98969849726987e+004,-1.95796744432359e+001,-2.49220361442785e-001

3.03143313302078e+004,-1.95796785648435e+001,-2.52697996706651e-001

3.07375036257601e+004,-1.95796828016617e+001,-2.56224120818880e-001

3.11665831864199e+004,-1.95796871568924e+001,-2.59799408248749e-001

3.16016524745350e+004,-1.95796916338245e+001,-2.63424542783473e-001

3.20427951035848e+004,-1.95796962358378e+001,-2.67100217646578e-001

3.24900958542493e+004,-1.95797009664041e+001,-2.70827135633363e-001

3.29436406907028e+004,-1.95797058290910e+001,-2.74606009231362e-001

3.34035167771346e+004,-1.95797108275632e+001,-2.78437560757858e-001

3.38698124945009e+004,-1.95797159655856e+001,-2.82322522490131e-001

3.43426174575100e+004,-1.95797212470265e+001,-2.86261636796879e-001

3.48220225318448e+004,-1.95797266758595e+001,-2.90255656276656e-001

3.53081198516260e+004,-1.95797322561664e+001,-2.94305343894815e-001

3.58010028371187e+004,-1.95797379921407e+001,-2.98411473120382e-001

3.63007662126863e+004,-1.95797438880900e+001,-3.02574828067947e-001

3.68075060249948e+004,-1.95797499484389e+001,-3.06796203642444e-001

3.73213196614721e+004,-1.95797561777325e+001,-3.11076405679666e-001

3.78423058690237e+004,-1.95797625806392e+001,-3.15416251092127e-001

3.83705647730104e+004,-1.95797691619543e+001,-3.19816568019295e-001

3.89061978964912e+004,-1.95797759266028e+001,-3.24278195975913e-001

3.94493081797342e+004,-1.95797828796432e+001,-3.28801986002606e-001

3.99999999999998e+004,-1.95797900262709e+001,-3.33388800818762e-001

4.05583791916010e+004,-1.95797973718215e+001,-3.38039514977706e-001

4.11245530662425e+004,-1.95798049217746e+001,-3.42755015023857e-001

4.16986304336447e+004,-1.95798126817577e+001,-3.47536199650063e-001

4.22807216224550e+004,-1.95798206575499e+001,-3.52383979858221e-001

4.28709385014515e+004,-1.95798288550850e+001,-3.57299279123885e-001

4.34693945010421e+004,-1.95798372804570e+001,-3.62283033555622e-001

4.40762046350642e+004,-1.95798459399230e+001,-3.67336192065409e-001

4.46914855228886e+004,-1.95798548399074e+001,-3.72459716533941e-001

4.53153554118317e+004,-1.95798639870070e+001,-3.77654581980965e-001

4.59479341998812e+004,-1.95798733879943e+001,-3.82921776738341e-001

4.65893434587380e+004,-1.95798830498227e+001,-3.88262302621692e-001

4.72397064571810e+004,-1.95798929796305e+001,-3.93677175107399e-001

4.78991481847569e+004,-1.95799031847462e+001,-3.99167423509010e-001

4.85677953758016e+004,-1.95799136726923e+001,-4.04734091158934e-001

4.92457765337964e+004,-1.95799244511910e+001,-4.10378235586701e-001

4.99332219560642e+004,-1.95799355281685e+001,-4.16100928706777e-001

5.06302637588109e+004,-1.95799469117606e+001,-4.21903256998665e-001

5.13370359025159e+004,-1.95799586103173e+001,-4.27786321699820e-001

5.20536742176771e+004,-1.95799706324084e+001,-4.33751238991175e-001

5.27803164309155e+004,-1.95799829868287e+001,-4.39799140190561e-001

5.35171021914442e+004,-1.95799956826035e+001,-4.45931171946481e-001

5.42641730979066e+004,-1.95800087289941e+001,-4.52148496431420e-001

5.50216727255895e+004,-1.95800221355034e+001,-4.58452291543440e-001

5.57897466540159e+004,-1.95800359118818e+001,-4.64843751101782e-001

5.65685424949235e+004,-1.95800500681333e+001,-4.71324085049847e-001

5.73582099206328e+004,-1.95800646145207e+001,-4.77894519661243e-001

5.81589006928121e+004,-1.95800795615727e+001,-4.84556297742486e-001

5.89707686916437e+004,-1.95800949200892e+001,-4.91310678841703e-001

5.97939699453972e+004,-1.95801107011484e+001,-4.98158939458906e-001

6.06286626604156e+004,-1.95801269161124e+001,-5.05102373258469e-001

6.14750072515201e+004,-1.95801435766344e+001,-5.12142291281295e-001

6.23331663728396e+004,-1.95801606946648e+001,-5.19280022163339e-001

6.32033049490698e+004,-1.95801782824585e+001,-5.26516912350835e-001

6.40855902071694e+004,-1.95801963525809e+001,-5.33854326323575e-001

6.49801917084985e+004,-1.95802149179158e+001,-5.41293646813223e-001

6.58872813814055e+004,-1.95802339916716e+001,-5.48836275031955e-001

6.68070335542691e+004,-1.95802535873887e+001,-5.56483630895299e-001

6.77396249890018e+004,-1.95802737189470e+001,-5.64237153251420e-001

6.86852349150199e+004,-1.95802944005727e+001,-5.72098300112639e-001

6.96440450636895e+004,-1.95803156468462e+001,-5.80068548885756e-001

7.06162397032520e+004,-1.95803374727091e+001,-5.88149396608332e-001

7.16020056742374e+004,-1.95803598934720e+001,-5.96342360183495e-001

7.26015324253724e+004,-1.95803829248222e+001,-6.04648976619991e-001

7.36150120499896e+004,-1.95804065828313e+001,-6.13070803270817e-001

7.46426393229441e+004,-1.95804308839630e+001,-6.21609418077687e-001

7.56846117380472e+004,-1.95804558450809e+001,-6.30266419812717e-001

7.67411295460207e+004,-1.95804814834565e+001,-6.39043428327560e-001

7.78123957929823e+004,-1.95805078167770e+001,-6.47942084801007e-001

7.88986163594682e+004,-1.95805348631535e+001,-6.56964051988102e-001

7.99999999999995e+004,-1.95805626411288e+001,-6.66111014473668e-001

8.11167583832018e+004,-1.95805911696857e+001,-6.75384678925906e-001

8.22491061324848e+004,-1.95806204682547e+001,-6.84786774354521e-001

8.33972608672892e+004,-1.95806505567228e+001,-6.94319052365048e-001

8.45614432449099e+004,-1.95806814554406e+001,-7.03983287423507e-001

8.57418770029029e+004,-1.95807131852315e+001,-7.13781277114760e-001

8.69387890020841e+004,-1.95807457673987e+001,-7.23714842408549e-001

8.81524092701283e+004,-1.95807792237341e+001,-7.33785827925378e-001

8.93829710457770e+004,-1.95808135765257e+001,-7.43996102203182e-001

9.06307108236633e+004,-1.95808488485660e+001,-7.54347557968660e-001

9.18958683997622e+004,-1.95808850631595e+001,-7.64842112407559e-001

9.31786869174758e+004,-1.95809222441308e+001,-7.75481707438861e-001

9.44794129143618e+004,-1.95809604158321e+001,-7.86268309991696e-001

9.57982963695136e+004,-1.95809996031508e+001,-7.97203912281053e-001

9.71355907516031e+004,-1.95810398315169e+001,-8.08290532087682e-001

9.84915530675926e+004,-1.95810811269105e+001,-8.19530213040901e-001

9.98664439121282e+004,-1.95811235158687e+001,-8.30925024900594e-001

1.01260527517622e+005,-1.95811670254926e+001,-8.42477063844657e-001

1.02674071805032e+005,-1.95812116834541e+001,-8.54188452753938e-001

1.04107348435354e+005,-1.95812575180023e+001,-8.66061341504797e-001

1.05560632861831e+005,-1.95813045579697e+001,-8.78097907258883e-001

1.07034204382888e+005,-1.95813528327783e+001,-8.90300354757943e-001

1.08528346195813e+005,-1.95814023724450e+001,-9.02670916620690e-001

1.10043345451179e+005,-1.95814532075872e+001,-9.15211853639670e-001

1.11579493308032e+005,-1.95815053694276e+001,-9.27925455083760e-001

1.13137084989847e+005,-1.95815588897986e+001,-9.40814038999997e-001

1.14716419841265e+005,-1.95816138011468e+001,-9.53879952521133e-001

1.16317801385624e+005,-1.95816701365365e+001,-9.67125572171405e-001

1.17941537383287e+005,-1.95817279296530e+001,-9.80553304179653e-001

1.19587939890794e+005,-1.95817872148051e+001,-9.94165584791600e-001

1.21257325320831e+005,-1.95818480269274e+001,-1.00796488058762e+000

1.22950014503040e+005,-1.95819104015821e+001,-1.02195368880167e+000

1.24666332745679e+005,-1.95819743749597e+001,-1.03613453764371e+000

1.26406609898139e+005,-1.95820399838791e+001,-1.05050998662719e+000

1.28171180414339e+005,-1.95821072657879e+001,-1.06508262689621e+000

1.29960383416997e+005,-1.95821762587607e+001,-1.07985508156168e+000

1.31774562762811e+005,-1.95822470014973e+001,-1.09483000603593e+000

1.33614067108538e+005,-1.95823195333202e+001,-1.11001008837571e+000

1.35479249978003e+005,-1.95823938941710e+001,-1.12539804962651e+000

1.37370469830040e+005,-1.95824701246057e+001,-1.14099664417327e+000

1.39288090127379e+005,-1.95825482657900e+001,-1.15680866009447e+000

1.41232479406504e+005,-1.95826283594920e+001,-1.17283691952376e+000

1.43204011348474e+005,-1.95827104480757e+001,-1.18908427901285e+000

1.45203064850745e+005,-1.95827945744920e+001,-1.20555362990591e+000

1.47230024099979e+005,-1.95828807822694e+001,-1.22224789871448e+000

1.49285278645888e+005,-1.95829691155034e+001,-1.23917004750182e+000

1.51369223476094e+005,-1.95830596188443e+001,-1.25632307427420e+000

1.53482259092041e+005,-1.95831523374843e+001,-1.27371001337960e+000

1.55624791585964e+005,-1.95832473171431e+001,-1.29133393591177e+000

1.57797232718936e+005,-1.95833446040521e+001,-1.30919795012596e+000

1.59999999999999e+005,-1.95834442449374e+001,-1.32730520186187e+000

1.62233516766403e+005,-1.95835462870014e+001,-1.34565887497456e+000

1.64498212264969e+005,-1.95836507779025e+001,-1.36426219177867e+000

1.66794521734578e+005,-1.95837577657344e+001,-1.38311841349919e+000

1.69122886489819e+005,-1.95838672990025e+001,-1.40223084073696e+000

1.71483754005805e+005,-1.95839794266002e+001,-1.42160281394359e+000

1.73877578004168e+005,-1.95840941977821e+001,-1.44123771390957e+000

1.76304818540256e+005,-1.95842116621375e+001,-1.46113896226540e+000

1.78765942091554e+005,-1.95843318695602e+001,-1.48131002199778e+000

1.81261421647326e+005,-1.95844548702185e+001,-1.50175439797872e+000

1.83791736799524e+005,-1.95845807145223e+001,-1.52247563751217e+000

1.86357373834951e+005,-1.95847094530894e+001,-1.54347733089465e+000

1.88958825828723e+005,-1.95848411367097e+001,-1.56476311199624e+000

1.91596592739027e+005,-1.95849758163077e+001,-1.58633665885709e+000

1.94271181503206e+005,-1.95851135429036e+001,-1.60820169430446e+000

1.96983106135185e+005,-1.95852543675730e+001,-1.63036198658960e+000

1.99732887824256e+005,-1.95853983414043e+001,-1.65282135004560e+000

2.02521055035243e+005,-1.95855455154552e+001,-1.67558364576773e+000

2.05348143610063e+005,-1.95856959407072e+001,-1.69865278231545e+000

2.08214696870707e+005,-1.95858496680192e+001,-1.72203271644183e+000

2.11121265723661e+005,-1.95860067480788e+001,-1.74572745384452e+000

2.14068408765776e+005,-1.95861672313532e+001,-1.76974104994562e+000

2.17056692391625e+005,-1.95863311680380e+001,-1.79407761069792e+000

2.20086690902357e+005,-1.95864986080053e+001,-1.81874129342036e+000

2.23158986616063e+005,-1.95866696007503e+001,-1.84373630766243e+000

2.26274169979693e+005,-1.95868441953371e+001,-1.86906691610070e+000

2.29432839682530e+005,-1.95870224403438e+001,-1.89473743546602e+000

2.32635602771247e+005,-1.95872043838064e+001,-1.92075223750336e+000

2.35883074766574e+005,-1.95873900731620e+001,-1.94711574996851e+000

2.39175879781588e+005,-1.95875795551923e+001,-1.97383245765689e+000

2.42514650641661e+005,-1.95877728759656e+001,-2.00090690347040e+000

2.45900029006080e+005,-1.95879700807796e+001,-2.02834368952114e+000

2.49332665491357e+005,-1.95881712141041e+001,-2.05614747827329e+000

2.52813219796278e+005,-1.95883763195231e+001,-2.08432299372547e+000

2.56342360828676e+005,-1.95885854396782e+001,-2.11287502263033e+000

2.59920766833993e+005,-1.95887986162129e+001,-2.14180841575925e+000

2.63549125525621e+005,-1.95890158897164e+001,-2.17112808920516e+000

2.67228134217075e+005,-1.95892372996702e+001,-2.20083902573098e+000

2.70958499956006e+005,-1.95894628843949e+001,-2.23094627615817e+000

2.74740939660078e+005,-1.95896926809990e+001,-2.26145496080200e+000

2.78576180254757e+005,-1.95899267253306e+001,-2.29237027094854e+000

2.82464958813007e+005,-1.95901650519293e+001,-2.32369747037925e+000

2.86408022696948e+005,-1.95904076939824e+001,-2.35544189693686e+000

2.90406129701488e+005,-1.95906546832838e+001,-2.38760896413935e+000

2.94460048199957e+005,-1.95909060501946e+001,-2.42020416283801e+000

2.98570557291775e+005,-1.95911618236090e+001,-2.45323306291944e+000

3.02738446952187e+005,-1.95914220309228e+001,-2.48670131505524e+000

3.06964518184081e+005,-1.95916866980066e+001,-2.52061465249355e+000

3.11249583171928e+005,-1.95919558491828e+001,-2.55497889289585e+000

3.15594465437872e+005,-1.95922295072085e+001,-2.58979994021807e+000

3.19999999999997e+005,-1.95925076932622e+001,-2.62508378663208e+000

3.24467033532806e+005,-1.95927904269370e+001,-2.66083651449298e+000

3.28996424529938e+005,-1.95930777262389e+001,-2.69706429834282e+000

3.33589043469155e+005,-1.95933696075914e+001,-2.73377340695776e+000

3.38245772979638e+005,-1.95936660858468e+001,-2.77097020543059e+000

3.42967508011610e+005,-1.95939671743036e+001,-2.80866115729309e+000

3.47755156008335e+005,-1.95942728847312e+001,-2.84685282667123e+000

3.52609637080511e+005,-1.95945832274019e+001,-2.88555188047408e+000

3.57531884183106e+005,-1.95948982111305e+001,-2.92476509061576e+000

3.62522843294651e+005,-1.95952178433213e+001,-2.96449933626679e+000

3.67583473599047e+005,-1.95955421300232e+001,-3.00476160612991e+000

3.72714747669902e+005,-1.95958710759937e+001,-3.04555900074449e+000

3.77917651657445e+005,-1.95962046847698e+001,-3.08689873481184e+000

3.83193185478053e+005,-1.95965429587493e+001,-3.12878813954040e+000

3.88542363006410e+005,-1.95968858992788e+001,-3.17123466500993e+000

3.93966212270369e+005,-1.95972335067524e+001,-3.21424588254824e+000

3.99465775648511e+005,-1.95975857807178e+001,-3.25782948712214e+000

4.05042110070485e+005,-1.95979427199917e+001,-3.30199329973672e+000

4.10696287220124e+005,-1.95983043227849e+001,-3.34674526984024e+000

4.16429393741414e+005,-1.95986705868352e+001,-3.39209347773488e+000

4.22242531447321e+005,-1.95990415095498e+001,-3.43804613698557e+000

4.28136817531551e+005,-1.95994170881566e+001,-3.48461159682855e+000

4.34113384783250e+005,-1.95997973198633e+001,-3.53179834457409e+000

4.40173381804713e+005,-1.96001822020267e+001,-3.57961500800160e+000

4.46317973232124e+005,-1.96005717323285e+001,-3.62807035774403e+000

4.52548339959385e+005,-1.96009659089606e+001,-3.67717330965986e+000

4.58865679365059e+005,-1.96013647308182e+001,-3.72693292718809e+000

4.65271205542494e+005,-1.96017681976998e+001,-3.77735842368651e+000

4.71766149533147e+005,-1.96021763105150e+001,-3.82845916474908e+000

4.78351759563174e+005,-1.96025890715003e+001,-3.88024467049978e+000

4.85029301283321e+005,-1.96030064844398e+001,-3.93272461786319e+000

4.91800058012158e+005,-1.96034285548941e+001,-3.98590884280841e+000

4.98665330982714e+005,-1.96038552904336e+001,-4.03980734256399e+000

5.05626439592555e+005,-1.96042867008787e+001,-4.09443027780463e+000

5.12684721657352e+005,-1.96047227985443e+001,-4.14978797480647e+000

5.19841533667984e+005,-1.96051635984891e+001,-4.20589092757138e+000

5.27098251051240e+005,-1.96056091187696e+001,-4.26274979991781e+000

5.34456268434150e+005,-1.96060593806971e+001,-4.32037542754029e+000

5.41916999912011e+005,-1.96065144090991e+001,-4.37877882003378e+000

