Freq.,VOut,OutRef

1.00000000000000e+004,-1.44256849434078e+001,-9.39698738622337e-002

1.01395947979003e+004,-1.44256857076780e+001,-9.52815504225584e-002

1.02811382665607e+004,-1.44256864934188e+001,-9.66115333180856e-002

1.04246576084112e+004,-1.44256873012335e+001,-9.79600779233746e-002

1.05701804056138e+004,-1.44256881317417e+001,-9.93274431738807e-002

1.07177346253629e+004,-1.44256889855803e+001,-1.00713891612814e-001

1.08673486252606e+004,-1.44256898634039e+001,-1.02119689441219e-001

1.10190511587661e+004,-1.44256907658863e+001,-1.03545106564037e-001

1.11728713807222e+004,-1.44256916937191e+001,-1.04990416649375e-001

1.13288388529580e+004,-1.44256926476140e+001,-1.06455897175399e-001

1.14869835499703e+004,-1.44256936283023e+001,-1.07941829484330e-001

1.16473358646846e+004,-1.44256946365357e+001,-1.09448498837391e-001

1.18099266142953e+004,-1.44256956730876e+001,-1.10976194465294e-001

1.19747870461893e+004,-1.44256967387522e+001,-1.12525209629183e-001

1.21419488439505e+004,-1.44256978343466e+001,-1.14095841669973e-001

1.23114441334492e+004,-1.44256989607103e+001,-1.15688392070881e-001

1.24833054890161e+004,-1.44257001187065e+001,-1.17303166509859e-001

1.26575659397028e+004,-1.44257013092229e+001,-1.18940474919287e-001

1.28342589756290e+004,-1.44257025331715e+001,-1.20600631546853e-001

1.30134185544193e+004,-1.44257037914902e+001,-1.22283955012178e-001

1.31950791077289e+004,-1.44257050851427e+001,-1.23990768371947e-001

1.33792755478611e+004,-1.44257064151203e+001,-1.25721399172128e-001

1.35660432744767e+004,-1.44257077824416e+001,-1.27476179521073e-001

1.37554181813974e+004,-1.44257091881537e+001,-1.29255446145149e-001

1.39474366635040e+004,-1.44257106333331e+001,-1.31059540456577e-001

1.41421356237309e+004,-1.44257121190865e+001,-1.32888808612558e-001

1.43395524801583e+004,-1.44257136465512e+001,-1.34743601589723e-001

1.45397251732031e+004,-1.44257152168968e+001,-1.36624275241044e-001

1.47426921729110e+004,-1.44257168313252e+001,-1.38531190370223e-001

1.49484924863494e+004,-1.44257184910719e+001,-1.40464712796190e-001

1.51571656651040e+004,-1.44257201974071e+001,-1.42425213424304e-001

1.53687518128801e+004,-1.44257219516365e+001,-1.44413068314871e-001

1.55832915932100e+004,-1.44257237551018e+001,-1.46428658756403e-001

1.58008262372675e+004,-1.44257256091830e+001,-1.48472371332861e-001

1.60213975517924e+004,-1.44257275152980e+001,-1.50544598002507e-001

1.62450479271247e+004,-1.44257294749044e+001,-1.52645736169769e-001

1.64718203453514e+004,-1.44257314895007e+001,-1.54776188756338e-001

1.67017583885674e+004,-1.44257335606268e+001,-1.56936364284315e-001

1.69349062472505e+004,-1.44257356898659e+001,-1.59126676946320e-001

1.71713087287550e+004,-1.44257378788453e+001,-1.61347546687995e-001

1.74110112659224e+004,-1.44257401292378e+001,-1.63599399283543e-001

1.76540599258131e+004,-1.44257424427626e+001,-1.65882666418609e-001

1.79005014185594e+004,-1.44257448211868e+001,-1.68197785770795e-001

1.81503831063432e+004,-1.44257472663271e+001,-1.70545201089684e-001

1.84037530124975e+004,-1.44257497800504e+001,-1.72925362284212e-001

1.86606598307361e+004,-1.44257523642756e+001,-1.75338725503259e-001

1.89211529345119e+004,-1.44257550209754e+001,-1.77785753222261e-001

1.91852823865052e+004,-1.44257577521773e+001,-1.80266914328536e-001

1.94530989482457e+004,-1.44257605599651e+001,-1.82782684213828e-001

1.97246540898671e+004,-1.44257634464805e+001,-1.85333544857633e-001

1.99999999999999e+004,-1.44257664139250e+001,-1.87919984919509e-001

2.02791895958005e+004,-1.44257694645610e+001,-1.90542499831842e-001

2.05622765331213e+004,-1.44257726007143e+001,-1.93201591888481e-001

2.08493152168224e+004,-1.44257758247748e+001,-1.95897770341486e-001

2.11403608112276e+004,-1.44257791391990e+001,-1.98631551495249e-001

2.14354692507258e+004,-1.44257825465117e+001,-2.01403458802095e-001

2.17346972505211e+004,-1.44257860493078e+001,-2.04214022959086e-001

2.20381023175322e+004,-1.44257896502538e+001,-2.07063782009431e-001

2.23457427614443e+004,-1.44257933520906e+001,-2.09953281437501e-001

2.26576777059159e+004,-1.44257971576353e+001,-2.12883074272903e-001

2.29739670999406e+004,-1.44258010697824e+001,-2.15853721193788e-001

2.32946717293690e+004,-1.44258050915071e+001,-2.18865790629250e-001

2.36198532285905e+004,-1.44258092258667e+001,-2.21919858863674e-001

2.39495740923785e+004,-1.44258134760036e+001,-2.25016510143053e-001

2.42838976879009e+004,-1.44258178451465e+001,-2.28156336785446e-001

2.46228882668982e+004,-1.44258223366141e+001,-2.31339939285319e-001

2.49666109780322e+004,-1.44258269538162e+001,-2.34567926429559e-001

2.53151318794055e+004,-1.44258317002572e+001,-2.37840915405355e-001

2.56685179512580e+004,-1.44258365795384e+001,-2.41159531911942e-001

2.60268371088386e+004,-1.44258415953600e+001,-2.44524410282266e-001

2.63901582154578e+004,-1.44258467515249e+001,-2.47936193591178e-001

2.67585510957221e+004,-1.44258520519406e+001,-2.51395533776124e-001

2.71320865489533e+004,-1.44258575006220e+001,-2.54903091759491e-001

2.75108363627948e+004,-1.44258631016951e+001,-2.58459537561703e-001

2.78948733270080e+004,-1.44258688593991e+001,-2.62065550430615e-001

2.82842712474618e+004,-1.44258747780902e+001,-2.65721818959127e-001

2.86791049603164e+004,-1.44258808622440e+001,-2.69429041212499e-001

2.90794503464061e+004,-1.44258871164595e+001,-2.73187924855193e-001

2.94853843458219e+004,-1.44258935454614e+001,-2.76999187278659e-001

2.98969849726987e+004,-1.44259001541045e+001,-2.80863555730136e-001

3.03143313302078e+004,-1.44259069473768e+001,-2.84781767442077e-001

3.07375036257601e+004,-1.44259139304028e+001,-2.88754569767742e-001

3.11665831864199e+004,-1.44259211084473e+001,-2.92782720313567e-001

3.16016524745350e+004,-1.44259284869191e+001,-2.96866987076715e-001

3.20427951035848e+004,-1.44259360713753e+001,-3.01008148577471e-001

3.24900958542493e+004,-1.44259438675243e+001,-3.05206994005248e-001

3.29436406907028e+004,-1.44259518812306e+001,-3.09464323352800e-001

3.34035167771346e+004,-1.44259601185185e+001,-3.13780947562567e-001

3.38698124945009e+004,-1.44259685855768e+001,-3.18157688666774e-001

3.43426174575100e+004,-1.44259772887625e+001,-3.22595379935859e-001

3.48220225318448e+004,-1.44259862346057e+001,-3.27094866024251e-001

3.53081198516260e+004,-1.44259954298137e+001,-3.31657003119522e-001

3.58010028371187e+004,-1.44260048812761e+001,-3.36282659091718e-001

3.63007662126863e+004,-1.44260145960695e+001,-3.40972713645248e-001

3.68075060249948e+004,-1.44260245814619e+001,-3.45728058475426e-001

3.73213196614721e+004,-1.44260348449182e+001,-3.50549597419639e-001

3.78423058690237e+004,-1.44260453941052e+001,-3.55438246616488e-001

3.83705647730104e+004,-1.44260562368965e+001,-3.60394934665567e-001

3.89061978964912e+004,-1.44260673813784e+001,-3.65420602785688e-001

3.94493081797342e+004,-1.44260788358547e+001,-3.70516204978528e-001

3.99999999999998e+004,-1.44260906088531e+001,-3.75682708190622e-001

4.05583791916010e+004,-1.44261027091301e+001,-3.80921092481641e-001

4.11245530662425e+004,-1.44261151456774e+001,-3.86232351189426e-001

4.16986304336447e+004,-1.44261279277276e+001,-3.91617491099341e-001

4.22807216224550e+004,-1.44261410647605e+001,-3.97077532615811e-001

4.28709385014515e+004,-1.44261545665093e+001,-4.02613509932322e-001

4.34693945010421e+004,-1.44261684429670e+001,-4.08226471209246e-001

4.40762046350642e+004,-1.44261827043927e+001,-4.13917478745737e-001

4.46914855228886e+004,-1.44261973613187e+001,-4.19687609158381e-001

4.53153554118317e+004,-1.44262124245572e+001,-4.25537953561259e-001

4.59479341998812e+004,-1.44262279052067e+001,-4.31469617747676e-001

4.65893434587380e+004,-1.44262438146601e+001,-4.37483722367384e-001

4.72397064571810e+004,-1.44262601646108e+001,-4.43581403118092e-001

4.78991481847569e+004,-1.44262769670612e+001,-4.49763810925072e-001

4.85677953758016e+004,-1.44262942343297e+001,-4.56032112131364e-001

4.92457765337964e+004,-1.44263119790583e+001,-4.62387488687686e-001

4.99332219560642e+004,-1.44263302142205e+001,-4.68831138340598e-001

5.06302637588109e+004,-1.44263489531298e+001,-4.75364274827340e-001

5.13370359025159e+004,-1.44263682094470e+001,-4.81988128067510e-001

5.20536742176771e+004,-1.44263879971894e+001,-4.88703944360446e-001

5.27803164309155e+004,-1.44264083307387e+001,-4.95512986580439e-001

5.35171021914442e+004,-1.44264292248497e+001,-5.02416534378443e-001

5.42641730979066e+004,-1.44264506946591e+001,-5.09415884378180e-001

5.50216727255895e+004,-1.44264727556948e+001,-5.16512350380503e-001

5.57897466540159e+004,-1.44264954238843e+001,-5.23707263565825e-001

5.65685424949235e+004,-1.44265187155646e+001,-5.31001972698030e-001

5.73582099206328e+004,-1.44265426474908e+001,-5.38397844333132e-001

5.81589006928121e+004,-1.44265672368468e+001,-5.45896263022401e-001

5.89707686916437e+004,-1.44265925012538e+001,-5.53498631525163e-001

5.97939699453972e+004,-1.44266184587809e+001,-5.61206371015397e-001

6.06286626604156e+004,-1.44266451279545e+001,-5.69020921297553e-001

6.14750072515201e+004,-1.44266725277691e+001,-5.76943741015012e-001

6.23331663728396e+004,-1.44267006776970e+001,-5.84976307865908e-001

6.32033049490698e+004,-1.44267295976989e+001,-5.93120118819669e-001

6.40855902071694e+004,-1.44267593082345e+001,-6.01376690330449e-001

6.49801917084985e+004,-1.44267898302729e+001,-6.09747558557348e-001

6.58872813814055e+004,-1.44268211853035e+001,-6.18234279581233e-001

6.68070335542691e+004,-1.44268533953472e+001,-6.26838429624652e-001

6.77396249890018e+004,-1.44268864829667e+001,-6.35561605273273e-001

6.86852349150199e+004,-1.44269204712783e+001,-6.44405423696981e-001

6.96440450636895e+004,-1.44269553839625e+001,-6.53371522872653e-001

7.06162397032520e+004,-1.44269912452759e+001,-6.62461561806476e-001

7.16020056742374e+004,-1.44270280800620e+001,-6.71677220758860e-001

7.26015324253724e+004,-1.44270659137628e+001,-6.81020201470551e-001

7.36150120499896e+004,-1.44271047724307e+001,-6.90492227384898e-001

7.46426393229441e+004,-1.44271446827390e+001,-7.00095043878623e-001

7.56846117380472e+004,-1.44271856719948e+001,-7.09830418484441e-001

7.67411295460207e+004,-1.44272277681496e+001,-7.19700141121166e-001

7.78123957929823e+004,-1.44272709998114e+001,-7.29706024320800e-001

7.88986163594682e+004,-1.44273153962558e+001,-7.39849903457028e-001

7.99999999999995e+004,-1.44273609874382e+001,-7.50133636973166e-001

8.11167583832018e+004,-1.44274078040049e+001,-7.60559106612643e-001

8.22491061324848e+004,-1.44274558773049e+001,-7.71128217645977e-001

8.33972608672892e+004,-1.44275052394007e+001,-7.81842899104000e-001

8.45614432449099e+004,-1.44275559230804e+001,-7.92705104002614e-001

8.57418770029029e+004,-1.44276079618684e+001,-8.03716809576924e-001

8.69387890020841e+004,-1.44276613900364e+001,-8.14880017508752e-001

8.81524092701283e+004,-1.44277162426146e+001,-8.26196754156243e-001

8.93829710457770e+004,-1.44277725554020e+001,-8.37669070785305e-001

9.06307108236633e+004,-1.44278303649774e+001,-8.49299043797439e-001

9.18958683997622e+004,-1.44278897087090e+001,-8.61088774959391e-001

9.31786869174758e+004,-1.44279506247648e+001,-8.73040391633900e-001

9.44794129143618e+004,-1.44280131521220e+001,-8.85156047007315e-001

9.57982963695136e+004,-1.44280773305766e+001,-8.97437920317587e-001

9.71355907516031e+004,-1.44281432007516e+001,-9.09888217085762e-001

9.84915530675926e+004,-1.44282108041064e+001,-9.22509169340384e-001

9.98664439121282e+004,-1.44282801829442e+001,-9.35303035848345e-001

1.01260527517622e+005,-1.44283513804198e+001,-9.48272102340125e-001

1.02674071805032e+005,-1.44284244405464e+001,-9.61418681738807e-001

1.04107348435354e+005,-1.44284994082021e+001,-9.74745114385162e-001

1.05560632861831e+005,-1.44285763291358e+001,-9.88253768264435e-001

1.07034204382888e+005,-1.44286552499722e+001,-1.00194703923251e+000

1.08528346195813e+005,-1.44287362182162e+001,-1.01582735124259e+000

1.10043345451179e+005,-1.44288192822563e+001,-1.02989715656878e+000

1.11579493308032e+005,-1.44289044913673e+001,-1.04415893603406e+000

1.13137084989847e+005,-1.44289918957125e+001,-1.05861519923244e+000

1.14716419841265e+005,-1.44290815463441e+001,-1.07326848475680e+000

1.16317801385624e+005,-1.44291734952036e+001,-1.08812136042178e+000

1.17941537383287e+005,-1.44292677951201e+001,-1.10317642349131e+000

1.19587939890794e+005,-1.44293644998077e+001,-1.11843630090366e+000

1.21257325320831e+005,-1.44294636638628e+001,-1.13390364949599e+000

1.22950014503040e+005,-1.44295653427583e+001,-1.14958115623409e+000

1.24666332745679e+005,-1.44296695928376e+001,-1.16547153843810e+000

1.26406609898139e+005,-1.44297764713071e+001,-1.18157754401143e+000

1.28171180414339e+005,-1.44298860362268e+001,-1.19790195167125e+000

1.29960383416997e+005,-1.44299983464995e+001,-1.21444757118018e+000

1.31774562762811e+005,-1.44301134618584e+001,-1.23121724357941e+000

1.33614067108538e+005,-1.44302314428526e+001,-1.24821384142514e+000

1.35479249978003e+005,-1.44303523508316e+001,-1.26544026902523e+000

1.37370469830040e+005,-1.44304762479266e+001,-1.28289946268256e+000

1.39288090127379e+005,-1.44306031970310e+001,-1.30059439093833e+000

1.41232479406504e+005,-1.44307332617781e+001,-1.31852805482129e+000

1.43204011348474e+005,-1.44308665065168e+001,-1.33670348810043e+000

1.45203064850745e+005,-1.44310029962853e+001,-1.35512375754190e+000

1.47230024099979e+005,-1.44311427967818e+001,-1.37379196317438e+000

1.49285278645888e+005,-1.44312859743337e+001,-1.39271123855572e+000

1.51369223476094e+005,-1.44314325958630e+001,-1.41188475105247e+000

1.53482259092041e+005,-1.44315827288506e+001,-1.43131570211982e+000

1.55624791585964e+005,-1.44317364412963e+001,-1.45100732759781e+000

1.57797232718936e+005,-1.44318938016777e+001,-1.47096289800860e+000

1.59999999999999e+005,-1.44320548789045e+001,-1.49118571887070e+000

1.62233516766403e+005,-1.44322197422712e+001,-1.51167913101806e+000

1.64498212264969e+005,-1.44323884614058e+001,-1.53244651093763e+000

1.66794521734578e+005,-1.44325611062166e+001,-1.55349127111173e+000

1.69122886489819e+005,-1.44327377468340e+001,-1.57481686038277e+000

1.71483754005805e+005,-1.44329184535512e+001,-1.59642676432677e+000

1.73877578004168e+005,-1.44331032967595e+001,-1.61832450564642e+000

1.76304818540256e+005,-1.44332923468821e+001,-1.64051364458057e+000

1.78765942091554e+005,-1.44334856743031e+001,-1.66299777933298e+000

1.81261421647326e+005,-1.44336833492937e+001,-1.68578054652153e+000

1.83791736799524e+005,-1.44338854419347e+001,-1.70886562164857e+000

1.86357373834951e+005,-1.44340920220357e+001,-1.73225671959406e+000

1.88958825828723e+005,-1.44343031590506e+001,-1.75595759513576e+000

1.91596592739027e+005,-1.44345189219895e+001,-1.77997204349180e+000

1.94271181503206e+005,-1.44347393793269e+001,-1.80430390089503e+000

1.96983106135185e+005,-1.44349645989069e+001,-1.82895704519454e+000

1.99732887824256e+005,-1.44351946478446e+001,-1.85393539649007e+000

2.02521055035243e+005,-1.44354295924237e+001,-1.87924291779765e+000

2.05348143610063e+005,-1.44356694979911e+001,-1.90488361575260e+000

2.08214696870707e+005,-1.44359144288484e+001,-1.93086154134766e+000

2.11121265723661e+005,-1.44361644481392e+001,-1.95718079071038e+000

2.14068408765776e+005,-1.44364196177342e+001,-1.98384550592100e+000

2.17056692391625e+005,-1.44366799981127e+001,-2.01085987587415e+000

2.20086690902357e+005,-1.44369456482417e+001,-2.03822813718232e+000

2.23158986616063e+005,-1.44372166254513e+001,-2.06595457512877e+000

2.26274169979693e+005,-1.44374929853087e+001,-2.09404352466776e+000

2.29432839682530e+005,-1.44377747814888e+001,-2.12249937147462e+000

2.32635602771247e+005,-1.44380620656433e+001,-2.15132655304948e+000

2.35883074766574e+005,-1.44383548872675e+001,-2.18052955987407e+000

2.39175879781588e+005,-1.44386532935658e+001,-2.21011293662548e+000

2.42514650641661e+005,-1.44389573293148e+001,-2.24008128344839e+000

2.45900029006080e+005,-1.44392670367268e+001,-2.27043925728519e+000

2.49332665491357e+005,-1.44395824553114e+001,-2.30119157327117e+000

2.52813219796278e+005,-1.44399036217365e+001,-2.33234300618905e+000

2.56342360828676e+005,-1.44402305696908e+001,-2.36389839199051e+000

2.59920766833993e+005,-1.44405633297442e+001,-2.39586262938428e+000

2.63549125525621e+005,-1.44409019292114e+001,-2.42824068149015e+000

2.67228134217075e+005,-1.44412463920145e+001,-2.46103757756327e+000

2.70958499956006e+005,-1.44415967385490e+001,-2.49425841478782e+000

2.74740939660078e+005,-1.44419529855504e+001,-2.52790836014180e+000

2.78576180254757e+005,-1.44423151459646e+001,-2.56199265233197e+000

2.82464958813007e+005,-1.44426832288204e+001,-2.59651660380370e+000

2.86408022696948e+005,-1.44430572391062e+001,-2.63148560282053e+000

2.90406129701488e+005,-1.44434371776501e+001,-2.66690511561929e+000

2.94460048199957e+005,-1.44438230410061e+001,-2.70278068863543e+000

2.98570557291775e+005,-1.44442148213438e+001,-2.73911795080168e+000

3.02738446952187e+005,-1.44446125063450e+001,-2.77592261592094e+000

3.06964518184081e+005,-1.44450160791064e+001,-2.81320048510626e+000

3.11249583171928e+005,-1.44454255180490e+001,-2.85095744929592e+000

3.15594465437872e+005,-1.44458407968355e+001,-2.88919949183321e+000

3.19999999999997e+005,-1.44462618842953e+001,-2.92793269111812e+000

3.24467033532806e+005,-1.44466887443583e+001,-2.96716322331989e+000

3.28996424529938e+005,-1.44471213359980e+001,-3.00689736515946e+000

3.33589043469155e+005,-1.44475596131845e+001,-3.04714149674771e+000

3.38245772979638e+005,-1.44480035248474e+001,-3.08790210448602e+000

3.42967508011610e+005,-1.44484530148497e+001,-3.12918578402169e+000

3.47755156008335e+005,-1.44489080219729e+001,-3.17099924325724e+000

3.52609637080511e+005,-1.44493684799141e+001,-3.21334930540686e+000

3.57531884183106e+005,-1.44498343172951e+001,-3.25624291210176e+000

3.62522843294651e+005,-1.44503054576840e+001,-3.29968712653541e+000

3.67583473599047e+005,-1.44507818196300e+001,-3.34368913664636e+000

3.72714747669902e+005,-1.44512633167110e+001,-3.38825625833688e+000

3.77917651657445e+005,-1.44517498575956e+001,-3.43339593871693e+000

3.83193185478053e+005,-1.44522413461179e+001,-3.47911575937527e+000

3.88542363006410e+005,-1.44527376813675e+001,-3.52542343966773e+000

3.93966212270369e+005,-1.44532387577921e+001,-3.57232684002161e+000

3.99465775648511e+005,-1.44537444653155e+001,-3.61983396524660e+000

4.05042110070485e+005,-1.44542546894700e+001,-3.66795296785039e+000

4.10696287220124e+005,-1.44547693115417e+001,-3.71669215135443e+000

4.16429393741414e+005,-1.44552882087313e+001,-3.76605997359883e+000

4.22242531447321e+005,-1.44558112543281e+001,-3.81606505003861e+000

4.28136817531551e+005,-1.44563383178981e+001,-3.86671615701972e+000

4.34113384783250e+005,-1.44568692654856e+001,-3.91802223503254e+000

4.40173381804713e+005,-1.44574039598276e+001,-3.96999239193772e+000

4.46317973232124e+005,-1.44579422605817e+001,-4.02263590615805e+000

4.52548339959385e+005,-1.44584840245654e+001,-4.07596222983200e+000

4.58865679365059e+005,-1.44590291060081e+001,-4.12998099192385e+000

4.65271205542494e+005,-1.44595773568141e+001,-4.18470200128701e+000

4.71766149533147e+005,-1.44601286268355e+001,-4.24013524967490e+000

4.78351759563174e+005,-1.44606827641561e+001,-4.29629091469611e+000

4.85029301283321e+005,-1.44612396153842e+001,-4.35317936270923e+000

4.91800058012158e+005,-1.44617990259535e+001,-4.41081115165602e+000

4.98665330982714e+005,-1.44623608404318e+001,-4.46919703382775e+000

5.05626439592555e+005,-1.44629249028371e+001,-4.52834795856265e+000

5.12684721657352e+005,-1.44634910569587e+001,-4.58827507487376e+000

5.19841533667984e+005,-1.44640591466843e+001,-4.64898973400265e+000

5.27098251051240e+005,-1.44646290163299e+001,-4.71050349190035e+000

5.34456268434150e+005,-1.44652005109747e+001,-4.77282811163335e+000

5.41916999912011e+005,-1.44657734767963e+001,-4.83597556571332e+000

