Freq.,VOut,OutRef

1.00000000000000e+004,-4.01947862502824e+001,-2.84598807462547e-001

1.01395947979003e+004,-4.01947884265910e+001,-2.88571507667352e-001

1.02811382665607e+004,-4.01947906640610e+001,-2.92599658286071e-001

1.04246576084112e+004,-4.01947929644105e+001,-2.96684033106174e-001

1.05701804056138e+004,-4.01947953294055e+001,-3.00825416705920e-001

1.07177346253629e+004,-4.01947977608624e+001,-3.05024604600686e-001

1.08673486252606e+004,-4.01948002606482e+001,-3.09282403400073e-001

1.10190511587661e+004,-4.01948028306819e+001,-3.13599630961629e-001

1.11728713807222e+004,-4.01948054729368e+001,-3.17977116544705e-001

1.13288388529580e+004,-4.01948081894416e+001,-3.22415700970560e-001

1.14869835499703e+004,-4.01948109822817e+001,-3.26916236783518e-001

1.16473358646846e+004,-4.01948138536012e+001,-3.31479588412519e-001

1.18099266142953e+004,-4.01948168056043e+001,-3.36106632339044e-001

1.19747870461893e+004,-4.01948198405569e+001,-3.40798257261985e-001

1.21419488439505e+004,-4.01948229607888e+001,-3.45555364268621e-001

1.23114441334492e+004,-4.01948261686949e+001,-3.50378867006655e-001

1.24833054890161e+004,-4.01948294667372e+001,-3.55269691859387e-001

1.26575659397028e+004,-4.01948328574471e+001,-3.60228778122049e-001

1.28342589756290e+004,-4.01948363434267e+001,-3.65257078180714e-001

1.30134185544193e+004,-4.01948399273513e+001,-3.70355557694658e-001

1.31950791077289e+004,-4.01948436119710e+001,-3.75525195782595e-001

1.33792755478611e+004,-4.01948474001133e+001,-3.80766985204850e-001

1.35660432744767e+004,-4.01948512946848e+001,-3.86081932559005e-001

1.37554181813974e+004,-4.01948552986735e+001,-3.91471058467063e-001

1.39474366635040e+004,-4.01948594151516e+001,-3.96935397771578e-001

1.41421356237309e+004,-4.01948636472769e+001,-4.02475999734945e-001

1.43395524801583e+004,-4.01948679982961e+001,-4.08093928236675e-001

1.45397251732031e+004,-4.01948724715469e+001,-4.13790261977425e-001

1.47426921729110e+004,-4.01948770704602e+001,-4.19566094686434e-001

1.49484924863494e+004,-4.01948817985634e+001,-4.25422535326172e-001

1.51571656651040e+004,-4.01948866594826e+001,-4.31360708307050e-001

1.53687518128801e+004,-4.01948916569457e+001,-4.37381753700018e-001

1.55832915932100e+004,-4.01948967947847e+001,-4.43486827454062e-001

1.58008262372675e+004,-4.01949020769394e+001,-4.49677101615186e-001

1.60213975517924e+004,-4.01949075074596e+001,-4.55953764552190e-001

1.62450479271247e+004,-4.01949130905086e+001,-4.62318021180528e-001

1.64718203453514e+004,-4.01949188303666e+001,-4.68771093191510e-001

1.67017583885674e+004,-4.01949247314332e+001,-4.75314219285761e-001

1.69349062472505e+004,-4.01949307982317e+001,-4.81948655408730e-001

1.71713087287550e+004,-4.01949370354116e+001,-4.88675674987996e-001

1.74110112659224e+004,-4.01949434477528e+001,-4.95496569177924e-001

1.76540599258131e+004,-4.01949500401690e+001,-5.02412647101078e-001

1.79005014185594e+004,-4.01949568177114e+001,-5.09425236100324e-001

1.81503831063432e+004,-4.01949637855724e+001,-5.16535681990087e-001

1.84037530124975e+004,-4.01949709490901e+001,-5.23745349308649e-001

1.86606598307361e+004,-4.01949783137514e+001,-5.31055621582595e-001

1.89211529345119e+004,-4.01949858851971e+001,-5.38467901584200e-001

1.91852823865052e+004,-4.01949936692257e+001,-5.45983611598440e-001

1.94530989482457e+004,-4.01950016717978e+001,-5.53604193695756e-001

1.97246540898671e+004,-4.01950098990406e+001,-5.61331110001100e-001

1.99999999999999e+004,-4.01950183572528e+001,-5.69165842972089e-001

2.02791895958005e+004,-4.01950270529090e+001,-5.77109895680750e-001

2.05622765331213e+004,-4.01950359926649e+001,-5.85164792096593e-001

2.08493152168224e+004,-4.01950451833620e+001,-5.93332077375927e-001

2.11403608112276e+004,-4.01950546320331e+001,-6.01613318151854e-001

2.14354692507258e+004,-4.01950643459075e+001,-6.10010102831926e-001

2.17346972505211e+004,-4.01950743324163e+001,-6.18524041898731e-001

2.20381023175322e+004,-4.01950845991980e+001,-6.27156768212420e-001

2.23457427614443e+004,-4.01950951541047e+001,-6.35909937317934e-001

2.26576777059159e+004,-4.01951060052074e+001,-6.44785227760361e-001

2.29739670999406e+004,-4.01951171608024e+001,-6.53784341398117e-001

2.32946717293690e+004,-4.01951286294177e+001,-6.62909003724553e-001

2.36198532285905e+004,-4.01951404198188e+001,-6.72160964193554e-001

2.39495740923785e+004,-4.01951525410161e+001,-6.81541996547300e-001

2.42838976879009e+004,-4.01951650022709e+001,-6.91053899151388e-001

2.46228882668982e+004,-4.01951778131029e+001,-7.00698495330515e-001

2.49666109780322e+004,-4.01951909832972e+001,-7.10477633713027e-001

2.53151318794055e+004,-4.01952045229112e+001,-7.20393188577519e-001

2.56685179512580e+004,-4.01952184422828e+001,-7.30447060202304e-001

2.60268371088386e+004,-4.01952327520378e+001,-7.40641175224278e-001

2.63901582154578e+004,-4.01952474630976e+001,-7.50977486997964e-001

2.67585510957221e+004,-4.01952625866880e+001,-7.61457975961898e-001

2.71320865489533e+004,-4.01952781343467e+001,-7.72084650009193e-001

2.75108363627948e+004,-4.01952941179327e+001,-7.82859544861928e-001

2.78948733270080e+004,-4.01953105496350e+001,-7.93784724450770e-001

2.82842712474618e+004,-4.01953274419810e+001,-8.04862281302701e-001

2.86791049603164e+004,-4.01953448078466e+001,-8.16094336928563e-001

2.90794503464061e+004,-4.01953626604655e+001,-8.27483042218629e-001

2.94853843458219e+004,-4.01953810134388e+001,-8.39030577844245e-001

2.98969849726987e+004,-4.01953998807454e+001,-8.50739154661683e-001

3.03143313302078e+004,-4.01954192767520e+001,-8.62611014124345e-001

3.07375036257601e+004,-4.01954392162244e+001,-8.74648428697100e-001

3.11665831864199e+004,-4.01954597143375e+001,-8.86853702279638e-001

3.16016524745350e+004,-4.01954807866871e+001,-8.99229170631459e-001

3.20427951035848e+004,-4.01955024493013e+001,-9.11777201804811e-001

3.24900958542493e+004,-4.01955247186522e+001,-9.24500196583021e-001

3.29436406907028e+004,-4.01955476116683e+001,-9.37400588922795e-001

3.34035167771346e+004,-4.01955711457462e+001,-9.50480846404260e-001

3.38698124945009e+004,-4.01955953387644e+001,-9.63743470684357e-001

3.43426174575100e+004,-4.01956202090956e+001,-9.77190997958221e-001

3.48220225318448e+004,-4.01956457756203e+001,-9.90825999426170e-001

3.53081198516260e+004,-4.01956720577410e+001,-1.00465108176272e+000

3.58010028371187e+004,-4.01956990753958e+001,-1.01866888759793e+000

3.63007662126863e+004,-4.01957268490735e+001,-1.03288209599992e+000

3.68075060249948e+004,-4.01957553998277e+001,-1.04729342296471e+000

3.73213196614721e+004,-4.01957847492930e+001,-1.06190562191246e+000

3.78423058690237e+004,-4.01958149197002e+001,-1.07672148418928e+000

3.83705647730104e+004,-4.01958459338923e+001,-1.09174383957705e+000

3.89061978964912e+004,-4.01958778153412e+001,-1.10697555680666e+000

3.94493081797342e+004,-4.01959105881648e+001,-1.12241954407877e+000

3.99999999999998e+004,-4.01959442771438e+001,-1.13807874959243e+000

4.05583791916010e+004,-4.01959789077403e+001,-1.15395616207741e+000

4.11245530662425e+004,-4.01960145061153e+001,-1.17005481133563e+000

4.16986304336447e+004,-4.01960510991479e+001,-1.18637776878711e+000

4.22807216224550e+004,-4.01960887144545e+001,-1.20292814802225e+000

4.28709385014515e+004,-4.01961273804082e+001,-1.21970910536427e+000

4.34693945010421e+004,-4.01961671261592e+001,-1.23672384043334e+000

4.40762046350642e+004,-4.01962079816556e+001,-1.25397559672018e+000

4.46914855228886e+004,-4.01962499776643e+001,-1.27146766216751e+000

4.53153554118317e+004,-4.01962931457930e+001,-1.28920336975547e+000

4.59479341998812e+004,-4.01963375185123e+001,-1.30718609809557e+000

4.65893434587380e+004,-4.01963831291790e+001,-1.32541927203108e+000

4.72397064571810e+004,-4.01964300120587e+001,-1.34390636324579e+000

4.78991481847569e+004,-4.01964782023504e+001,-1.36265089087669e+000

4.85677953758016e+004,-4.01965277362111e+001,-1.38165642213697e+000

4.92457765337964e+004,-4.01965786507804e+001,-1.40092657294324e+000

4.99332219560642e+004,-4.01966309842070e+001,-1.42046500855252e+000

5.06302637588109e+004,-4.01966847756743e+001,-1.44027544420515e+000

5.13370359025159e+004,-4.01967400654284e+001,-1.46036164577358e+000

5.20536742176771e+004,-4.01967968948048e+001,-1.48072743042093e+000

5.27803164309155e+004,-4.01968553062574e+001,-1.50137666726508e+000

5.35171021914442e+004,-4.01969153433874e+001,-1.52231327805021e+000

5.42641730979066e+004,-4.01969770509726e+001,-1.54354123782706e+000

5.50216727255895e+004,-4.01970404749984e+001,-1.56506457563814e+000

5.57897466540159e+004,-4.01971056626885e+001,-1.58688737521287e+000

5.65685424949235e+004,-4.01971726625368e+001,-1.60901377566727e+000

5.73582099206328e+004,-4.01972415243402e+001,-1.63144797221511e+000

5.81589006928121e+004,-4.01973122992314e+001,-1.65419421688220e+000

5.89707686916437e+004,-4.01973850397135e+001,-1.67725681923097e+000

5.97939699453972e+004,-4.01974597996944e+001,-1.70064014709149e+000

6.06286626604156e+004,-4.01975366345231e+001,-1.72434862730021e+000

6.14750072515201e+004,-4.01976156010249e+001,-1.74838674644682e+000

6.23331663728396e+004,-4.01976967575401e+001,-1.77275905162639e+000

6.32033049490698e+004,-4.01977801639608e+001,-1.79747015120322e+000

6.40855902071694e+004,-4.01978658817705e+001,-1.82252471557791e+000

6.49801917084985e+004,-4.01979539740834e+001,-1.84792747796424e+000

6.58872813814055e+004,-4.01980445056853e+001,-1.87368323517423e+000

6.68070335542691e+004,-4.01981375430747e+001,-1.89979684840901e+000

6.77396249890018e+004,-4.01982331545052e+001,-1.92627324405755e+000

6.86852349150199e+004,-4.01983314100290e+001,-1.95311741450508e+000

6.96440450636895e+004,-4.01984323815403e+001,-1.98033441894648e+000

7.06162397032520e+004,-4.01985361428206e+001,-2.00792938420874e+000

7.16020056742374e+004,-4.01986427695851e+001,-2.03590750557959e+000

7.26015324253724e+004,-4.01987523395284e+001,-2.06427404764720e+000

7.36150120499896e+004,-4.01988649323729e+001,-2.09303434514185e+000

7.46426393229441e+004,-4.01989806299176e+001,-2.12219380378998e+000

7.56846117380472e+004,-4.01990995160872e+001,-2.15175790117403e+000

7.67411295460207e+004,-4.01992216769828e+001,-2.18173218759938e+000

7.78123957929823e+004,-4.01993472009336e+001,-2.21212228696862e+000

7.88986163594682e+004,-4.01994761785487e+001,-2.24293389766597e+000

7.99999999999995e+004,-4.01996087027714e+001,-2.27417279344464e+000

8.11167583832018e+004,-4.01997448689326e+001,-2.30584482432555e+000

8.22491061324848e+004,-4.01998847748067e+001,-2.33795591750200e+000

8.33972608672892e+004,-4.02000285206677e+001,-2.37051207825163e+000

8.45614432449099e+004,-4.02001762093464e+001,-2.40351939085584e+000

8.57418770029029e+004,-4.02003279462882e+001,-2.43698401952765e+000

8.69387890020841e+004,-4.02004838396132e+001,-2.47091220934443e+000

8.81524092701283e+004,-4.02006440001750e+001,-2.50531028719145e+000

8.93829710457770e+004,-4.02008085416227e+001,-2.54018466271041e+000

9.06307108236633e+004,-4.02009775804625e+001,-2.57554182925528e+000

9.18958683997622e+004,-4.02011512361205e+001,-2.61138836485677e+000

9.31786869174758e+004,-4.02013296310069e+001,-2.64773093319375e+000

9.44794129143618e+004,-4.02015128905800e+001,-2.68457628457121e+000

9.57982963695136e+004,-4.02017011434127e+001,-2.72193125690637e+000

9.71355907516031e+004,-4.02018945212585e+001,-2.75980277672223e+000

9.84915530675926e+004,-4.02020931591187e+001,-2.79819786014798e+000

9.98664439121282e+004,-4.02022971953114e+001,-2.83712361392739e+000

1.01260527517622e+005,-4.02025067715395e+001,-2.87658723643419e+000

1.02674071805032e+005,-4.02027220329618e+001,-2.91659601869508e+000

1.04107348435354e+005,-4.02029431282625e+001,-2.95715734542038e+000

1.05560632861831e+005,-4.02031702097236e+001,-2.99827869604320e+000

1.07034204382888e+005,-4.02034034332964e+001,-3.03996764576362e+000

1.08528346195813e+005,-4.02036429586750e+001,-3.08223186660445e+000

1.10043345451179e+005,-4.02038889493693e+001,-3.12507912847133e+000

1.11579493308032e+005,-4.02041415727799e+001,-3.16851730022340e+000

1.13137084989847e+005,-4.02044010002723e+001,-3.21255435075107e+000

1.14716419841265e+005,-4.02046674072529e+001,-3.25719835006146e+000

1.16317801385624e+005,-4.02049409732446e+001,-3.30245747037405e+000

1.17941537383287e+005,-4.02052218819639e+001,-3.34833998722353e+000

1.19587939890794e+005,-4.02055103213972e+001,-3.39485428057218e+000

1.21257325320831e+005,-4.02058064838786e+001,-3.44200883593142e+000

1.22950014503040e+005,-4.02061105661678e+001,-3.48981224549261e+000

1.24666332745679e+005,-4.02064227695282e+001,-3.53827320926761e+000

1.26406609898139e+005,-4.02067432998052e+001,-3.58740053623984e+000

1.28171180414339e+005,-4.02070723675050e+001,-3.63720314552535e+000

1.29960383416997e+005,-4.02074101878738e+001,-3.68769006754384e+000

1.31774562762811e+005,-4.02077569809763e+001,-3.73887044520396e+000

1.33614067108538e+005,-4.02081129717756e+001,-3.79075353509629e+000

1.35479249978003e+005,-4.02084783902117e+001,-3.84334870870186e+000

1.37370469830040e+005,-4.02088534712812e+001,-3.89666545361185e+000

1.39288090127379e+005,-4.02092384551166e+001,-3.95071337476135e+000

1.41232479406504e+005,-4.02096335870650e+001,-4.00550219567657e+000

1.43204011348474e+005,-4.02100391177673e+001,-4.06104175973753e+000

1.45203064850745e+005,-4.02104553032371e+001,-4.11734203145604e+000

1.47230024099979e+005,-4.02108824049391e+001,-4.17441309776968e+000

1.49285278645888e+005,-4.02113206898671e+001,-4.23226516935409e+000

1.51369223476094e+005,-4.02117704306227e+001,-4.29090858195086e+000

1.53482259092041e+005,-4.02122319054922e+001,-4.35035379771774e+000

1.55624791585964e+005,-4.02127053985241e+001,-4.41061140659697e+000

1.57797232718936e+005,-4.02131911996057e+001,-4.47169212770477e+000

1.59999999999999e+005,-4.02136896045401e+001,-4.53360681074388e+000

1.62233516766403e+005,-4.02142009151210e+001,-4.59636643744031e+000

1.64498212264969e+005,-4.02147254392092e+001,-4.65998212300286e+000

1.66794521734578e+005,-4.02152634908070e+001,-4.72446511761163e+000

1.69122886489819e+005,-4.02158153901326e+001,-4.78982680793198e+000

1.71483754005805e+005,-4.02163814636943e+001,-4.85607871865902e+000

1.73877578004168e+005,-4.02169620443642e+001,-4.92323251409276e+000

1.76304818540256e+005,-4.02175574714510e+001,-4.99129999974463e+000

1.78765942091554e+005,-4.02181680907729e+001,-5.06029312398034e+000

1.81261421647326e+005,-4.02187942547304e+001,-5.13022397969604e+000

1.83791736799524e+005,-4.02194363223781e+001,-5.20110480603425e+000

1.86357373834951e+005,-4.02200946594971e+001,-5.27294799013871e+000

1.88958825828723e+005,-4.02207696386667e+001,-5.34576606895114e+000

1.91596592739027e+005,-4.02214616393372e+001,-5.41957173105166e+000

1.94271181503206e+005,-4.02221710479014e+001,-5.49437781854471e+000

1.96983106135185e+005,-4.02228982577680e+001,-5.57019732899347e+000

1.99732887824256e+005,-4.02236436694342e+001,-5.64704341740446e+000

2.02521055035243e+005,-4.02244076905606e+001,-5.72492939826377e+000

2.05348143610063e+005,-4.02251907360452e+001,-5.80386874762927e+000

2.08214696870707e+005,-4.02259932281004e+001,-5.88387510527841e+000

2.11121265723661e+005,-4.02268155963302e+001,-5.96496227691663e+000

2.14068408765776e+005,-4.02276582778104e+001,-6.04714423644624e+000

2.17056692391625e+005,-4.02285217171693e+001,-6.13043512830061e+000

2.20086690902357e+005,-4.02294063666729e+001,-6.21484926984318e+000

2.23158986616063e+005,-4.02303126863115e+001,-6.30040115383714e+000

2.26274169979693e+005,-4.02312411438903e+001,-6.38710545098362e+000

2.29432839682530e+005,-4.02321922151233e+001,-6.47497701253566e+000

2.32635602771247e+005,-4.02331663837324e+001,-6.56403087298554e+000

2.35883074766574e+005,-4.02341641415503e+001,-6.65428225283085e+000

2.39175879781588e+005,-4.02351859886292e+001,-6.74574656141952e+000

2.42514650641661e+005,-4.02362324333555e+001,-6.83843939987711e+000

2.45900029006080e+005,-4.02373039925714e+001,-6.93237656411662e+000

2.49332665491357e+005,-4.02384011917029e+001,-7.02757404793390e+000

2.52813219796278e+005,-4.02395245648965e+001,-7.12404804618911e+000

2.56342360828676e+005,-4.02406746551647e+001,-7.22181495807691e+000

2.59920766833993e+005,-4.02418520145402e+001,-7.32089139048453e+000

2.63549125525621e+005,-4.02430572042415e+001,-7.42129416144133e+000

2.67228134217075e+005,-4.02442907948484e+001,-7.52304030365761e+000

2.70958499956006e+005,-4.02455533664910e+001,-7.62614706815537e+000

2.74740939660078e+005,-4.02468455090501e+001,-7.73063192799087e+000

2.78576180254757e+005,-4.02481678223726e+001,-7.83651258206712e+000

2.82464958813007e+005,-4.02495209165015e+001,-7.94380695903818e+000

2.86408022696948e+005,-4.02509054119212e+001,-8.05253322130347e+000

2.90406129701488e+005,-4.02523219398205e+001,-8.16270976909023e+000

2.94460048199957e+005,-4.02537711423726e+001,-8.27435524462415e+000

2.98570557291775e+005,-4.02552536730350e+001,-8.38748853638482e+000

3.02738446952187e+005,-4.02567701968688e+001,-8.50212878344476e+000

3.06964518184081e+005,-4.02583213908791e+001,-8.61829537988856e+000

3.11249583171928e+005,-4.02599079443779e+001,-8.73600797930930e+000

3.15594465437872e+005,-4.02615305593701e+001,-8.85528649937874e+000

3.19999999999997e+005,-4.02631899509640e+001,-8.97615112648565e+000

3.24467033532806e+005,-4.02648868478071e+001,-9.09862232044136e+000

3.28996424529938e+005,-4.02666219925483e+001,-9.22272081924242e+000

3.33589043469155e+005,-4.02683961423285e+001,-9.34846764388868e+000

3.38245772979638e+005,-4.02702100692987e+001,-9.47588410324964e+000

3.42967508011610e+005,-4.02720645611682e+001,-9.60499179897126e+000

3.47755156008335e+005,-4.02739604217840e+001,-9.73581263041799e+000

3.52609637080511e+005,-4.02758984717406e+001,-9.86836879964102e+000

3.57531884183106e+005,-4.02778795490234e+001,-1.00026828163659e+001

3.62522843294651e+005,-4.02799045096846e+001,-1.01387775029899e+001

3.67583473599047e+005,-4.02819742285533e+001,-1.02766759995810e+001

3.72714747669902e+005,-4.02840895999809e+001,-1.04164017688684e+001

3.77917651657445e+005,-4.02862515386216e+001,-1.05579786012163e+001

3.83193185478053e+005,-4.02884609802490e+001,-1.07014306195677e+001

3.88542363006410e+005,-4.02907188826094e+001,-1.08467822843514e+001

3.93966212270369e+005,-4.02930262263125e+001,-1.09940583983385e+001

3.99465775648511e+005,-4.02953840157589e+001,-1.11432841114377e+001

4.05042110070485e+005,-4.02977932801060e+001,-1.12944849254203e+001

4.10696287220124e+005,-4.03002550742715e+001,-1.14476866985586e+001

4.16429393741414e+005,-4.03027704799749e+001,-1.16029156501713e+001

4.22242531447321e+005,-4.03053406068173e+001,-1.17601983650578e+001

4.28136817531551e+005,-4.03079665933991e+001,-1.19195617978159e+001

4.34113384783250e+005,-4.03106496084751e+001,-1.20810332770249e+001

4.40173381804713e+005,-4.03133908521476e+001,-1.22446405092846e+001

4.46317973232124e+005,-4.03161915570968e+001,-1.24104115830976e+001

4.52548339959385e+005,-4.03190529898467e+001,-1.25783749725840e+001

4.58865679365059e+005,-4.03219764520687e+001,-1.27485595410120e+001

4.65271205542494e+005,-4.03249632819189e+001,-1.29209945441388e+001

4.71766149533147e+005,-4.03280148554118e+001,-1.30957096333447e+001

4.78351759563174e+005,-4.03311325878263e+001,-1.32727348585523e+001

4.85029301283321e+005,-4.03343179351452e+001,-1.34521006709169e+001

4.91800058012158e+005,-4.03375723955266e+001,-1.36338379252803e+001

4.98665330982714e+005,-4.03408975108061e+001,-1.38179778823739e+001

5.05626439592555e+005,-4.03442948680280e+001,-1.40045522107647e+001

5.12684721657352e+005,-4.03477661010053e+001,-1.41935929885299e+001

5.19841533667984e+005,-4.03513128919067e+001,-1.43851327046559e+001

5.27098251051240e+005,-4.03549369728692e+001,-1.45792042601475e+001

5.34456268434150e+005,-4.03586401276346e+001,-1.47758409688434e+001

5.41916999912011e+005,-4.03624241932096e+001,-1.49750765579266e+001

