Freq.,VOut,OutRef

1.00000000000000e+004,-1.34935531483139e+001,-7.92881548992964e-002

1.01395947979003e+004,-1.34935542134238e+001,-8.03948422183343e-002

1.02811382665607e+004,-1.34935553084556e+001,-8.15169726265179e-002

1.04246576084112e+004,-1.34935564342496e+001,-8.26547614581611e-002

1.05701804056138e+004,-1.34935575916693e+001,-8.38084270461915e-002

1.07177346253629e+004,-1.34935587816020e+001,-8.49781907601559e-002

1.08673486252606e+004,-1.34935600049607e+001,-8.61642770464375e-002

1.10190511587661e+004,-1.34935612626837e+001,-8.73669134739213e-002

1.11728713807222e+004,-1.34935625557346e+001,-8.85863307808123e-002

1.13288388529580e+004,-1.34935638851055e+001,-8.98227629066228e-002

1.14869835499703e+004,-1.34935652518156e+001,-9.10764470463495e-002

1.16473358646846e+004,-1.34935666569126e+001,-9.23476236928194e-002

1.18099266142953e+004,-1.34935681014739e+001,-9.36365366802374e-002

1.19747870461893e+004,-1.34935695866059e+001,-9.49434332376493e-002

1.21419488439505e+004,-1.34935711134479e+001,-9.62685640195085e-002

1.23114441334492e+004,-1.34935726831695e+001,-9.76121831714451e-002

1.24833054890161e+004,-1.34935742969738e+001,-9.89745483667037e-002

1.26575659397028e+004,-1.34935759560971e+001,-1.00355920860247e-001

1.28342589756290e+004,-1.34935776618110e+001,-1.01756565531331e-001

1.30134185544193e+004,-1.34935794154221e+001,-1.03176750940642e-001

1.31950791077289e+004,-1.34935812182736e+001,-1.04616749379255e-001

1.33792755478611e+004,-1.34935830717467e+001,-1.06076836914840e-001

1.35660432744767e+004,-1.34935849772607e+001,-1.07557293451965e-001

1.37554181813974e+004,-1.34935869362749e+001,-1.09058402775221e-001

1.39474366635040e+004,-1.34935889502891e+001,-1.10580452612026e-001

1.41421356237309e+004,-1.34935910208458e+001,-1.12123734675843e-001

1.43395524801583e+004,-1.34935931495297e+001,-1.13688544732635e-001

1.45397251732031e+004,-1.34935953379704e+001,-1.15275182646970e-001

1.47426921729110e+004,-1.34935975878427e+001,-1.16883952443759e-001

1.49484924863494e+004,-1.34935999008685e+001,-1.18515162360860e-001

1.51571656651040e+004,-1.34936022788174e+001,-1.20169124911992e-001

1.53687518128801e+004,-1.34936047235089e+001,-1.21846156938632e-001

1.55832915932100e+004,-1.34936072368129e+001,-1.23546579675615e-001

1.58008262372675e+004,-1.34936098206520e+001,-1.25270718804010e-001

1.60213975517924e+004,-1.34936124770018e+001,-1.27018904521627e-001

1.62450479271247e+004,-1.34936152078936e+001,-1.28791471592587e-001

1.64718203453514e+004,-1.34936180154151e+001,-1.30588759420663e-001

1.67017583885674e+004,-1.34936209017125e+001,-1.32411112102454e-001

1.69349062472505e+004,-1.34936238689915e+001,-1.34258878500577e-001

1.71713087287550e+004,-1.34936269195197e+001,-1.36132412301099e-001

1.74110112659224e+004,-1.34936300556276e+001,-1.38032072082460e-001

1.76540599258131e+004,-1.34936332797110e+001,-1.39958221381719e-001

1.79005014185594e+004,-1.34936365942320e+001,-1.41911228762096e-001

1.81503831063432e+004,-1.34936400017216e+001,-1.43891467878856e-001

1.84037530124975e+004,-1.34936435047814e+001,-1.45899317549717e-001

1.86606598307361e+004,-1.34936471060853e+001,-1.47935161825004e-001

1.89211529345119e+004,-1.34936508083815e+001,-1.49999390058369e-001

1.91852823865052e+004,-1.34936546144947e+001,-1.52092396977643e-001

1.94530989482457e+004,-1.34936585273287e+001,-1.54214582756063e-001

1.97246540898671e+004,-1.34936625498676e+001,-1.56366353088926e-001

1.99999999999999e+004,-1.34936666851783e+001,-1.58548119266008e-001

2.02791895958005e+004,-1.34936709364132e+001,-1.60760298247171e-001

2.05622765331213e+004,-1.34936753068127e+001,-1.63003312734800e-001

2.08493152168224e+004,-1.34936797997064e+001,-1.65277591259789e-001

2.11403608112276e+004,-1.34936844185172e+001,-1.67583568248405e-001

2.14354692507258e+004,-1.34936891667621e+001,-1.69921684111748e-001

2.17346972505211e+004,-1.34936940480567e+001,-1.72292385317024e-001

2.20381023175322e+004,-1.34936990661162e+001,-1.74696124473909e-001

2.23457427614443e+004,-1.34937042247589e+001,-1.77133360415483e-001

2.26576777059159e+004,-1.34937095279093e+001,-1.79604558277777e-001

2.29739670999406e+004,-1.34937149796004e+001,-1.82110189588012e-001

2.32946717293690e+004,-1.34937205839767e+001,-1.84650732348224e-001

2.36198532285905e+004,-1.34937263452977e+001,-1.87226671118205e-001

2.39495740923785e+004,-1.34937322679409e+001,-1.89838497106420e-001

2.42838976879009e+004,-1.34937383564046e+001,-1.92486708254704e-001

2.46228882668982e+004,-1.34937446153115e+001,-1.95171809330383e-001

2.49666109780322e+004,-1.34937510494121e+001,-1.97894312011709e-001

2.53151318794055e+004,-1.34937576635882e+001,-2.00654734983892e-001

2.56685179512580e+004,-1.34937644628564e+001,-2.03453604025862e-001

2.60268371088386e+004,-1.34937714523713e+001,-2.06291452108628e-001

2.63901582154578e+004,-1.34937786374301e+001,-2.09168819486015e-001

2.67585510957221e+004,-1.34937860234761e+001,-2.12086253788416e-001

2.71320865489533e+004,-1.34937936161020e+001,-2.15044310124104e-001

2.75108363627948e+004,-1.34938014210549e+001,-2.18043551172004e-001

2.78948733270080e+004,-1.34938094442397e+001,-2.21084547282236e-001

2.82842712474618e+004,-1.34938176917244e+001,-2.24167876571716e-001

2.86791049603164e+004,-1.34938261697427e+001,-2.27294125032569e-001

2.90794503464061e+004,-1.34938348847005e+001,-2.30463886623611e-001

2.94853843458219e+004,-1.34938438431787e+001,-2.33677763382286e-001

2.98969849726987e+004,-1.34938530519390e+001,-2.36936365522015e-001

3.03143313302078e+004,-1.34938625179287e+001,-2.40240311538236e-001

3.07375036257601e+004,-1.34938722482848e+001,-2.43590228317315e-001

3.11665831864199e+004,-1.34938822503401e+001,-2.46986751238739e-001

3.16016524745350e+004,-1.34938925316275e+001,-2.50430524286608e-001

3.20427951035848e+004,-1.34939030998861e+001,-2.53922200158076e-001

3.24900958542493e+004,-1.34939139630659e+001,-2.57462440372032e-001

3.29436406907028e+004,-1.34939251293341e+001,-2.61051915380807e-001

3.34035167771346e+004,-1.34939366070804e+001,-2.64691304683952e-001

3.38698124945009e+004,-1.34939484049226e+001,-2.68381296940052e-001

3.43426174575100e+004,-1.34939605317135e+001,-2.72122590080473e-001

3.48220225318448e+004,-1.34939729965460e+001,-2.75915891427228e-001

3.53081198516260e+004,-1.34939858087601e+001,-2.79761917807593e-001

3.58010028371187e+004,-1.34939989779496e+001,-2.83661395668853e-001

3.63007662126863e+004,-1.34940125139672e+001,-2.87615061205430e-001

3.68075060249948e+004,-1.34940264269332e+001,-2.91623660467859e-001

3.73213196614721e+004,-1.34940407272412e+001,-2.95687949491572e-001

3.78423058690237e+004,-1.34940554255657e+001,-2.99808694411641e-001

3.83705647730104e+004,-1.34940705328689e+001,-3.03986671592716e-001

3.89061978964912e+004,-1.34940860604086e+001,-3.08222667745063e-001

3.94493081797342e+004,-1.34941020197453e+001,-3.12517480054345e-001

3.99999999999998e+004,-1.34941184227506e+001,-3.16871916304696e-001

4.05583791916010e+004,-1.34941352816143e+001,-3.21286795005079e-001

4.11245530662425e+004,-1.34941526088536e+001,-3.25762945515208e-001

4.16986304336447e+004,-1.34941704173200e+001,-3.30301208178024e-001

4.22807216224550e+004,-1.34941887202093e+001,-3.34902434442306e-001

4.28709385014515e+004,-1.34942075310690e+001,-3.39567486997724e-001

4.34693945010421e+004,-1.34942268638078e+001,-3.44297239902260e-001

4.40762046350642e+004,-1.34942467327047e+001,-3.49092578715180e-001

4.46914855228886e+004,-1.34942671524181e+001,-3.53954400626495e-001

4.53153554118317e+004,-1.34942881379947e+001,-3.58883614594452e-001

4.59479341998812e+004,-1.34943097048802e+001,-3.63881141473192e-001

4.65893434587380e+004,-1.34943318689282e+001,-3.68947914151692e-001

4.72397064571810e+004,-1.34943546464111e+001,-3.74084877685162e-001

4.78991481847569e+004,-1.34943780540291e+001,-3.79292989433559e-001

4.85677953758016e+004,-1.34944021089222e+001,-3.84573219193017e-001

4.92457765337964e+004,-1.34944268286794e+001,-3.89926549336744e-001

4.99332219560642e+004,-1.34944522313506e+001,-3.95353974949638e-001

5.06302637588109e+004,-1.34944783354569e+001,-4.00856503965445e-001

5.13370359025159e+004,-1.34945051600027e+001,-4.06435157303676e-001

5.20536742176771e+004,-1.34945327244863e+001,-4.12090969010897e-001

5.27803164309155e+004,-1.34945610489122e+001,-4.17824986394491e-001

5.35171021914442e+004,-1.34945901538029e+001,-4.23638270163531e-001

5.42641730979066e+004,-1.34946200602107e+001,-4.29531894568086e-001

5.50216727255895e+004,-1.34946507897303e+001,-4.35506947535988e-001

5.57897466540159e+004,-1.34946823645115e+001,-4.41564530810951e-001

5.65685424949235e+004,-1.34947148072714e+001,-4.47705760094927e-001

5.73582099206328e+004,-1.34947481413078e+001,-4.53931765182768e-001

5.81589006928121e+004,-1.34947823905121e+001,-4.60243690102329e-001

5.89707686916437e+004,-1.34948175793827e+001,-4.66642693252739e-001

5.97939699453972e+004,-1.34948537330385e+001,-4.73129947542463e-001

6.06286626604156e+004,-1.34948908772326e+001,-4.79706640526374e-001

6.14750072515201e+004,-1.34949290383666e+001,-4.86373974540899e-001

6.23331663728396e+004,-1.34949682435039e+001,-4.93133166845350e-001

6.32033049490698e+004,-1.34950085203846e+001,-4.99985449752025e-001

6.40855902071694e+004,-1.34950498974398e+001,-5.06932070766151e-001

6.49801917084985e+004,-1.34950924038059e+001,-5.13974292717537e-001

6.58872813814055e+004,-1.34951360693400e+001,-5.21113393893941e-001

6.68070335542691e+004,-1.34951809246341e+001,-5.28350668174707e-001

6.77396249890018e+004,-1.34952270010307e+001,-5.35687425161436e-001

6.86852349150199e+004,-1.34952743306374e+001,-5.43124990308531e-001

6.96440450636895e+004,-1.34953229463428e+001,-5.50664705051568e-001

7.06162397032520e+004,-1.34953728818314e+001,-5.58307926934871e-001

7.16020056742374e+004,-1.34954241715995e+001,-5.66056029737404e-001

7.26015324253724e+004,-1.34954768509704e+001,-5.73910403597687e-001

7.36150120499896e+004,-1.34955309561102e+001,-5.81872455135236e-001

7.46426393229441e+004,-1.34955865240435e+001,-5.89943607571247e-001

7.56846117380472e+004,-1.34956435926690e+001,-5.98125300850272e-001

7.67411295460207e+004,-1.34957022007753e+001,-6.06418991752189e-001

7.78123957929823e+004,-1.34957623880566e+001,-6.14826154010310e-001

7.88986163594682e+004,-1.34958241951282e+001,-6.23348278422048e-001

7.99999999999995e+004,-1.34958876635425e+001,-6.31986872958972e-001

8.11167583832018e+004,-1.34959528358040e+001,-6.40743462874403e-001

8.22491061324848e+004,-1.34960197553851e+001,-6.49619590806557e-001

8.33972608672892e+004,-1.34960884667414e+001,-6.58616816881758e-001

8.45614432449099e+004,-1.34961590153265e+001,-6.67736718812157e-001

8.57418770029029e+004,-1.34962314476072e+001,-6.76980891992432e-001

8.69387890020841e+004,-1.34963058110782e+001,-6.86350949590916e-001

8.81524092701283e+004,-1.34963821542766e+001,-6.95848522639365e-001

8.93829710457770e+004,-1.34964605267956e+001,-7.05475260119859e-001

9.06307108236633e+004,-1.34965409792986e+001,-7.15232829045828e-001

9.18958683997622e+004,-1.34966235635328e+001,-7.25122914541351e-001

9.31786869174758e+004,-1.34967083323416e+001,-7.35147219915325e-001

9.44794129143618e+004,-1.34967953396775e+001,-7.45307466734211e-001

9.57982963695136e+004,-1.34968846406142e+001,-7.55605394887400e-001

9.71355907516031e+004,-1.34969762913573e+001,-7.66042762651091e-001

9.84915530675926e+004,-1.34970703492559e+001,-7.76621346747197e-001

9.98664439121282e+004,-1.34971668728118e+001,-7.87342942399601e-001

1.01260527517622e+005,-1.34972659216896e+001,-7.98209363382045e-001

1.02674071805032e+005,-1.34973675567245e+001,-8.09222442066847e-001

1.04107348435354e+005,-1.34974718399306e+001,-8.20384029464789e-001

1.05560632861831e+005,-1.34975788345066e+001,-8.31695995264750e-001

1.07034204382888e+005,-1.34976886048427e+001,-8.43160227865191e-001

1.08528346195813e+005,-1.34978012165240e+001,-8.54778634403161e-001

1.10043345451179e+005,-1.34979167363347e+001,-8.66553140778694e-001

1.11579493308032e+005,-1.34980352322595e+001,-8.78485691675545e-001

1.13137084989847e+005,-1.34981567734852e+001,-8.90578250575130e-001

1.14716419841265e+005,-1.34982814303995e+001,-9.02832799767693e-001

1.16317801385624e+005,-1.34984092745890e+001,-9.15251340361135e-001

1.17941537383287e+005,-1.34985403788356e+001,-9.27835892282740e-001

1.19587939890794e+005,-1.34986748171110e+001,-9.40588494277737e-001

1.21257325320831e+005,-1.34988126645695e+001,-9.53511203904156e-001

1.22950014503040e+005,-1.34989539975385e+001,-9.66606097526949e-001

1.24666332745679e+005,-1.34990988935083e+001,-9.79875270302008e-001

1.26406609898139e+005,-1.34992474311177e+001,-9.93320836164690e-001

1.28171180414339e+005,-1.34993996901393e+001,-1.00694492781010e+000

1.29960383416997e+005,-1.34995557514617e+001,-1.02074969667250e+000

1.31774562762811e+005,-1.34997156970687e+001,-1.03473731290468e+000

1.33614067108538e+005,-1.34998796100171e+001,-1.04890996535107e+000

1.35479249978003e+005,-1.35000475744107e+001,-1.06326986152295e+000

1.37370469830040e+005,-1.35002196753723e+001,-1.07781922757377e+000

1.39288090127379e+005,-1.35003959990124e+001,-1.09256030826903e+000

1.41232479406504e+005,-1.35005766323947e+001,-1.10749536696365e+000

1.43204011348474e+005,-1.35007616634989e+001,-1.12262668557271e+000

1.45203064850745e+005,-1.35009511811796e+001,-1.13795656455047e+000

1.47230024099979e+005,-1.35011452751221e+001,-1.15348732286866e+000

1.49285278645888e+005,-1.35013440357946e+001,-1.16922129799690e+000

1.51369223476094e+005,-1.35015475543970e+001,-1.18516084588927e+000

1.53482259092041e+005,-1.35017559228049e+001,-1.20130834097764e+000

1.55624791585964e+005,-1.35019692335109e+001,-1.21766617616653e+000

1.57797232718936e+005,-1.35021875795609e+001,-1.23423676283755e+000

1.59999999999999e+005,-1.35024110544866e+001,-1.25102253086417e+000

1.62233516766403e+005,-1.35026397522339e+001,-1.26802592863270e+000

1.64498212264969e+005,-1.35028737670860e+001,-1.28524942307746e+000

1.66794521734578e+005,-1.35031131935835e+001,-1.30269549972309e+000

1.69122886489819e+005,-1.35033581264377e+001,-1.32036666274825e+000

1.71483754005805e+005,-1.35036086604419e+001,-1.33826543505708e+000

1.73877578004168e+005,-1.35038648903748e+001,-1.35639435837351e+000

1.76304818540256e+005,-1.35041269109020e+001,-1.37475599334936e+000

1.78765942091554e+005,-1.35043948164702e+001,-1.39335291969661e+000

1.81261421647326e+005,-1.35046687011973e+001,-1.41218773633999e+000

1.83791736799524e+005,-1.35049486587580e+001,-1.43126306159466e+000

1.86357373834951e+005,-1.35052347822626e+001,-1.45058153336904e+000

1.88958825828723e+005,-1.35055271641327e+001,-1.47014580939753e+000

1.91596592739027e+005,-1.35058258959698e+001,-1.48995856750203e+000

1.94271181503206e+005,-1.35061310684199e+001,-1.51002250588855e+000

1.96983106135185e+005,-1.35064427710327e+001,-1.53034034347573e+000

1.99732887824256e+005,-1.35067610921153e+001,-1.55091482026430e+000

2.02521055035243e+005,-1.35070861185813e+001,-1.57174869774325e+000

2.05348143610063e+005,-1.35074179357945e+001,-1.59284475934157e+000

2.08214696870707e+005,-1.35077566274081e+001,-1.61420581092141e+000

2.11121265723661e+005,-1.35081022751983e+001,-1.63583468132219e+000

2.14068408765776e+005,-1.35084549588947e+001,-1.65773422295256e+000

2.17056692391625e+005,-1.35088147560042e+001,-1.67990731243688e+000

2.20086690902357e+005,-1.35091817416326e+001,-1.70235685131543e+000

2.23158986616063e+005,-1.35095559883007e+001,-1.72508576680444e+000

2.26274169979693e+005,-1.35099375657572e+001,-1.74809701261682e+000

2.29432839682530e+005,-1.35103265407879e+001,-1.77139356984432e+000

2.32635602771247e+005,-1.35107229770214e+001,-1.79497844791000e+000

2.35883074766574e+005,-1.35111269347323e+001,-1.81885468558535e+000

2.39175879781588e+005,-1.35115384706413e+001,-1.84302535208180e+000

2.42514650641661e+005,-1.35119576377135e+001,-1.86749354821565e+000

2.45900029006080e+005,-1.35123844849547e+001,-1.89226240764701e+000

2.49332665491357e+005,-1.35128190572068e+001,-1.91733509820056e+000

2.52813219796278e+005,-1.35132613949412e+001,-1.94271482326670e+000

2.56342360828676e+005,-1.35137115340541e+001,-1.96840482328245e+000

2.59920766833993e+005,-1.35141695056590e+001,-1.99440837730284e+000

2.63549125525621e+005,-1.35146353358831e+001,-2.02072880465360e+000

2.67228134217075e+005,-1.35151090456629e+001,-2.04736946667602e+000

2.70958499956006e+005,-1.35155906505428e+001,-2.07433376855943e+000

2.74740939660078e+005,-1.35160801604765e+001,-2.10162516126581e+000

2.78576180254757e+005,-1.35165775796313e+001,-2.12924714354505e+000

2.82464958813007e+005,-1.35170829061968e+001,-2.15720326404390e+000

2.86408022696948e+005,-1.35175961321988e+001,-2.18549712350733e+000

2.90406129701488e+005,-1.35181172433179e+001,-2.21413237707330e+000

2.94460048199957e+005,-1.35186462187158e+001,-2.24311273665938e+000

2.98570557291775e+005,-1.35191830308670e+001,-2.27244197344383e+000

3.02738446952187e+005,-1.35197276454008e+001,-2.30212392043546e+000

3.06964518184081e+005,-1.35202800209493e+001,-2.33216247513666e+000

3.11249583171928e+005,-1.35208401090075e+001,-2.36256160229328e+000

3.15594465437872e+005,-1.35214078538023e+001,-2.39332533673233e+000

3.19999999999997e+005,-1.35219831921729e+001,-2.42445778628403e+000

3.24467033532806e+005,-1.35225660534639e+001,-2.45596313478535e+000

3.28996424529938e+005,-1.35231563594300e+001,-2.48784564516347e+000

3.33589043469155e+005,-1.35237540241553e+001,-2.52010966259223e+000

3.38245772979638e+005,-1.35243589539863e+001,-2.55275961772411e+000

3.42967508011610e+005,-1.35249710474798e+001,-2.58580002998485e+000

3.47755156008335e+005,-1.35255901953672e+001,-2.61923551093261e+000

3.52609637080511e+005,-1.35262162805340e+001,-2.65307076767622e+000

3.57531884183106e+005,-1.35268491780171e+001,-2.68731060634271e+000

3.62522843294651e+005,-1.35274887550193e+001,-2.72195993559211e+000

3.67583473599047e+005,-1.35281348709418e+001,-2.75702377017431e+000

3.72714747669902e+005,-1.35287873774351e+001,-2.79250723451647e+000

3.77917651657445e+005,-1.35294461184684e+001,-2.82841556634077e+000

3.83193185478053e+005,-1.35301109304187e+001,-2.86475412030081e+000

3.88542363006410e+005,-1.35307816421793e+001,-2.90152837163043e+000

3.93966212270369e+005,-1.35314580752872e+001,-2.93874391980011e+000

3.99465775648511e+005,-1.35321400440705e+001,-2.97640649216987e+000

4.05042110070485e+005,-1.35328273558159e+001,-3.01452194763248e+000

4.10696287220124e+005,-1.35335198109552e+001,-3.05309628024161e+000

4.16429393741414e+005,-1.35342172032719e+001,-3.09213562281026e+000

4.22242531447321e+005,-1.35349193201260e+001,-3.13164625048180e+000

4.28136817531551e+005,-1.35356259426993e+001,-3.17163458425463e+000

4.34113384783250e+005,-1.35363368462574e+001,-3.21210719446257e+000

4.40173381804713e+005,-1.35370518004316e+001,-3.25307080419591e+000

4.46317973232124e+005,-1.35377705695164e+001,-3.29453229266143e+000

4.52548339959385e+005,-1.35384929127853e+001,-3.33649869846865e+000

4.58865679365059e+005,-1.35392185848216e+001,-3.37897722284168e+000

4.65271205542494e+005,-1.35399473358648e+001,-3.42197523274348e+000

4.71766149533147e+005,-1.35406789121714e+001,-3.46550026391174e+000

4.78351759563174e+005,-1.35414130563885e+001,-3.50956002379759e+000

4.85029301283321e+005,-1.35421495079401e+001,-3.55416239440098e+000

4.91800058012158e+005,-1.35428880034245e+001,-3.59931543500159e+000

4.98665330982714e+005,-1.35436282770211e+001,-3.64502738477602e+000

5.05626439592555e+005,-1.35443700609065e+001,-3.69130666530173e+000

5.12684721657352e+005,-1.35451130856780e+001,-3.73816188294076e+000

5.19841533667984e+005,-1.35458570807825e+001,-3.78560183110353e+000

5.27098251051240e+005,-1.35466017749511e+001,-3.83363549238813e+000

5.34456268434150e+005,-1.35473468966365e+001,-3.88227204059510e+000

5.41916999912011e+005,-1.35480921744525e+001,-3.93152084261732e+000

