Freq.,VOut,OutRef

1.00000000000000e+004,-1.93884405712108e+001,-1.33132038398146e-001

1.01395947979003e+004,-1.93884419094868e+001,-1.34990339902951e-001

1.02811382665607e+004,-1.93884432853616e+001,-1.36874575858740e-001

1.04246576084112e+004,-1.93884446998912e+001,-1.38785108019065e-001

1.05701804056138e+004,-1.93884461541603e+001,-1.40722303182575e-001

1.07177346253629e+004,-1.93884476492849e+001,-1.42686533250428e-001

1.08673486252606e+004,-1.93884491864117e+001,-1.44678175305213e-001

1.10190511587661e+004,-1.93884507667197e+001,-1.46697611680623e-001

1.11728713807222e+004,-1.93884523914214e+001,-1.48745230031064e-001

1.13288388529580e+004,-1.93884540617625e+001,-1.50821423410824e-001

1.14869835499703e+004,-1.93884557790241e+001,-1.52926590346104e-001

1.16473358646846e+004,-1.93884575445231e+001,-1.55061134907910e-001

1.18099266142953e+004,-1.93884593596132e+001,-1.57225466795955e-001

1.19747870461893e+004,-1.93884612256863e+001,-1.59420001406965e-001

1.21419488439505e+004,-1.93884631441727e+001,-1.61645159924892e-001

1.23114441334492e+004,-1.93884651165436e+001,-1.63901369388632e-001

1.24833054890161e+004,-1.93884671443107e+001,-1.66189062783447e-001

1.26575659397028e+004,-1.93884692290282e+001,-1.68508679118163e-001

1.28342589756290e+004,-1.93884713722943e+001,-1.70860663506141e-001

1.30134185544193e+004,-1.93884735757512e+001,-1.73245467257195e-001

1.31950791077289e+004,-1.93884758410874e+001,-1.75663547955945e-001

1.33792755478611e+004,-1.93884781700388e+001,-1.78115369551475e-001

1.35660432744767e+004,-1.93884805643898e+001,-1.80601402443295e-001

1.37554181813974e+004,-1.93884830259747e+001,-1.83122123574837e-001

1.39474366635040e+004,-1.93884855566789e+001,-1.85678016519556e-001

1.41421356237309e+004,-1.93884881584410e+001,-1.88269571572050e-001

1.43395524801583e+004,-1.93884908332537e+001,-1.90897285842809e-001

1.45397251732031e+004,-1.93884935831649e+001,-1.93561663353780e-001

1.47426921729110e+004,-1.93884964102805e+001,-1.96263215128723e-001

1.49484924863494e+004,-1.93884993167647e+001,-1.99002459293428e-001

1.51571656651040e+004,-1.93885023048429e+001,-2.01779921170363e-001

1.53687518128801e+004,-1.93885053768017e+001,-2.04596133383632e-001

1.55832915932100e+004,-1.93885085349926e+001,-2.07451635950013e-001

1.58008262372675e+004,-1.93885117818323e+001,-2.10346976389975e-001

1.60213975517924e+004,-1.93885151198048e+001,-2.13282709825862e-001

1.62450479271247e+004,-1.93885185514641e+001,-2.16259399085360e-001

1.64718203453514e+004,-1.93885220794350e+001,-2.19277614811551e-001

1.67017583885674e+004,-1.93885257064158e+001,-2.22337935565723e-001

1.69349062472505e+004,-1.93885294351802e+001,-2.25440947939158e-001

1.71713087287550e+004,-1.93885332685790e+001,-2.28587246661676e-001

1.74110112659224e+004,-1.93885372095428e+001,-2.31777434713995e-001

1.76540599258131e+004,-1.93885412610841e+001,-2.35012123438138e-001

1.79005014185594e+004,-1.93885454262990e+001,-2.38291932656350e-001

1.81503831063432e+004,-1.93885497083702e+001,-2.41617490784519e-001

1.84037530124975e+004,-1.93885541105695e+001,-2.44989434946731e-001

1.86606598307361e+004,-1.93885586362589e+001,-2.48408411102693e-001

1.89211529345119e+004,-1.93885632888951e+001,-2.51875074158592e-001

1.91852823865052e+004,-1.93885680720304e+001,-2.55390088096392e-001

1.94530989482457e+004,-1.93885729893166e+001,-2.58954126092039e-001

1.97246540898671e+004,-1.93885780445067e+001,-2.62567870646556e-001

1.99999999999999e+004,-1.93885832414585e+001,-2.66232013708671e-001

2.02791895958005e+004,-1.93885885841371e+001,-2.69947256805218e-001

2.05622765331213e+004,-1.93885940766174e+001,-2.73714311172393e-001

2.08493152168224e+004,-1.93885997230887e+001,-2.77533897882642e-001

2.11403608112276e+004,-1.93886055278558e+001,-2.81406747986194e-001

2.14354692507258e+004,-1.93886114953436e+001,-2.85333602639736e-001

2.17346972505211e+004,-1.93886176300998e+001,-2.89315213247202e-001

2.20381023175322e+004,-1.93886239367985e+001,-2.93352341597034e-001

2.23457427614443e+004,-1.93886304202438e+001,-2.97445760002647e-001

2.26576777059159e+004,-1.93886370853726e+001,-3.01596251446521e-001

2.29739670999406e+004,-1.93886439372594e+001,-3.05804609721857e-001

2.32946717293690e+004,-1.93886509811190e+001,-3.10071639580871e-001

2.36198532285905e+004,-1.93886582223110e+001,-3.14398156880229e-001

2.39495740923785e+004,-1.93886656663437e+001,-3.18784988732933e-001

2.42838976879009e+004,-1.93886733188778e+001,-3.23232973658375e-001

2.46228882668982e+004,-1.93886811857306e+001,-3.27742961737701e-001

2.49666109780322e+004,-1.93886892728807e+001,-3.32315814766558e-001

2.53151318794055e+004,-1.93886975864722e+001,-3.36952406413111e-001

2.56685179512580e+004,-1.93887061328187e+001,-3.41653622378704e-001

2.60268371088386e+004,-1.93887149184090e+001,-3.46420360556380e-001

2.63901582154578e+004,-1.93887239499108e+001,-3.51253531195457e-001

2.67585510957221e+004,-1.93887332341756e+001,-3.56154057069185e-001

2.71320865489533e+004,-1.93887427782447e+001,-3.61122873635363e-001

2.75108363627948e+004,-1.93887525893533e+001,-3.66160929211175e-001

2.78948733270080e+004,-1.93887626749362e+001,-3.71269185141601e-001

2.82842712474618e+004,-1.93887730426330e+001,-3.76448615972860e-001

2.86791049603164e+004,-1.93887837002939e+001,-3.81700209629406e-001

2.90794503464061e+004,-1.93887946559849e+001,-3.87024967587346e-001

2.94853843458219e+004,-1.93888059179943e+001,-3.92423905057806e-001

2.98969849726987e+004,-1.93888174948380e+001,-3.97898051165258e-001

3.03143313302078e+004,-1.93888293952660e+001,-4.03448449132544e-001

3.07375036257601e+004,-1.93888416282686e+001,-4.09076156467746e-001

3.11665831864199e+004,-1.93888542030826e+001,-4.14782245148923e-001

3.16016524745350e+004,-1.93888671291984e+001,-4.20567801816589e-001

3.20427951035848e+004,-1.93888804163661e+001,-4.26433927964716e-001

3.24900958542493e+004,-1.93888940746032e+001,-4.32381740135387e-001

3.29436406907028e+004,-1.93889081142008e+001,-4.38412370114303e-001

3.34035167771346e+004,-1.93889225457319e+001,-4.44526965130445e-001

3.38698124945009e+004,-1.93889373800579e+001,-4.50726688057224e-001

3.43426174575100e+004,-1.93889526283369e+001,-4.57012717614412e-001

3.48220225318448e+004,-1.93889683020313e+001,-4.63386248573166e-001

3.53081198516260e+004,-1.93889844129157e+001,-4.69848491965359e-001

3.58010028371187e+004,-1.93890009730854e+001,-4.76400675291475e-001

3.63007662126863e+004,-1.93890179949649e+001,-4.83044042731530e-001

3.68075060249948e+004,-1.93890354913157e+001,-4.89779855363424e-001

3.73213196614721e+004,-1.93890534752465e+001,-4.96609391374786e-001

3.78423058690237e+004,-1.93890719602209e+001,-5.03533946283963e-001

3.83705647730104e+004,-1.93890909600678e+001,-5.10554833158944e-001

3.89061978964912e+004,-1.93891104889899e+001,-5.17673382843312e-001

3.94493081797342e+004,-1.93891305615742e+001,-5.24890944178718e-001

3.99999999999998e+004,-1.93891511928015e+001,-5.32208884234529e-001

4.05583791916010e+004,-1.93891723980565e+001,-5.39628588535634e-001

4.11245530662425e+004,-1.93891941931386e+001,-5.47151461296132e-001

4.16986304336447e+004,-1.93892165942724e+001,-5.54778925651815e-001

4.22807216224550e+004,-1.93892396181182e+001,-5.62512423898411e-001

4.28709385014515e+004,-1.93892632817837e+001,-5.70353417729170e-001

4.34693945010421e+004,-1.93892876028350e+001,-5.78303388474831e-001

4.40762046350642e+004,-1.93893125993085e+001,-5.86363837347472e-001

4.46914855228886e+004,-1.93893382897225e+001,-5.94536285687351e-001

4.53153554118317e+004,-1.93893646930898e+001,-6.02822275205605e-001

4.59479341998812e+004,-1.93893918289296e+001,-6.11223368238013e-001

4.65893434587380e+004,-1.93894197172805e+001,-6.19741147994538e-001

4.72397064571810e+004,-1.93894483787136e+001,-6.28377218813721e-001

4.78991481847569e+004,-1.93894778343454e+001,-6.37133206416044e-001

4.85677953758016e+004,-1.93895081058516e+001,-6.46010758165234e-001

4.92457765337964e+004,-1.93895392154807e+001,-6.55011543324596e-001

4.99332219560642e+004,-1.93895711860681e+001,-6.64137253320820e-001

5.06302637588109e+004,-1.93896040410510e+001,-6.73389602006058e-001

5.13370359025159e+004,-1.93896378044819e+001,-6.82770325925686e-001

5.20536742176771e+004,-1.93896725010448e+001,-6.92281184582317e-001

5.27803164309155e+004,-1.93897081560697e+001,-7.01923960708916e-001

5.35171021914442e+004,-1.93897447955484e+001,-7.11700460536188e-001

5.42641730979066e+004,-1.93897824461502e+001,-7.21612514068731e-001

5.50216727255895e+004,-1.93898211352381e+001,-7.31661975356732e-001

5.57897466540159e+004,-1.93898608908851e+001,-7.41850722774619e-001

5.65685424949235e+004,-1.93899017418912e+001,-7.52180659296299e-001

5.73582099206328e+004,-1.93899437178002e+001,-7.62653712777150e-001

5.81589006928121e+004,-1.93899868489169e+001,-7.73271836233307e-001

5.89707686916437e+004,-1.93900311663248e+001,-7.84037008124953e-001

5.97939699453972e+004,-1.93900767019043e+001,-7.94951232638575e-001

6.06286626604156e+004,-1.93901234883502e+001,-8.06016539974369e-001

6.14750072515201e+004,-1.93901715591909e+001,-8.17234986630163e-001

6.23331663728396e+004,-1.93902209488064e+001,-8.28608655691395e-001

6.32033049490698e+004,-1.93902716924482e+001,-8.40139657116509e-001

6.40855902071694e+004,-1.93903238262578e+001,-8.51830128031213e-001

6.49801917084985e+004,-1.93903773872865e+001,-8.63682233014993e-001

6.58872813814055e+004,-1.93904324135156e+001,-8.75698164394797e-001

6.68070335542691e+004,-1.93904889438760e+001,-8.87880142536983e-001

6.77396249890018e+004,-1.93905470182689e+001,-9.00230416140099e-001

6.86852349150199e+004,-1.93906066775859e+001,-9.12751262530874e-001

6.96440450636895e+004,-1.93906679637303e+001,-9.25444987953812e-001

7.06162397032520e+004,-1.93907309196378e+001,-9.38313927871223e-001

7.16020056742374e+004,-1.93907955892979e+001,-9.51360447255484e-001

7.26015324253724e+004,-1.93908620177753e+001,-9.64586940884019e-001

7.36150120499896e+004,-1.93909302512310e+001,-9.77995833637112e-001

7.46426393229441e+004,-1.93910003369449e+001,-9.91589580792029e-001

7.56846117380472e+004,-1.93910723233370e+001,-1.00537066831885e+000

7.67411295460207e+004,-1.93911462599899e+001,-1.01934161317511e+000

7.78123957929823e+004,-1.93912221976703e+001,-1.03350496360345e+000

7.88986163594682e+004,-1.93913001883519e+001,-1.04786329942444e+000

7.99999999999995e+004,-1.93913802852373e+001,-1.06241923233144e+000

8.11167583832018e+004,-1.93914625427803e+001,-1.07717540618443e+000

8.22491061324848e+004,-1.93915470167086e+001,-1.09213449730361e+000

8.33972608672892e+004,-1.93916337640453e+001,-1.10729921476186e+000

8.45614432449099e+004,-1.93917228431321e+001,-1.12267230067570e+000

8.57418770029029e+004,-1.93918143136509e+001,-1.13825653049641e+000

8.69387890020841e+004,-1.93919082366459e+001,-1.15405471329899e+000

8.81524092701283e+004,-1.93920046745457e+001,-1.17006969207112e+000

8.93829710457770e+004,-1.93921036911850e+001,-1.18630434399906e+000

9.06307108236633e+004,-1.93922053518261e+001,-1.20276158075439e+000

9.18958683997622e+004,-1.93923097231798e+001,-1.21944434877744e+000

9.31786869174758e+004,-1.93924168734269e+001,-1.23635562956040e+000

9.44794129143618e+004,-1.93925268722382e+001,-1.25349843992685e+000

9.57982963695136e+004,-1.93926397907950e+001,-1.27087583231267e+000

9.71355907516031e+004,-1.93927557018084e+001,-1.28849089504254e+000

9.84915530675926e+004,-1.93928746795389e+001,-1.30634675260546e+000

9.98664439121282e+004,-1.93929967998142e+001,-1.32444656592919e+000

1.01260527517622e+005,-1.93931221400482e+001,-1.34279353264999e+000

1.02674071805032e+005,-1.93932507792569e+001,-1.36139088738452e+000

1.04107348435354e+005,-1.93933827980759e+001,-1.38024190199627e+000

1.05560632861831e+005,-1.93935182787750e+001,-1.39934988586289e+000

1.07034204382888e+005,-1.93936573052736e+001,-1.41871818613706e+000

1.08528346195813e+005,-1.93937999631540e+001,-1.43835018801135e+000

1.10043345451179e+005,-1.93939463396735e+001,-1.45824931497664e+000

1.11579493308032e+005,-1.93940965237767e+001,-1.47841902908018e+000

1.13137084989847e+005,-1.93942506061046e+001,-1.49886283118251e+000

1.14716419841265e+005,-1.93944086790038e+001,-1.51958426121238e+000

1.16317801385624e+005,-1.93945708365340e+001,-1.54058689841834e+000

1.17941537383287e+005,-1.93947371744731e+001,-1.56187436162344e+000

1.19587939890794e+005,-1.93949077903223e+001,-1.58345030947285e+000

1.21257325320831e+005,-1.93950827833072e+001,-1.60531844068660e+000

1.22950014503040e+005,-1.93952622543795e+001,-1.62748249430677e+000

1.24666332745679e+005,-1.93954463062148e+001,-1.64994624994669e+000

1.26406609898139e+005,-1.93956350432093e+001,-1.67271352804071e+000

1.28171180414339e+005,-1.93958285714741e+001,-1.69578819009223e+000

1.29960383416997e+005,-1.93960269988269e+001,-1.71917413892445e+000

1.31774562762811e+005,-1.93962304347821e+001,-1.74287531892963e+000

1.33614067108538e+005,-1.93964389905371e+001,-1.76689571632452e+000

1.35479249978003e+005,-1.93966527789569e+001,-1.79123935940318e+000

1.37370469830040e+005,-1.93968719145556e+001,-1.81591031879575e+000

1.39288090127379e+005,-1.93970965134747e+001,-1.84091270772973e+000

1.41232479406504e+005,-1.93973266934591e+001,-1.86625068229516e+000

1.43204011348474e+005,-1.93975625738283e+001,-1.89192844171637e+000

1.45203064850745e+005,-1.93978042754463e+001,-1.91795022862701e+000

1.47230024099979e+005,-1.93980519206866e+001,-1.94432032935477e+000

1.49285278645888e+005,-1.93983056333941e+001,-1.97104307421059e+000

1.51369223476094e+005,-1.93985655388429e+001,-1.99812283779084e+000

1.53482259092041e+005,-1.93988317636910e+001,-2.02556403928537e+000

1.55624791585964e+005,-1.93991044359302e+001,-2.05337114279852e+000

1.57797232718936e+005,-1.93993836848322e+001,-2.08154865768351e+000

1.59999999999999e+005,-1.93996696408905e+001,-2.11010113888856e+000

1.62233516766403e+005,-1.93999624357581e+001,-2.13903318731908e+000

1.64498212264969e+005,-1.94002622021801e+001,-2.16834945021770e+000

1.66794521734578e+005,-1.94005690739222e+001,-2.19805462156069e+000

1.69122886489819e+005,-1.94008831856948e+001,-2.22815344247646e+000

1.71483754005805e+005,-1.94012046730715e+001,-2.25865070168341e+000

1.73877578004168e+005,-1.94015336724034e+001,-2.28955123595471e+000

1.76304818540256e+005,-1.94018703207282e+001,-2.32085993060605e+000

1.78765942091554e+005,-1.94022147556740e+001,-2.35258172001248e+000

1.81261421647326e+005,-1.94025671153590e+001,-2.38472158815521e+000

1.83791736799524e+005,-1.94029275382846e+001,-2.41728456920026e+000

1.86357373834951e+005,-1.94032961632248e+001,-2.45027574811200e+000

1.88958825828723e+005,-1.94036731291094e+001,-2.48370026130256e+000

1.91596592739027e+005,-1.94040585749029e+001,-2.51756329732259e+000

1.94271181503206e+005,-1.94044526394773e+001,-2.55187009759252e+000

1.96983106135185e+005,-1.94048554614806e+001,-2.58662595717915e+000

1.99732887824256e+005,-1.94052671792001e+001,-2.62183622562029e+000

2.02521055035243e+005,-1.94056879304205e+001,-2.65750630779722e+000

2.05348143610063e+005,-1.94061178522772e+001,-2.69364166486416e+000

2.08214696870707e+005,-1.94065570811053e+001,-2.73024781523067e+000

2.11121265723661e+005,-1.94070057522830e+001,-2.76733033560489e+000

2.14068408765776e+005,-1.94074640000724e+001,-2.80489486209712e+000

2.17056692391625e+005,-1.94079319574541e+001,-2.84294709139066e+000

2.20086690902357e+005,-1.94084097559592e+001,-2.88149278197976e+000

2.23158986616063e+005,-1.94088975254971e+001,-2.92053775547829e+000

2.26274169979693e+005,-1.94093953941806e+001,-2.96008789800401e+000

2.29432839682530e+005,-1.94099034881465e+001,-3.00014916163975e+000

2.32635602771247e+005,-1.94104219313752e+001,-3.04072756597515e+000

2.35883074766574e+005,-1.94109508455075e+001,-3.08182919973131e+000

2.39175879781588e+005,-1.94114903496587e+001,-3.12346022247356e+000

2.42514650641661e+005,-1.94120405602325e+001,-3.16562686641147e+000

2.45900029006080e+005,-1.94126015907340e+001,-3.20833543829155e+000

2.49332665491357e+005,-1.94131735515812e+001,-3.25159232138738e+000

2.52813219796278e+005,-1.94137565499184e+001,-3.29540397758210e+000

2.56342360828676e+005,-1.94143506894295e+001,-3.33977694955474e+000

2.59920766833993e+005,-1.94149560701531e+001,-3.38471786306711e+000

2.63549125525621e+005,-1.94155727882998e+001,-3.43023342935402e+000

2.67228134217075e+005,-1.94162009360731e+001,-3.47633044761983e+000

2.70958499956006e+005,-1.94168406014930e+001,-3.52301580764356e+000

2.74740939660078e+005,-1.94174918682247e+001,-3.57029649248986e+000

2.78576180254757e+005,-1.94181548154131e+001,-3.61817958133377e+000

2.82464958813007e+005,-1.94188295175224e+001,-3.66667225239163e+000

2.86408022696948e+005,-1.94195160441841e+001,-3.71578178596735e+000

2.90406129701488e+005,-1.94202144600513e+001,-3.76551556760712e+000

2.94460048199957e+005,-1.94209248246641e+001,-3.81588109136582e+000

2.98570557291775e+005,-1.94216471923226e+001,-3.86688596318496e+000

3.02738446952187e+005,-1.94223816119717e+001,-3.91853790437870e+000

3.06964518184081e+005,-1.94231281270983e+001,-3.97084475522904e+000

3.11249583171928e+005,-1.94238867756397e+001,-4.02381447868656e+000

3.15594465437872e+005,-1.94246575899069e+001,-4.07745516417633e+000

3.19999999999997e+005,-1.94254405965217e+001,-4.13177503150491e+000

3.24467033532806e+005,-1.94262358163699e+001,-4.18678243486575e+000

3.28996424529938e+005,-1.94270432645705e+001,-4.24248586693960e+000

3.33589043469155e+005,-1.94278629504630e+001,-4.29889396308623e+000

3.38245772979638e+005,-1.94286948776124e+001,-4.35601550562283e+000

3.42967508011610e+005,-1.94295390438335e+001,-4.41385942818316e+000

3.47755156008335e+005,-1.94303954412357e+001,-4.47243482015444e+000

3.52609637080511e+005,-1.94312640562877e+001,-4.53175093118387e+000

3.57531884183106e+005,-1.94321448699048e+001,-4.59181717575069e+000

3.62522843294651e+005,-1.94330378575576e+001,-4.65264313779509e+000

3.67583473599047e+005,-1.94339429894043e+001,-4.71423857539786e+000

3.72714747669902e+005,-1.94348602304455e+001,-4.77661342550621e+000

3.77917651657445e+005,-1.94357895407042e+001,-4.83977780869179e+000

3.83193185478053e+005,-1.94367308754289e+001,-4.90374203394028e+000

3.88542363006410e+005,-1.94376841853226e+001,-4.96851660345822e+000

3.93966212270369e+005,-1.94386494167961e+001,-5.03411221749298e+000

3.99465775648511e+005,-1.94396265122465e+001,-5.10053977915376e+000

4.05042110070485e+005,-1.94406154103620e+001,-5.16781039922808e+000

4.10696287220124e+005,-1.94416160464501e+001,-5.23593540098231e+000

4.16429393741414e+005,-1.94426283527932e+001,-5.30492632493766e+000

4.22242531447321e+005,-1.94436522590278e+001,-5.37479493361389e+000

4.28136817531551e+005,-1.94446876925490e+001,-5.44555321623087e+000

4.34113384783250e+005,-1.94457345789393e+001,-5.51721339335787e+000

4.40173381804713e+005,-1.94467928424215e+001,-5.58978792150459e+000

4.46317973232124e+005,-1.94478624063344e+001,-5.66328949764325e+000

4.52548339959385e+005,-1.94489431936323e+001,-5.73773106365289e+000

4.58865679365059e+005,-1.94500351274050e+001,-5.81312581068051e+000

4.65271205542494e+005,-1.94511381314202e+001,-5.88948718340805e+000

4.71766149533147e+005,-1.94522521306852e+001,-5.96682888422038e+000

4.78351759563174e+005,-1.94533770520281e+001,-6.04516487726658e+000

4.85029301283321e+005,-1.94545128246972e+001,-6.12450939240679e+000

4.91800058012158e+005,-1.94556593809766e+001,-6.20487692904140e+000

4.98665330982714e+005,-1.94568166568188e+001,-6.28628225981443e+000

5.05626439592555e+005,-1.94579845924901e+001,-6.36874043418903e+000

5.12684721657352e+005,-1.94591631332303e+001,-6.45226678188824e+000

5.19841533667984e+005,-1.94603522299236e+001,-6.53687691619958e+000

5.27098251051240e+005,-1.94615518397795e+001,-6.62258673714098e+000

5.34456268434150e+005,-1.94627619270232e+001,-6.70941243448304e+000

5.41916999912011e+005,-1.94639824635930e+001,-6.79737049063062e+000

