Freq.,VOut,OutRef

1.00000000000000e+004,-2.32824387634360e+001,-5.24556668279128e-001

1.01395947979003e+004,-2.32824433464889e+001,-5.31878965150937e-001

1.02811382665607e+004,-2.32824480583583e+001,-5.39303467233215e-001

1.04246576084112e+004,-2.32824529026641e+001,-5.46831600822825e-001

1.05701804056138e+004,-2.32824578831279e+001,-5.54464812107520e-001

1.07177346253629e+004,-2.32824630035753e+001,-5.62204567446251e-001

1.08673486252606e+004,-2.32824682679401e+001,-5.70052353644616e-001

1.10190511587661e+004,-2.32824736802659e+001,-5.78009678245264e-001

1.11728713807222e+004,-2.32824792447104e+001,-5.86078069810951e-001

1.13288388529580e+004,-2.32824849655477e+001,-5.94259078221253e-001

1.14869835499703e+004,-2.32824908471721e+001,-6.02554274967153e-001

1.16473358646846e+004,-2.32824968941011e+001,-6.10965253452263e-001

1.18099266142953e+004,-2.32825031109793e+001,-6.19493629297657e-001

1.19747870461893e+004,-2.32825095025815e+001,-6.28141040650769e-001

1.21419488439505e+004,-2.32825160738167e+001,-6.36909148497986e-001

1.23114441334492e+004,-2.32825228297317e+001,-6.45799636984811e-001

1.24833054890161e+004,-2.32825297755150e+001,-6.54814213734689e-001

1.26575659397028e+004,-2.32825369165006e+001,-6.63954610177591e-001

1.28342589756290e+004,-2.32825442581726e+001,-6.73222581879970e-001

1.30134185544193e+004,-2.32825518061687e+001,-6.82619908881418e-001

1.31950791077289e+004,-2.32825595662851e+001,-6.92148396033274e-001

1.33792755478611e+004,-2.32825675444805e+001,-7.01809873344843e-001

1.35660432744767e+004,-2.32825757468809e+001,-7.11606196332821e-001

1.37554181813974e+004,-2.32825841797844e+001,-7.21539246374317e-001

1.39474366635040e+004,-2.32825928496657e+001,-7.31610931067655e-001

1.41421356237309e+004,-2.32826017631813e+001,-7.41823184596960e-001

1.43395524801583e+004,-2.32826109271745e+001,-7.52177968099443e-001

1.45397251732031e+004,-2.32826203486806e+001,-7.62677270041174e-001

1.47426921729110e+004,-2.32826300349322e+001,-7.73323106597019e-001

1.49484924863494e+004,-2.32826399933650e+001,-7.84117522034025e-001

1.51571656651040e+004,-2.32826502316234e+001,-7.95062589101074e-001

1.53687518128801e+004,-2.32826607575661e+001,-8.06160409426204e-001

1.55832915932100e+004,-2.32826715792723e+001,-8.17413113915916e-001

1.58008262372675e+004,-2.32826827050480e+001,-8.28822863160667e-001

1.60213975517924e+004,-2.32826941434318e+001,-8.40391847849433e-001

1.62450479271247e+004,-2.32827059032024e+001,-8.52122289183972e-001

1.64718203453514e+004,-2.32827179933841e+001,-8.64016439303371e-001

1.67017583885674e+004,-2.32827304232547e+001,-8.76076581713483e-001

1.69349062472505e+004,-2.32827432023521e+001,-8.88305031721010e-001

1.71713087287550e+004,-2.32827563404816e+001,-9.00704136873311e-001

1.74110112659224e+004,-2.32827698477234e+001,-9.13276277408319e-001

1.76540599258131e+004,-2.32827837344404e+001,-9.26023866703603e-001

1.79005014185594e+004,-2.32827980112862e+001,-9.38949351737383e-001

1.81503831063432e+004,-2.32828126892126e+001,-9.52055213554041e-001

1.84037530124975e+004,-2.32828277794787e+001,-9.65343967734449e-001

1.86606598307361e+004,-2.32828432936593e+001,-9.78818164875620e-001

1.89211529345119e+004,-2.32828592436533e+001,-9.92480391073300e-001

1.91852823865052e+004,-2.32828756416933e+001,-1.00633326841511e+000

1.94530989482457e+004,-2.32828925003544e+001,-1.02037945547694e+000

1.97246540898671e+004,-2.32829098325643e+001,-1.03462164782772e+000

1.99999999999999e+004,-2.32829276516128e+001,-1.04906257854141e+000

2.02791895958005e+004,-2.32829459711619e+001,-1.06370501871425e+000

2.05622765331213e+004,-2.32829648052564e+001,-1.07855177799161e+000

2.08493152168224e+004,-2.32829841683345e+001,-1.09360570509833e+000

2.11403608112276e+004,-2.32830040752385e+001,-1.10886968838089e+000

2.14354692507258e+004,-2.32830245412266e+001,-1.12434665635205e+000

2.17346972505211e+004,-2.32830455819840e+001,-1.14003957824603e+000

2.20381023175322e+004,-2.32830672136351e+001,-1.15595146458054e+000

2.23457427614443e+004,-2.32830894527556e+001,-1.17208536772616e+000

2.26576777059159e+004,-2.32831123163852e+001,-1.18844438248181e+000

2.29739670999406e+004,-2.32831358220405e+001,-1.20503164666152e+000

2.32946717293690e+004,-2.32831599877281e+001,-1.22185034168600e+000

2.36198532285905e+004,-2.32831848319584e+001,-1.23890369318277e+000

2.39495740923785e+004,-2.32832103737597e+001,-1.25619497159545e+000

2.42838976879009e+004,-2.32832366326926e+001,-1.27372749279965e+000

2.46228882668982e+004,-2.32832636288645e+001,-1.29150461872877e+000

2.49666109780322e+004,-2.32832913829451e+001,-1.30952975800646e+000

2.53151318794055e+004,-2.32833199161822e+001,-1.32780636658911e+000

2.56685179512580e+004,-2.32833492504173e+001,-1.34633794841459e+000

2.60268371088386e+004,-2.32833794081023e+001,-1.36512805606332e+000

2.63901582154578e+004,-2.32834104123169e+001,-1.38418029142321e+000

2.67585510957221e+004,-2.32834422867853e+001,-1.40349830636852e+000

2.71320865489533e+004,-2.32834750558943e+001,-1.42308580344373e+000

2.75108363627948e+004,-2.32835087447123e+001,-1.44294653655837e+000

2.78948733270080e+004,-2.32835433790073e+001,-1.46308431169062e+000

2.82842712474618e+004,-2.32835789852669e+001,-1.48350298760021e+000

2.86791049603164e+004,-2.32836155907181e+001,-1.50420647655088e+000

2.90794503464061e+004,-2.32836532233476e+001,-1.52519874504158e+000

2.94853843458219e+004,-2.32836919119232e+001,-1.54648381454738e+000

2.98969849726987e+004,-2.32837316860150e+001,-1.56806576227188e+000

3.03143313302078e+004,-2.32837725760182e+001,-1.58994872190599e+000

3.07375036257601e+004,-2.32838146131752e+001,-1.61213688440088e+000

3.11665831864199e+004,-2.32838578295995e+001,-1.63463449874625e+000

3.16016524745350e+004,-2.32839022582998e+001,-1.65744587276325e+000

3.20427951035848e+004,-2.32839479332043e+001,-1.68057537390372e+000

3.24900958542493e+004,-2.32839948891867e+001,-1.70402743006350e+000

3.29436406907028e+004,-2.32840431620917e+001,-1.72780653040194e+000

3.34035167771346e+004,-2.32840927887621e+001,-1.75191722617657e+000

3.38698124945009e+004,-2.32841438070665e+001,-1.77636413158475e+000

3.43426174575100e+004,-2.32841962559270e+001,-1.80115192461809e+000

3.48220225318448e+004,-2.32842501753487e+001,-1.82628534792748e+000

3.53081198516260e+004,-2.32843056064493e+001,-1.85176920969822e+000

3.58010028371187e+004,-2.32843625914899e+001,-1.87760838453689e+000

3.63007662126863e+004,-2.32844211739060e+001,-1.90380781437071e+000

3.68075060249948e+004,-2.32844813983403e+001,-1.93037250935555e+000

3.73213196614721e+004,-2.32845433106754e+001,-1.95730754879815e+000

3.78423058690237e+004,-2.32846069580680e+001,-1.98461808208782e+000

3.83705647730104e+004,-2.32846723889839e+001,-2.01230932964011e+000

3.89061978964912e+004,-2.32847396532338e+001,-2.04038658385492e+000

3.94493081797342e+004,-2.32848088020100e+001,-2.06885521008161e+000

3.99999999999998e+004,-2.32848798879244e+001,-2.09772064760140e+000

4.05583791916010e+004,-2.32849529650472e+001,-2.12698841061749e+000

4.11245530662425e+004,-2.32850280889468e+001,-2.15666408926026e+000

4.16986304336447e+004,-2.32851053167304e+001,-2.18675335060346e+000

4.22807216224550e+004,-2.32851847070864e+001,-2.21726193969354e+000

4.28709385014515e+004,-2.32852663203273e+001,-2.24819568059051e+000

4.34693945010421e+004,-2.32853502184338e+001,-2.27956047742287e+000

4.40762046350642e+004,-2.32854364651004e+001,-2.31136231545318e+000

4.46914855228886e+004,-2.32855251257815e+001,-2.34360726215983e+000

4.53153554118317e+004,-2.32856162677401e+001,-2.37630146832780e+000

4.59479341998812e+004,-2.32857099600957e+001,-2.40945116915524e+000

4.65893434587380e+004,-2.32858062738755e+001,-2.44306268537220e+000

4.72397064571810e+004,-2.32859052820657e+001,-2.47714242437236e+000

4.78991481847569e+004,-2.32860070596643e+001,-2.51169688135929e+000

4.85677953758016e+004,-2.32861116837359e+001,-2.54673264050420e+000

4.92457765337964e+004,-2.32862192334670e+001,-2.58225637611886e+000

4.99332219560642e+004,-2.32863297902233e+001,-2.61827485384104e+000

5.06302637588109e+004,-2.32864434376087e+001,-2.65479493183534e+000

5.13370359025159e+004,-2.32865602615250e+001,-2.69182356200441e+000

5.20536742176771e+004,-2.32866803502338e+001,-2.72936779121768e+000

5.27803164309155e+004,-2.32868037944200e+001,-2.76743476255228e+000

5.35171021914442e+004,-2.32869306872563e+001,-2.80603171654731e+000

5.42641730979066e+004,-2.32870611244701e+001,-2.84516599247412e+000

5.50216727255895e+004,-2.32871952044115e+001,-2.88484502961850e+000

5.57897466540159e+004,-2.32873330281235e+001,-2.92507636857839e+000

5.65685424949235e+004,-2.32874746994133e+001,-2.96586765257600e+000

5.73582099206328e+004,-2.32876203249265e+001,-3.00722662878353e+000

5.81589006928121e+004,-2.32877700142217e+001,-3.04916114966326e+000

5.89707686916437e+004,-2.32879238798484e+001,-3.09167917432248e+000

5.97939699453972e+004,-2.32880820374258e+001,-3.13478876988277e+000

6.06286626604156e+004,-2.32882446057240e+001,-3.17849811286395e+000

6.14750072515201e+004,-2.32884117067472e+001,-3.22281549058209e+000

6.23331663728396e+004,-2.32885834658189e+001,-3.26774930256225e+000

6.32033049490698e+004,-2.32887600116690e+001,-3.31330806196567e+000

6.40855902071694e+004,-2.32889414765233e+001,-3.35950039703295e+000

6.49801917084985e+004,-2.32891279961953e+001,-3.40633505253917e+000

6.58872813814055e+004,-2.32893197101795e+001,-3.45382089126664e+000

6.68070335542691e+004,-2.32895167617479e+001,-3.50196689548995e+000

6.77396249890018e+004,-2.32897192980482e+001,-3.55078216847728e+000

6.86852349150199e+004,-2.32899274702044e+001,-3.60027593600502e+000

6.96440450636895e+004,-2.32901414334202e+001,-3.65045754788892e+000

7.06162397032520e+004,-2.32903613470843e+001,-3.70133647952786e+000

7.16020056742374e+004,-2.32905873748784e+001,-3.75292233346313e+000

7.26015324253724e+004,-2.32908196848881e+001,-3.80522484095276e+000

7.36150120499896e+004,-2.32910584497158e+001,-3.85825386355989e+000

7.46426393229441e+004,-2.32913038465966e+001,-3.91201939475575e+000

7.56846117380472e+004,-2.32915560575165e+001,-3.96653156153698e+000

7.67411295460207e+004,-2.32918152693340e+001,-4.02180062605794e+000

7.78123957929823e+004,-2.32920816739040e+001,-4.07783698727664e+000

7.88986163594682e+004,-2.32923554682041e+001,-4.13465118261610e+000

7.99999999999995e+004,-2.32926368544647e+001,-4.19225388963844e+000

8.11167583832018e+004,-2.32929260403015e+001,-4.25065592773477e+000

8.22491061324848e+004,-2.32932232388508e+001,-4.30986825982840e+000

8.33972608672892e+004,-2.32935286689082e+001,-4.36990199409174e+000

8.45614432449099e+004,-2.32938425550697e+001,-4.43076838567788e+000

8.57418770029029e+004,-2.32941651278772e+001,-4.49247883846562e+000

8.69387890020841e+004,-2.32944966239654e+001,-4.55504490681837e+000

8.81524092701283e+004,-2.32948372862133e+001,-4.61847829735689e+000

8.93829710457770e+004,-2.32951873638982e+001,-4.68279087074507e+000

9.06307108236633e+004,-2.32955471128533e+001,-4.74799464348934e+000

9.18958683997622e+004,-2.32959167956282e+001,-4.81410178975166e+000

9.31786869174758e+004,-2.32962966816536e+001,-4.88112464317536e+000

9.44794129143618e+004,-2.32966870474083e+001,-4.94907569872415e+000

9.57982963695136e+004,-2.32970881765907e+001,-5.01796761453409e+000

9.71355907516031e+004,-2.32975003602929e+001,-5.08781321377815e+000

9.84915530675926e+004,-2.32979238971790e+001,-5.15862548654341e+000

9.98664439121282e+004,-2.32983590936667e+001,-5.23041759172112e+000

1.01260527517622e+005,-2.32988062641126e+001,-5.30320285890854e+000

1.02674071805032e+005,-2.32992657310006e+001,-5.37699479032379e+000

1.04107348435354e+005,-2.32997378251352e+001,-5.45180706273161e+000

1.05560632861831e+005,-2.33002228858374e+001,-5.52765352938247e+000

1.07034204382888e+005,-2.33007212611447e+001,-5.60454822196176e+000

1.08528346195813e+005,-2.33012333080151e+001,-5.68250535255283e+000

1.10043345451179e+005,-2.33017593925348e+001,-5.76153931560910e+000

1.11579493308032e+005,-2.33022998901296e+001,-5.84166468993932e+000

1.13137084989847e+005,-2.33028551857807e+001,-5.92289624070357e+000

1.14716419841265e+005,-2.33034256742435e+001,-6.00524892141995e+000

1.16317801385624e+005,-2.33040117602716e+001,-6.08873787598269e+000

1.17941537383287e+005,-2.33046138588437e+001,-6.17337844069173e+000

1.19587939890794e+005,-2.33052323953950e+001,-6.25918614629188e+000

1.21257325320831e+005,-2.33058678060528e+001,-6.34617672002320e+000

1.22950014503040e+005,-2.33065205378757e+001,-6.43436608768308e+000

1.24666332745679e+005,-2.33071910490975e+001,-6.52377037569720e+000

1.26406609898139e+005,-2.33078798093746e+001,-6.61440591320232e+000

1.28171180414339e+005,-2.33085873000378e+001,-6.70628923413868e+000

1.29960383416997e+005,-2.33093140143489e+001,-6.79943707935402e+000

1.31774562762811e+005,-2.33100604577602e+001,-6.89386639871753e+000

1.33614067108538e+005,-2.33108271481797e+001,-6.98959435324360e+000

1.35479249978003e+005,-2.33116146162391e+001,-7.08663831722781e+000

1.37370469830040e+005,-2.33124234055678e+001,-7.18501588039215e+000

1.39288090127379e+005,-2.33132540730694e+001,-7.28474485004211e+000

1.41232479406504e+005,-2.33141071892037e+001,-7.38584325323437e+000

1.43204011348474e+005,-2.33149833382734e+001,-7.48832933895474e+000

1.45203064850745e+005,-2.33158831187137e+001,-7.59222158030910e+000

1.47230024099979e+005,-2.33168071433880e+001,-7.69753867672396e+000

1.49285278645888e+005,-2.33177560398872e+001,-7.80429955616089e+000

1.51369223476094e+005,-2.33187304508340e+001,-7.91252337734085e+000

1.53482259092041e+005,-2.33197310341912e+001,-8.02222953198230e+000

1.55624791585964e+005,-2.33207584635754e+001,-8.13343764705177e+000

1.57797232718936e+005,-2.33218134285751e+001,-8.24616758702743e+000

1.59999999999999e+005,-2.33228966350731e+001,-8.36043945617631e+000

1.62233516766403e+005,-2.33240088055750e+001,-8.47627360084529e+000

1.64498212264969e+005,-2.33251506795413e+001,-8.59369061176779e+000

1.66794521734578e+005,-2.33263230137254e+001,-8.71271132638334e+000

1.69122886489819e+005,-2.33275265825163e+001,-8.83335683117527e+000

1.71483754005805e+005,-2.33287621782869e+001,-8.95564846402378e+000

1.73877578004168e+005,-2.33300306117476e+001,-9.07960781657450e+000

1.76304818540256e+005,-2.33313327123049e+001,-9.20525673662770e+000

1.78765942091554e+005,-2.33326693284266e+001,-9.33261733054288e+000

1.81261421647326e+005,-2.33340413280119e+001,-9.46171196566410e+000

1.83791736799524e+005,-2.33354495987679e+001,-9.59256327276542e+000

1.86357373834951e+005,-2.33368950485929e+001,-9.72519414851500e+000

1.88958825828723e+005,-2.33383786059647e+001,-9.85962775796332e+000

1.91596592739027e+005,-2.33399012203370e+001,-9.99588753705120e+000

1.94271181503206e+005,-2.33414638625415e+001,-1.01339971951428e+001

1.96983106135185e+005,-2.33430675251984e+001,-1.02739807175807e+001

1.99732887824256e+005,-2.33447132231330e+001,-1.04158623682668e+001

2.02521055035243e+005,-2.33464019938014e+001,-1.05596666922682e+001

2.05348143610063e+005,-2.33481348977232e+001,-1.07054185184493e+001

2.08214696870707e+005,-2.33499130189237e+001,-1.08531429621304e+001

2.11121265723661e+005,-2.33517374653842e+001,-1.10028654277740e+001

2.14068408765776e+005,-2.33536093695021e+001,-1.11546116116991e+001

2.17056692391625e+005,-2.33555298885607e+001,-1.13084075048237e+001

2.20086690902357e+005,-2.33575002052092e+001,-1.14642793954367e+001

2.23158986616063e+005,-2.33595215279534e+001,-1.16222538719986e+001

2.26274169979693e+005,-2.33615950916581e+001,-1.17823578259719e+001

2.29432839682530e+005,-2.33637221580609e+001,-1.19446184546797e+001

2.32635602771247e+005,-2.33659040162990e+001,-1.21090632641955e+001

2.35883074766574e+005,-2.33681419834490e+001,-1.22757200722604e+001

2.39175879781588e+005,-2.33704374050805e+001,-1.24446170112284e+001

2.42514650641661e+005,-2.33727916558239e+001,-1.26157825310406e+001

2.45900029006080e+005,-2.33752061399547e+001,-1.27892454022250e+001

2.49332665491357e+005,-2.33776822919922e+001,-1.29650347189216e+001

2.52813219796278e+005,-2.33802215773166e+001,-1.31431799019310e+001

2.56342360828676e+005,-2.33828254928026e+001,-1.33237107017859e+001

2.59920766833993e+005,-2.33854955674724e+001,-1.35066572018402e+001

2.63549125525621e+005,-2.33882333631679e+001,-1.36920498213768e+001

2.67228134217075e+005,-2.33910404752429e+001,-1.38799193187278e+001

2.70958499956006e+005,-2.33939185332771e+001,-1.40702967944059e+001

2.74740939660078e+005,-2.33968692018120e+001,-1.42632136942418e+001

2.78576180254757e+005,-2.33998941811100e+001,-1.44587018125236e+001

2.82464958813007e+005,-2.34029952079379e+001,-1.46567932951337e+001

2.86408022696948e+005,-2.34061740563755e+001,-1.48575206426767e+001

2.90406129701488e+005,-2.34094325386498e+001,-1.50609167135936e+001

2.94460048199957e+005,-2.34127725059971e+001,-1.52670147272547e+001

2.98570557291775e+005,-2.34161958495526e+001,-1.54758482670247e+001

3.02738446952187e+005,-2.34197045012694e+001,-1.56874512832910e+001

3.06964518184081e+005,-2.34233004348670e+001,-1.59018580964492e+001

3.11249583171928e+005,-2.34269856668113e+001,-1.61191033998339e+001

3.15594465437872e+005,-2.34307622573260e+001,-1.63392222625866e+001

3.19999999999997e+005,-2.34346323114367e+001,-1.65622501324503e+001

3.24467033532806e+005,-2.34385979800482e+001,-1.67882228384791e+001

3.28996424529938e+005,-2.34426614610567e+001,-1.70171765936509e+001

3.33589043469155e+005,-2.34468250004954e+001,-1.72491479973714e+001

3.38245772979638e+005,-2.34510908937175e+001,-1.74841740378559e+001

3.42967508011610e+005,-2.34554614866132e+001,-1.77222920943735e+001

3.47755156008335e+005,-2.34599391768643e+001,-1.79635399393429e+001

3.52609637080511e+005,-2.34645264152353e+001,-1.82079557402592e+001

3.57531884183106e+005,-2.34692257069011e+001,-1.84555780614414e+001

3.62522843294651e+005,-2.34740396128120e+001,-1.87064458655795e+001

3.67583473599047e+005,-2.34789707510962e+001,-1.89605985150667e+001

3.72714747669902e+005,-2.34840217984982e+001,-1.92180757730989e+001

3.77917651657445e+005,-2.34891954918544e+001,-1.94789178045218e+001

3.83193185478053e+005,-2.34944946296052e+001,-1.97431651764079e+001

3.88542363006410e+005,-2.34999220733419e+001,-2.00108588583460e+001

3.93966212270369e+005,-2.35054807493889e+001,-2.02820402224193e+001

3.99465775648511e+005,-2.35111736504196e+001,-2.05567510428576e+001

4.05042110070485e+005,-2.35170038371047e+001,-2.08350334953397e+001

4.10696287220124e+005,-2.35229744397926e+001,-2.11169301559268e+001

4.16429393741414e+005,-2.35290886602188e+001,-2.14024839996080e+001

4.22242531447321e+005,-2.35353497732440e+001,-2.16917383984353e+001

4.28136817531551e+005,-2.35417611286182e+001,-2.19847371192287e+001

4.34113384783250e+005,-2.35483261527690e+001,-2.22815243208317e+001

4.40173381804713e+005,-2.35550483506112e+001,-2.25821445508961e+001

4.46317973232124e+005,-2.35619313073764e+001,-2.28866427421761e+001

4.52548339959385e+005,-2.35689786904581e+001,-2.31950642083140e+001

4.58865679365059e+005,-2.35761942512705e+001,-2.35074546390961e+001

4.65271205542494e+005,-2.35835818271174e+001,-2.38238600951626e+001

4.71766149533147e+005,-2.35911453430683e+001,-2.41443270021505e+001

4.78351759563174e+005,-2.35988888138364e+001,-2.44689021442574e+001

4.85029301283321e+005,-2.36068163456572e+001,-2.47976326572039e+001

4.91800058012158e+005,-2.36149321381609e+001,-2.51305660205836e+001

4.98665330982714e+005,-2.36232404862364e+001,-2.54677500495849e+001

5.05626439592555e+005,-2.36317457818814e+001,-2.58092328860700e+001

5.12684721657352e+005,-2.36404525160342e+001,-2.61550629890015e+001

5.19841533667984e+005,-2.36493652803821e+001,-2.65052891242018e+001

5.27098251051240e+005,-2.36584887691417e+001,-2.68599603534411e+001

5.34456268434150e+005,-2.36678277808056e+001,-2.72191260228397e+001

5.41916999912011e+005,-2.36773872198502e+001,-2.75828357505822e+001

