Freq.,VOut,OutRef

1.00000000000000e+004,-1.88929969922591e+001,-2.42500471124227e-001

1.01395947979003e+004,-1.88929980809431e+001,-2.45885574805575e-001

1.02811382665607e+004,-1.88929992002223e+001,-2.49317929515601e-001

1.04246576084112e+004,-1.88930003509562e+001,-2.52798194715585e-001

1.05701804056138e+004,-1.88930015340282e+001,-2.56327039068446e-001

1.07177346253629e+004,-1.88930027503469e+001,-2.59905140562084e-001

1.08673486252606e+004,-1.88930040008460e+001,-2.63533186644779e-001

1.10190511587661e+004,-1.88930052864857e+001,-2.67211874353830e-001

1.11728713807222e+004,-1.88930066082531e+001,-2.70941910449436e-001

1.13288388529580e+004,-1.88930079671628e+001,-2.74724011551499e-001

1.14869835499703e+004,-1.88930093642581e+001,-2.78558904274892e-001

1.16473358646846e+004,-1.88930108006115e+001,-2.82447325371638e-001

1.18099266142953e+004,-1.88930122773254e+001,-2.86390021868593e-001

1.19747870461893e+004,-1.88930137955335e+001,-2.90387751212180e-001

1.21419488439505e+004,-1.88930153564012e+001,-2.94441281413820e-001

1.23114441334492e+004,-1.88930169611262e+001,-2.98551391198793e-001

1.24833054890161e+004,-1.88930186109403e+001,-3.02718870149805e-001

1.26575659397028e+004,-1.88930203071097e+001,-3.06944518863856e-001

1.28342589756290e+004,-1.88930220509359e+001,-3.11229149102777e-001

1.30134185544193e+004,-1.88930238437572e+001,-3.15573583949280e-001

1.31950791077289e+004,-1.88930256869493e+001,-3.19978657965081e-001

1.33792755478611e+004,-1.88930275819262e+001,-3.24445217349815e-001

1.35660432744767e+004,-1.88930295301422e+001,-3.28974120101903e-001

1.37554181813974e+004,-1.88930315330918e+001,-3.33566236186405e-001

1.39474366635040e+004,-1.88930335923116e+001,-3.38222447697027e-001

1.41421356237309e+004,-1.88930357093813e+001,-3.42943649028977e-001

1.43395524801583e+004,-1.88930378859250e+001,-3.47730747045896e-001

1.45397251732031e+004,-1.88930401236119e+001,-3.52584661258506e-001

1.47426921729110e+004,-1.88930424241584e+001,-3.57506323995050e-001

1.49484924863494e+004,-1.88930447893289e+001,-3.62496680583211e-001

1.51571656651040e+004,-1.88930472209371e+001,-3.67556689529047e-001

1.53687518128801e+004,-1.88930497208477e+001,-3.72687322701364e-001

1.55832915932100e+004,-1.88930522909776e+001,-3.77889565517375e-001

1.58008262372675e+004,-1.88930549332971e+001,-3.83164417130839e-001

1.60213975517924e+004,-1.88930576498322e+001,-3.88512890620803e-001

1.62450479271247e+004,-1.88930604426653e+001,-3.93936013190332e-001

1.64718203453514e+004,-1.88930633139371e+001,-3.99434826357272e-001

1.67017583885674e+004,-1.88930662658486e+001,-4.05010386156086e-001

1.69349062472505e+004,-1.88930693006620e+001,-4.10663763339307e-001

1.71713087287550e+004,-1.88930724207030e+001,-4.16396043581662e-001

1.74110112659224e+004,-1.88930756283624e+001,-4.22208327687112e-001

1.76540599258131e+004,-1.88930789260980e+001,-4.28101731798638e-001

1.79005014185594e+004,-1.88930823164363e+001,-4.34077387612337e-001

1.81503831063432e+004,-1.88930858019744e+001,-4.40136442592597e-001

1.84037530124975e+004,-1.88930893853822e+001,-4.46280060190555e-001

1.86606598307361e+004,-1.88930930694042e+001,-4.52509420067501e-001

1.89211529345119e+004,-1.88930968568618e+001,-4.58825718318074e-001

1.91852823865052e+004,-1.88931007506551e+001,-4.65230167698725e-001

1.94530989482457e+004,-1.88931047537655e+001,-4.71723997859390e-001

1.97246540898671e+004,-1.88931088692576e+001,-4.78308455578110e-001

1.99999999999999e+004,-1.88931131002817e+001,-4.84984804996883e-001

2.02791895958005e+004,-1.88931174500762e+001,-4.91754327864876e-001

2.05622765331213e+004,-1.88931219219699e+001,-4.98618323779145e-001

2.08493152168224e+004,-1.88931265193847e+001,-5.05578110435443e-001

2.11403608112276e+004,-1.88931312458381e+001,-5.12635023876142e-001

2.14354692507258e+004,-1.88931361049457e+001,-5.19790418747272e-001

2.17346972505211e+004,-1.88931411004241e+001,-5.27045668553035e-001

2.20381023175322e+004,-1.88931462360939e+001,-5.34402165919713e-001

2.23457427614443e+004,-1.88931515158821e+001,-5.41861322857754e-001

2.26576777059159e+004,-1.88931569438251e+001,-5.49424571033554e-001

2.29739670999406e+004,-1.88931625240726e+001,-5.57093362037150e-001

2.32946717293690e+004,-1.88931682608893e+001,-5.64869167661044e-001

2.36198532285905e+004,-1.88931741586594e+001,-5.72753480178949e-001

2.39495740923785e+004,-1.88931802218889e+001,-5.80747812628635e-001

2.42838976879009e+004,-1.88931864552098e+001,-5.88853699098397e-001

2.46228882668982e+004,-1.88931928633830e+001,-5.97072695018613e-001

2.49666109780322e+004,-1.88931994513021e+001,-6.05406377457470e-001

2.53151318794055e+004,-1.88932062239970e+001,-6.13856345417905e-001

2.56685179512580e+004,-1.88932131866376e+001,-6.22424220141986e-001

2.60268371088386e+004,-1.88932203445380e+001,-6.31111645417013e-001

2.63901582154578e+004,-1.88932277031599e+001,-6.39920287887668e-001

2.67585510957221e+004,-1.88932352681173e+001,-6.48851837370072e-001

2.71320865489533e+004,-1.88932430451800e+001,-6.57908007172057e-001

2.75108363627948e+004,-1.88932510402786e+001,-6.67090534417406e-001

2.78948733270080e+004,-1.88932592595084e+001,-6.76401180373009e-001

2.82842712474618e+004,-1.88932677091341e+001,-6.85841730782466e-001

2.86791049603164e+004,-1.88932763955946e+001,-6.95413996202533e-001

2.90794503464061e+004,-1.88932853255074e+001,-7.05119812345151e-001

2.94853843458219e+004,-1.88932945056743e+001,-7.14961040422141e-001

2.98969849726987e+004,-1.88933039430850e+001,-7.24939567499497e-001

3.03143313302078e+004,-1.88933136449240e+001,-7.35057306848689e-001

3.07375036257601e+004,-1.88933236185744e+001,-7.45316198309919e-001

3.11665831864199e+004,-1.88933338716245e+001,-7.55718208655371e-001

3.16016524745350e+004,-1.88933444118726e+001,-7.66265331959562e-001

3.20427951035848e+004,-1.88933552473331e+001,-7.76959589975221e-001

3.24900958542493e+004,-1.88933663862425e+001,-7.87803032511505e-001

3.29436406907028e+004,-1.88933778370650e+001,-7.98797737818873e-001

3.34035167771346e+004,-1.88933896084993e+001,-8.09945812979843e-001

3.38698124945009e+004,-1.88934017094844e+001,-8.21249394303888e-001

3.43426174575100e+004,-1.88934141492066e+001,-8.32710647726815e-001

3.48220225318448e+004,-1.88934269371058e+001,-8.44331769217567e-001

3.53081198516260e+004,-1.88934400828827e+001,-8.56114985187809e-001

3.58010028371187e+004,-1.88934535965060e+001,-8.68062552908128e-001

3.63007662126863e+004,-1.88934674882190e+001,-8.80176760931359e-001

3.68075060249948e+004,-1.88934817685478e+001,-8.92459929517805e-001

3.73213196614721e+004,-1.88934964483083e+001,-9.04914411069475e-001

3.78423058690237e+004,-1.88935115386145e+001,-9.17542590566989e-001

3.83705647730104e+004,-1.88935270508862e+001,-9.30346886015543e-001

3.89061978964912e+004,-1.88935429968577e+001,-9.43329748892801e-001

3.94493081797342e+004,-1.88935593885854e+001,-9.56493664606856e-001

3.99999999999998e+004,-1.88935762384574e+001,-9.69841152955906e-001

4.05583791916010e+004,-1.88935935592017e+001,-9.83374768597107e-001

4.11245530662425e+004,-1.88936113638960e+001,-9.97097101518044e-001

4.16986304336447e+004,-1.88936296659760e+001,-1.01101077752052e+000

4.22807216224550e+004,-1.88936484792460e+001,-1.02511845870185e+000

4.28709385014515e+004,-1.88936678178884e+001,-1.03942284394986e+000

4.34693945010421e+004,-1.88936876964734e+001,-1.05392666944037e+000

4.40762046350642e+004,-1.88937081299698e+001,-1.06863270914207e+000

4.46914855228886e+004,-1.88937291337552e+001,-1.08354377532669e+000

4.53153554118317e+004,-1.88937507236272e+001,-1.09866271908824e+000

4.59479341998812e+004,-1.88937729158142e+001,-1.11399243086632e+000

4.65893434587380e+004,-1.88937957269870e+001,-1.12953584097631e+000

4.72397064571810e+004,-1.88938191742701e+001,-1.14529592014820e+000

4.78991481847569e+004,-1.88938432752545e+001,-1.16127568006909e+000

4.85677953758016e+004,-1.88938680480086e+001,-1.17747817393605e+000

4.92457765337964e+004,-1.88938935110918e+001,-1.19390649701343e+000

4.99332219560642e+004,-1.88939196835672e+001,-1.21056378719619e+000

5.06302637588109e+004,-1.88939465850144e+001,-1.22745322558398e+000

5.13370359025159e+004,-1.88939742355430e+001,-1.24457803705892e+000

5.20536742176771e+004,-1.88940026558067e+001,-1.26194149087175e+000

5.27803164309155e+004,-1.88940318670170e+001,-1.27954690123549e+000

5.35171021914442e+004,-1.88940618909579e+001,-1.29739762792650e+000

5.42641730979066e+004,-1.88940927500008e+001,-1.31549707689050e+000

5.50216727255895e+004,-1.88941244671193e+001,-1.33384870086026e+000

5.57897466540159e+004,-1.88941570659046e+001,-1.35245599997690e+000

5.65685424949235e+004,-1.88941905705820e+001,-1.37132252242081e+000

5.73582099206328e+004,-1.88942250060261e+001,-1.39045186505044e+000

5.81589006928121e+004,-1.88942603977784e+001,-1.40984767404593e+000

5.89707686916437e+004,-1.88942967720632e+001,-1.42951364556463e+000

5.97939699453972e+004,-1.88943341558058e+001,-1.44945352640118e+000

6.06286626604156e+004,-1.88943725766497e+001,-1.46967111465665e+000

6.14750072515201e+004,-1.88944120629748e+001,-1.49017026041663e+000

6.23331663728396e+004,-1.88944526439158e+001,-1.51095486643429e+000

6.32033049490698e+004,-1.88944943493813e+001,-1.53202888882519e+000

6.40855902071694e+004,-1.88945372100729e+001,-1.55339633776861e+000

6.49801917084985e+004,-1.88945812575049e+001,-1.57506127821558e+000

6.58872813814055e+004,-1.88946265240246e+001,-1.59702783060739e+000

6.68070335542691e+004,-1.88946730428326e+001,-1.61930017160181e+000

6.77396249890018e+004,-1.88947208480040e+001,-1.64188253480726e+000

6.86852349150199e+004,-1.88947699745096e+001,-1.66477921152609e+000

6.96440450636895e+004,-1.88948204582379e+001,-1.68799455150479e+000

7.06162397032520e+004,-1.88948723360172e+001,-1.71153296369573e+000

7.16020056742374e+004,-1.88949256456384e+001,-1.73539891702376e+000

7.26015324253724e+004,-1.88949804258783e+001,-1.75959694116555e+000

7.36150120499896e+004,-1.88950367165230e+001,-1.78413162733435e+000

7.46426393229441e+004,-1.88950945583921e+001,-1.80900762907501e+000

7.56846117380472e+004,-1.88951539933630e+001,-1.83422966306875e+000

7.67411295460207e+004,-1.88952150643962e+001,-1.85980250994566e+000

7.78123957929823e+004,-1.88952778155606e+001,-1.88573101510523e+000

7.88986163594682e+004,-1.88953422920591e+001,-1.91202008954978e+000

7.99999999999995e+004,-1.88954085402556e+001,-1.93867471072227e+000

8.11167583832018e+004,-1.88954766077012e+001,-1.96569992335734e+000

8.22491061324848e+004,-1.88955465431618e+001,-1.99310084033915e+000

8.33972608672892e+004,-1.88956183966455e+001,-2.02088264356989e+000

8.45614432449099e+004,-1.88956922194314e+001,-2.04905058484690e+000

8.57418770029029e+004,-1.88957680640978e+001,-2.07760998675032e+000

8.69387890020841e+004,-1.88958459845513e+001,-2.10656624353980e+000

8.81524092701283e+004,-1.88959260360563e+001,-2.13592482206046e+000

8.93829710457770e+004,-1.88960082752656e+001,-2.16569126265897e+000

9.06307108236633e+004,-1.88960927602501e+001,-2.19587118011021e+000

9.18958683997622e+004,-1.88961795505301e+001,-2.22647026455303e+000

9.31786869174758e+004,-1.88962687071065e+001,-2.25749428243566e+000

9.44794129143618e+004,-1.88963602924926e+001,-2.28894907747297e+000

9.57982963695136e+004,-1.88964543707462e+001,-2.32084057161176e+000

9.71355907516031e+004,-1.88965510075024e+001,-2.35317476600798e+000

9.84915530675926e+004,-1.88966502700062e+001,-2.38595774201356e+000

9.98664439121282e+004,-1.88967522271460e+001,-2.41919566217473e+000

1.01260527517622e+005,-1.88968569494877e+001,-2.45289477123968e+000

1.02674071805032e+005,-1.88969645093085e+001,-2.48706139717742e+000

1.04107348435354e+005,-1.88970749806310e+001,-2.52170195220926e+000

1.05560632861831e+005,-1.88971884392590e+001,-2.55682293384839e+000

1.07034204382888e+005,-1.88973049628117e+001,-2.59243092595284e+000

1.08528346195813e+005,-1.88974246307596e+001,-2.62853259978937e+000

1.10043345451179e+005,-1.88975475244603e+001,-2.66513471510839e+000

1.11579493308032e+005,-1.88976737271942e+001,-2.70224412123099e+000

1.13137084989847e+005,-1.88978033242013e+001,-2.73986775814771e+000

1.14716419841265e+005,-1.88979364027171e+001,-2.77801265762945e+000

1.16317801385624e+005,-1.88980730520097e+001,-2.81668594435128e+000

1.17941537383287e+005,-1.88982133634170e+001,-2.85589483702698e+000

1.19587939890794e+005,-1.88983574303832e+001,-2.89564664955893e+000

1.21257325320831e+005,-1.88985053484966e+001,-2.93594879219841e+000

1.22950014503040e+005,-1.88986572155267e+001,-2.97680877272151e+000

1.24666332745679e+005,-1.88988131314617e+001,-3.01823419761678e+000

1.26406609898139e+005,-1.88989731985464e+001,-3.06023277328770e+000

1.28171180414339e+005,-1.88991375213195e+001,-3.10281230726916e+000

1.29960383416997e+005,-1.88993062066513e+001,-3.14598070945911e+000

1.31774562762811e+005,-1.88994793637815e+001,-3.18974599336344e+000

1.33614067108538e+005,-1.88996571043568e+001,-3.23411627735790e+000

1.35479249978003e+005,-1.88998395424682e+001,-3.27909978596474e+000

1.37370469830040e+005,-1.89000267946890e+001,-3.32470485114614e+000

1.39288090127379e+005,-1.89002189801117e+001,-3.37093991361388e+000

1.41232479406504e+005,-1.89004162203854e+001,-3.41781352415579e+000

1.43204011348474e+005,-1.89006186397531e+001,-3.46533434498067e+000

1.45203064850745e+005,-1.89008263650880e+001,-3.51351115108033e+000

1.47230024099979e+005,-1.89010395259309e+001,-3.56235283161147e+000

1.49285278645888e+005,-1.89012582545260e+001,-3.61186839129626e+000

1.51369223476094e+005,-1.89014826858575e+001,-3.66206695184267e+000

1.53482259092041e+005,-1.89017129576851e+001,-3.71295775338597e+000

1.55624791585964e+005,-1.89019492105797e+001,-3.76455015595237e+000

1.57797232718936e+005,-1.89021915879589e+001,-3.81685364094234e+000

1.59999999999999e+005,-1.89024402361214e+001,-3.86987781263974e+000

1.62233516766403e+005,-1.89026953042820e+001,-3.92363239974274e+000

1.64498212264969e+005,-1.89029569446055e+001,-3.97812725692021e+000

1.66794521734578e+005,-1.89032253122407e+001,-4.03337236639338e+000

1.69122886489819e+005,-1.89035005653537e+001,-4.08937783954395e+000

1.71483754005805e+005,-1.89037828651615e+001,-4.14615391854940e+000

1.73877578004168e+005,-1.89040723759637e+001,-4.20371097804770e+000

1.76304818540256e+005,-1.89043692651763e+001,-4.26205952683016e+000

1.78765942091554e+005,-1.89046737033626e+001,-4.32121020956576e+000

1.81261421647326e+005,-1.89049858642659e+001,-4.38117380855758e+000

1.83791736799524e+005,-1.89053059248405e+001,-4.44196124553096e+000

1.86357373834951e+005,-1.89056340652835e+001,-4.50358358345696e+000

1.88958825828723e+005,-1.89059704690655e+001,-4.56605202841082e+000

1.91596592739027e+005,-1.89063153229625e+001,-4.62937793146719e+000

1.94271181503206e+005,-1.89066688170863e+001,-4.69357279063307e+000

1.96983106135185e+005,-1.89070311449159e+001,-4.75864825282111e+000

1.99732887824256e+005,-1.89074025033289e+001,-4.82461611586241e+000

2.02521055035243e+005,-1.89077830926332e+001,-4.89148833056275e+000

2.05348143610063e+005,-1.89081731165984e+001,-4.95927700280183e+000

2.08214696870707e+005,-1.89085727824890e+001,-5.02799439567782e+000

2.11121265723661e+005,-1.89089823010969e+001,-5.09765293169868e+000

2.14068408765776e+005,-1.89094018867757e+001,-5.16826519502107e+000

2.17056692391625e+005,-1.89098317574751e+001,-5.23984393374006e+000

2.20086690902357e+005,-1.89102721347777e+001,-5.31240206222848e+000

2.23158986616063e+005,-1.89107232439357e+001,-5.38595266353027e+000

2.26274169979693e+005,-1.89111853139103e+001,-5.46050899180672e+000

2.29432839682530e+005,-1.89116585774123e+001,-5.53608447483998e+000

2.32635602771247e+005,-1.89121432709455e+001,-5.61269271659187e+000

2.35883074766574e+005,-1.89126396348515e+001,-5.69034749982271e+000

2.39175879781588e+005,-1.89131479133578e+001,-5.76906278876919e+000

2.42514650641661e+005,-1.89136683546291e+001,-5.84885273188362e+000

2.45900029006080e+005,-1.89142012108213e+001,-5.92973166463635e+000

2.49332665491357e+005,-1.89147467381390e+001,-6.01171411238180e+000

2.52813219796278e+005,-1.89153051968984e+001,-6.09481479328832e+000

2.56342360828676e+005,-1.89158768515927e+001,-6.17904862133645e+000

2.59920766833993e+005,-1.89164619709641e+001,-6.26443070938206e+000

2.63549125525621e+005,-1.89170608280796e+001,-6.35097637228804e+000

2.67228134217075e+005,-1.89176737004137e+001,-6.43870113012633e+000

2.70958499956006e+005,-1.89183008699362e+001,-6.52762071144597e+000

2.74740939660078e+005,-1.89189426232077e+001,-6.61775105661477e+000

2.78576180254757e+005,-1.89195992514816e+001,-6.70910832122847e+000

2.82464958813007e+005,-1.89202710508136e+001,-6.80170887959132e+000

2.86408022696948e+005,-1.89209583221801e+001,-6.89556932826793e+000

2.90406129701488e+005,-1.89216613716046e+001,-6.99070648970433e+000

2.94460048199957e+005,-1.89223805102940e+001,-7.08713741591944e+000

2.98570557291775e+005,-1.89231160547845e+001,-7.18487939226648e+000

3.02738446952187e+005,-1.89238683270976e+001,-7.28394994126266e+000

3.06964518184081e+005,-1.89246376549076e+001,-7.38436682648776e+000

3.11249583171928e+005,-1.89254243717208e+001,-7.48614805654796e+000

3.15594465437872e+005,-1.89262288170660e+001,-7.58931188910674e+000

3.19999999999997e+005,-1.89270513366990e+001,-7.69387683497784e+000

3.24467033532806e+005,-1.89278922828193e+001,-7.79986166228163e+000

3.28996424529938e+005,-1.89287520143019e+001,-7.90728540066055e+000

3.33589043469155e+005,-1.89296308969423e+001,-8.01616734555252e+000

3.38245772979638e+005,-1.89305293037180e+001,-8.12652706251808e+000

3.42967508011610e+005,-1.89314476150644e+001,-8.23838439162116e+000

3.47755156008335e+005,-1.89323862191680e+001,-8.35175945185769e+000

3.52609637080511e+005,-1.89333455122753e+001,-8.46667264563117e+000

3.57531884183106e+005,-1.89343258990198e+001,-8.58314466326783e+000

3.62522843294651e+005,-1.89353277927660e+001,-8.70119648757350e+000

3.67583473599047e+005,-1.89363516159723e+001,-8.82084939842168e+000

3.72714747669902e+005,-1.89373978005719e+001,-8.94212497737384e+000

3.77917651657445e+005,-1.89384667883729e+001,-9.06504511232375e+000

3.83193185478053e+005,-1.89395590314780e+001,-9.18963200216413e+000

3.88542363006410e+005,-1.89406749927237e+001,-9.31590816146811e+000

3.93966212270369e+005,-1.89418151461391e+001,-9.44389642518331e+000

3.99465775648511e+005,-1.89429799774265e+001,-9.57361995333005e+000

4.05042110070485e+005,-1.89441699844602e+001,-9.70510223570257e+000

4.10696287220124e+005,-1.89453856778080e+001,-9.83836709656354e+000

4.16429393741414e+005,-1.89466275812721e+001,-9.97343869932970e+000

4.22242531447321e+005,-1.89478962324523e+001,-1.01103415512412e+001

4.28136817531551e+005,-1.89491921833280e+001,-1.02491005080105e+001

4.34113384783250e+005,-1.89505160008639e+001,-1.03897407784432e+001

4.40173381804713e+005,-1.89518682676338e+001,-1.05322879290273e+001

4.46317973232124e+005,-1.89532495824671e+001,-1.06767678884838e+001

4.52548339959385e+005,-1.89546605611153e+001,-1.08232069522736e+001

4.58865679365059e+005,-1.89561018369387e+001,-1.09716317870552e+001

4.65271205542494e+005,-1.89575740616135e+001,-1.11220694350878e+001

4.71766149533147e+005,-1.89590779058593e+001,-1.12745473185739e+001

4.78351759563174e+005,-1.89606140601851e+001,-1.14290932439364e+001

4.85029301283321e+005,-1.89621832356561e+001,-1.15857354060271e+001

4.91800058012158e+005,-1.89637861646780e+001,-1.17445023922564e+001

4.98665330982714e+005,-1.89654236018005e+001,-1.19054231866468e+001

5.05626439592555e+005,-1.89670963245387e+001,-1.20685271737981e+001

5.12684721657352e+005,-1.89688051342120e+001,-1.22338441427666e+001

5.19841533667984e+005,-1.89705508568002e+001,-1.24014042908490e+001

5.27098251051240e+005,-1.89723343438153e+001,-1.25712382272698e+001

5.34456268434150e+005,-1.89741564731905e+001,-1.27433769767680e+001

5.41916999912011e+005,-1.89760181501838e+001,-1.29178519830790e+001

