Freq.,VOut,OutRef

1.00000000000000e+004,-2.55361604475532e+001,-1.16408969084928e-001

1.01395947979003e+004,-2.55361616862942e+001,-1.18033838452852e-001

1.02811382665607e+004,-2.55361629598378e+001,-1.19681384240905e-001

1.04246576084112e+004,-2.55361642691616e+001,-1.21351922746887e-001

1.05701804056138e+004,-2.55361656152695e+001,-1.23045774679251e-001

1.07177346253629e+004,-2.55361669991946e+001,-1.24763265205791e-001

1.08673486252606e+004,-2.55361684219986e+001,-1.26504724025413e-001

1.10190511587661e+004,-2.55361698847727e+001,-1.28270485427713e-001

1.11728713807222e+004,-2.55361713886391e+001,-1.30060888354240e-001

1.13288388529580e+004,-2.55361729347509e+001,-1.31876276467962e-001

1.14869835499703e+004,-2.55361745242941e+001,-1.33716998211795e-001

1.16473358646846e+004,-2.55361761584877e+001,-1.35583406880419e-001

1.18099266142953e+004,-2.55361778385847e+001,-1.37475860686444e-001

1.19747870461893e+004,-2.55361795658735e+001,-1.39394722825389e-001

1.21419488439505e+004,-2.55361813416782e+001,-1.41340361549352e-001

1.23114441334492e+004,-2.55361831673605e+001,-1.43313150231453e-001

1.24833054890161e+004,-2.55361850443198e+001,-1.45313467440973e-001

1.26575659397028e+004,-2.55361869739949e+001,-1.47341697012852e-001

1.28342589756290e+004,-2.55361889578647e+001,-1.49398228122516e-001

1.30134185544193e+004,-2.55361909974500e+001,-1.51483455356230e-001

1.31950791077289e+004,-2.55361930943135e+001,-1.53597778789447e-001

1.33792755478611e+004,-2.55361952500619e+001,-1.55741604061134e-001

1.35660432744767e+004,-2.55361974663473e+001,-1.57915342447898e-001

1.37554181813974e+004,-2.55361997448673e+001,-1.60119410947362e-001

1.39474366635040e+004,-2.55362020873676e+001,-1.62354232351179e-001

1.41421356237309e+004,-2.55362044956424e+001,-1.64620235329959e-001

1.43395524801583e+004,-2.55362069715363e+001,-1.66917854509231e-001

1.45397251732031e+004,-2.55362095169451e+001,-1.69247530556997e-001

1.47426921729110e+004,-2.55362121338182e+001,-1.71609710261554e-001

1.49484924863494e+004,-2.55362148241592e+001,-1.74004846618923e-001

1.51571656651040e+004,-2.55362175900275e+001,-1.76433398918396e-001

1.53687518128801e+004,-2.55362204335406e+001,-1.78895832825681e-001

1.55832915932100e+004,-2.55362233568747e+001,-1.81392620475989e-001

1.58008262372675e+004,-2.55362263622668e+001,-1.83924240559337e-001

1.60213975517924e+004,-2.55362294520170e+001,-1.86491178408155e-001

1.62450479271247e+004,-2.55362326284889e+001,-1.89093926094830e-001

1.64718203453514e+004,-2.55362358941127e+001,-1.91732982519055e-001

1.67017583885674e+004,-2.55362392513858e+001,-1.94408853505545e-001

1.69349062472505e+004,-2.55362427028761e+001,-1.97122051892734e-001

1.71713087287550e+004,-2.55362462512228e+001,-1.99873097634133e-001

1.74110112659224e+004,-2.55362498991385e+001,-2.02662517896732e-001

1.76540599258131e+004,-2.55362536494118e+001,-2.05490847154544e-001

1.79005014185594e+004,-2.55362575049092e+001,-2.08358627291166e-001

1.81503831063432e+004,-2.55362614685768e+001,-2.11266407703324e-001

1.84037530124975e+004,-2.55362655434431e+001,-2.14214745398675e-001

1.86606598307361e+004,-2.55362697326209e+001,-2.17204205104025e-001

1.89211529345119e+004,-2.55362740393099e+001,-2.20235359368117e-001

1.91852823865052e+004,-2.55362784667986e+001,-2.23308788670152e-001

1.94530989482457e+004,-2.55362830184675e+001,-2.26425081525578e-001

1.97246540898671e+004,-2.55362876977911e+001,-2.29584834597374e-001

1.99999999999999e+004,-2.55362925083406e+001,-2.32788652805287e-001

2.02791895958005e+004,-2.55362974537865e+001,-2.36037149440421e-001

2.05622765331213e+004,-2.55363025379017e+001,-2.39330946276505e-001

2.08493152168224e+004,-2.55363077645639e+001,-2.42670673686299e-001

2.11403608112276e+004,-2.55363131377582e+001,-2.46056970759594e-001

2.14354692507258e+004,-2.55363186615816e+001,-2.49490485415565e-001

2.17346972505211e+004,-2.55363243402439e+001,-2.52971874531737e-001

2.20381023175322e+004,-2.55363301780721e+001,-2.56501804056801e-001

2.23457427614443e+004,-2.55363361795137e+001,-2.60080949137376e-001

2.26576777059159e+004,-2.55363423491396e+001,-2.63709994240884e-001

2.29739670999406e+004,-2.55363486916472e+001,-2.67389633282131e-001

2.32946717293690e+004,-2.55363552118644e+001,-2.71120569751470e-001

2.36198532285905e+004,-2.55363619147533e+001,-2.74903516839492e-001

2.39495740923785e+004,-2.55363688054132e+001,-2.78739197573642e-001

2.42838976879009e+004,-2.55363758890849e+001,-2.82628344945312e-001

2.46228882668982e+004,-2.55363831711542e+001,-2.86571702047096e-001

2.49666109780322e+004,-2.55363906571560e+001,-2.90570022206600e-001

2.53151318794055e+004,-2.55363983527786e+001,-2.94624069123008e-001

2.56685179512580e+004,-2.55364062638676e+001,-2.98734617007268e-001

2.60268371088386e+004,-2.55364143964302e+001,-3.02902450721355e-001

2.63901582154578e+004,-2.55364227566393e+001,-3.07128365922263e-001

2.67585510957221e+004,-2.55364313508392e+001,-3.11413169201669e-001

2.71320865489533e+004,-2.55364401855483e+001,-3.15757678238194e-001

2.75108363627948e+004,-2.55364492674657e+001,-3.20162721938026e-001

2.78948733270080e+004,-2.55364586034747e+001,-3.24629140589134e-001

2.82842712474618e+004,-2.55364682006490e+001,-3.29157786008429e-001

2.86791049603164e+004,-2.55364780662565e+001,-3.33749521696799e-001

2.90794503464061e+004,-2.55364882077658e+001,-3.38405222991831e-001

2.94853843458219e+004,-2.55364986328506e+001,-3.43125777226047e-001

2.98969849726987e+004,-2.55365093493959e+001,-3.47912083883523e-001

3.03143313302078e+004,-2.55365203655033e+001,-3.52765054759120e-001

3.07375036257601e+004,-2.55365316894971e+001,-3.57685614122391e-001

3.11665831864199e+004,-2.55365433299300e+001,-3.62674698878174e-001

3.16016524745350e+004,-2.55365552955893e+001,-3.67733258734760e-001

3.20427951035848e+004,-2.55365675955031e+001,-3.72862256369146e-001

3.24900958542493e+004,-2.55365802389471e+001,-3.78062667597619e-001

3.29436406907028e+004,-2.55365932354505e+001,-3.83335481545485e-001

3.34035167771346e+004,-2.55366065948034e+001,-3.88681700820479e-001

3.38698124945009e+004,-2.55366203270635e+001,-3.94102341686762e-001

3.43426174575100e+004,-2.55366344425628e+001,-3.99598434244219e-001

3.48220225318448e+004,-2.55366489519158e+001,-4.05171022602008e-001

3.53081198516260e+004,-2.55366638660257e+001,-4.10821165064912e-001

3.58010028371187e+004,-2.55366791960931e+001,-4.16549934309699e-001

3.63007662126863e+004,-2.55366949536235e+001,-4.22358417574266e-001

3.68075060249948e+004,-2.55367111504347e+001,-4.28247716841686e-001

3.73213196614721e+004,-2.55367277986661e+001,-4.34218949026804e-001

3.78423058690237e+004,-2.55367449107861e+001,-4.40273246168778e-001

3.83705647730104e+004,-2.55367624996011e+001,-4.46411755622227e-001

3.89061978964912e+004,-2.55367805782646e+001,-4.52635640249530e-001

3.94493081797342e+004,-2.55367991602855e+001,-4.58946078617904e-001

3.99999999999998e+004,-2.55368182595379e+001,-4.65344265197017e-001

4.05583791916010e+004,-2.55368378902706e+001,-4.71831410556237e-001

4.11245530662425e+004,-2.55368580671159e+001,-4.78408741570420e-001

4.16986304336447e+004,-2.55368788051008e+001,-4.85077501617056e-001

4.22807216224550e+004,-2.55369001196557e+001,-4.91838950787186e-001

4.28709385014515e+004,-2.55369220266259e+001,-4.98694366088487e-001

4.34693945010421e+004,-2.55369445422815e+001,-5.05645041655287e-001

4.40762046350642e+004,-2.55369676833285e+001,-5.12692288959157e-001

4.46914855228886e+004,-2.55369914669197e+001,-5.19837437020651e-001

4.53153554118317e+004,-2.55370159106660e+001,-5.27081832624580e-001

4.59479341998812e+004,-2.55370410326480e+001,-5.34426840536349e-001

4.65893434587380e+004,-2.55370668514279e+001,-5.41873843716984e-001

4.72397064571810e+004,-2.55370933860610e+001,-5.49424243545542e-001

4.78991481847569e+004,-2.55371206561091e+001,-5.57079460038752e-001

4.85677953758016e+004,-2.55371486816517e+001,-5.64840932074264e-001

4.92457765337964e+004,-2.55371774833000e+001,-5.72710117614859e-001

4.99332219560642e+004,-2.55372070822092e+001,-5.80688493936102e-001

5.06302637588109e+004,-2.55372375000922e+001,-5.88777557851661e-001

5.13370359025159e+004,-2.55372687592333e+001,-5.96978825944355e-001

5.20536742176771e+004,-2.55373008825019e+001,-6.05293834797356e-001

5.27803164309155e+004,-2.55373338933666e+001,-6.13724141224729e-001

5.35171021914442e+004,-2.55373678159101e+001,-6.22271322506911e-001

5.42641730979066e+004,-2.55374026748433e+001,-6.30936976625068e-001

5.50216727255895e+004,-2.55374384955208e+001,-6.39722722498681e-001

5.57897466540159e+004,-2.55374753039560e+001,-6.48630200222217e-001

5.65685424949235e+004,-2.55375131268365e+001,-6.57661071305744e-001

5.73582099206328e+004,-2.55375519915401e+001,-6.66817018914033e-001

5.81589006928121e+004,-2.55375919261509e+001,-6.76099748109124e-001

5.89707686916437e+004,-2.55376329594758e+001,-6.85510986092815e-001

5.97939699453972e+004,-2.55376751210609e+001,-6.95052482450851e-001

6.06286626604156e+004,-2.55377184412085e+001,-7.04726009396195e-001

6.14750072515201e+004,-2.55377629509945e+001,-7.14533362016897e-001

6.23331663728396e+004,-2.55378086822856e+001,-7.24476358521748e-001

6.32033049490698e+004,-2.55378556677573e+001,-7.34556840487316e-001

6.40855902071694e+004,-2.55379039409117e+001,-7.44776673107024e-001

6.49801917084985e+004,-2.55379535360957e+001,-7.55137745438997e-001

6.58872813814055e+004,-2.55380044885200e+001,-7.65641970656003e-001

6.68070335542691e+004,-2.55380568342770e+001,-7.76291286295233e-001

6.77396249890018e+004,-2.55381106103606e+001,-7.87087654509354e-001

6.86852349150199e+004,-2.55381658546848e+001,-7.98033062315673e-001

6.96440450636895e+004,-2.55382226061036e+001,-8.09129521847862e-001

7.06162397032520e+004,-2.55382809044302e+001,-8.20379070608252e-001

7.16020056742374e+004,-2.55383407904574e+001,-8.31783771716370e-001

7.26015324253724e+004,-2.55384023059769e+001,-8.43345714162663e-001

7.36150120499896e+004,-2.55384654938003e+001,-8.55067013057288e-001

7.46426393229441e+004,-2.55385303977788e+001,-8.66949809883897e-001

7.56846117380472e+004,-2.55385970628241e+001,-8.78996272746310e-001

7.67411295460207e+004,-2.55386655349290e+001,-8.91208596622068e-001

7.78123957929823e+004,-2.55387358611880e+001,-9.03589003610378e-001

7.88986163594682e+004,-2.55388080898181e+001,-9.16139743181933e-001

7.99999999999995e+004,-2.55388822701802e+001,-9.28863092425663e-001

8.11167583832018e+004,-2.55389584527993e+001,-9.41761356299167e-001

8.22491061324848e+004,-2.55390366893864e+001,-9.54836867872508e-001

8.33972608672892e+004,-2.55391170328587e+001,-9.68091988574691e-001

8.45614432449099e+004,-2.55391995373611e+001,-9.81529108439176e-001

8.57418770029029e+004,-2.55392842582868e+001,-9.95150646346255e-001

8.69387890020841e+004,-2.55393712522983e+001,-1.00895905026502e+000

8.81524092701283e+004,-2.55394605773482e+001,-1.02295679749412e+000

8.93829710457770e+004,-2.55395522926996e+001,-1.03714639490132e+000

9.06307108236633e+004,-2.55396464589465e+001,-1.05153037916026e+000

9.18958683997622e+004,-2.55397431380340e+001,-1.06611131698621e+000

9.31786869174758e+004,-2.55398423932783e+001,-1.08089180537098e+000

9.44794129143618e+004,-2.55399442893860e+001,-1.09587447181492e+000

9.57982963695136e+004,-2.55400488924735e+001,-1.11106197455573e+000

9.71355907516031e+004,-2.55401562700859e+001,-1.12645700279856e+000

9.84915530675926e+004,-2.55402664912151e+001,-1.14206227694202e+000

9.98664439121282e+004,-2.55403796263177e+001,-1.15788054880114e+000

1.01260527517622e+005,-2.55404957473324e+001,-1.17391460183094e+000

1.02674071805032e+005,-2.55406149276966e+001,-1.19016725134544e+000

1.04107348435354e+005,-2.55407372423624e+001,-1.20664134473406e+000

1.05560632861831e+005,-2.55408627678114e+001,-1.22333976168041e+000

1.07034204382888e+005,-2.55409915820698e+001,-1.24026541437217e+000

1.08528346195813e+005,-2.55411237647214e+001,-1.25742124771390e+000

1.10043345451179e+005,-2.55412593969201e+001,-1.27481023953627e+000

1.11579493308032e+005,-2.55413985614017e+001,-1.29243540080166e+000

1.13137084989847e+005,-2.55415413424941e+001,-1.31029977580927e+000

1.14716419841265e+005,-2.55416878261263e+001,-1.32840644240023e+000

1.16317801385624e+005,-2.55418380998368e+001,-1.34675851215481e+000

1.17941537383287e+005,-2.55419922527795e+001,-1.36535913059625e+000

1.19587939890794e+005,-2.55421503757293e+001,-1.38421147738545e+000

1.21257325320831e+005,-2.55423125610852e+001,-1.40331876651943e+000

1.22950014503040e+005,-2.55424789028721e+001,-1.42268424652681e+000

1.24666332745679e+005,-2.55426494967415e+001,-1.44231120066208e+000

1.26406609898139e+005,-2.55428244399686e+001,-1.46220294710141e+000

1.28171180414339e+005,-2.55430038314499e+001,-1.48236283913447e+000

1.29960383416997e+005,-2.55431877716962e+001,-1.50279426536125e+000

1.31774562762811e+005,-2.55433763628254e+001,-1.52350064988670e+000

1.33614067108538e+005,-2.55435697085518e+001,-1.54448545251455e+000

1.35479249978003e+005,-2.55437679141734e+001,-1.56575216894841e+000

1.37370469830040e+005,-2.55439710865569e+001,-1.58730433098836e+000

1.39288090127379e+005,-2.55441793341197e+001,-1.60914550673599e+000

1.41232479406504e+005,-2.55443927668093e+001,-1.63127930079796e+000

1.43204011348474e+005,-2.55446114960796e+001,-1.65370935449736e+000

1.45203064850745e+005,-2.55448356348649e+001,-1.67643934608756e+000

1.47230024099979e+005,-2.55450652975496e+001,-1.69947299097260e+000

1.49285278645888e+005,-2.55453005999358e+001,-1.72281404193478e+000

1.51369223476094e+005,-2.55455416592070e+001,-1.74646628936732e+000

1.53482259092041e+005,-2.55457885938882e+001,-1.77043356151877e+000

1.55624791585964e+005,-2.55460415238031e+001,-1.79471972474406e+000

1.57797232718936e+005,-2.55463005700264e+001,-1.81932868376841e+000

1.59999999999999e+005,-2.55465658548333e+001,-1.84426438196249e+000

1.62233516766403e+005,-2.55468375016451e+001,-1.86953080162941e+000

1.64498212264969e+005,-2.55471156349698e+001,-1.89513196430977e+000

1.66794521734578e+005,-2.55474003803398e+001,-1.92107193109901e+000

1.69122886489819e+005,-2.55476918642443e+001,-1.94735480298494e+000

1.71483754005805e+005,-2.55479902140582e+001,-1.97398472120463e+000

1.73877578004168e+005,-2.55482955579661e+001,-2.00096586761965e+000

1.76304818540256e+005,-2.55486080248821e+001,-2.02830246511853e+000

1.78765942091554e+005,-2.55489277443653e+001,-2.05599877803943e+000

1.81261421647326e+005,-2.55492548465301e+001,-2.08405911262255e+000

1.83791736799524e+005,-2.55495894619526e+001,-2.11248781748991e+000

1.86357373834951e+005,-2.55499317215716e+001,-2.14128928415664e+000

1.88958825828723e+005,-2.55502817565864e+001,-2.17046794757392e+000

1.91596592739027e+005,-2.55506396983478e+001,-2.20002828670984e+000

1.94271181503206e+005,-2.55510056782467e+001,-2.22997482516461e+000

1.96983106135185e+005,-2.55513798275967e+001,-2.26031213182834e+000

1.99732887824256e+005,-2.55517622775126e+001,-2.29104482158158e+000

2.02521055035243e+005,-2.55521531587848e+001,-2.32217755603827e+000

2.05348143610063e+005,-2.55525526017487e+001,-2.35371504433988e+000

2.08214696870707e+005,-2.55529607361507e+001,-2.38566204399743e+000

2.11121265723661e+005,-2.55533776910093e+001,-2.41802336178806e+000

2.14068408765776e+005,-2.55538035944729e+001,-2.45080385470678e+000

2.17056692391625e+005,-2.55542385736734e+001,-2.48400843097793e+000

2.20086690902357e+005,-2.55546827545771e+001,-2.51764205112590e+000

2.23158986616063e+005,-2.55551362618313e+001,-2.55170972911288e+000

2.26274169979693e+005,-2.55555992186089e+001,-2.58621653354254e+000

2.29432839682530e+005,-2.55560717464497e+001,-2.62116758893236e+000

2.32635602771247e+005,-2.55565539650996e+001,-2.65656807706051e+000

2.35883074766574e+005,-2.55570459923482e+001,-2.69242323838738e+000

2.39175879781588e+005,-2.55575479438643e+001,-2.72873837355513e+000

2.42514650641661e+005,-2.55580599330303e+001,-2.76551884496801e+000

2.45900029006080e+005,-2.55585820707770e+001,-2.80277007845529e+000

2.49332665491357e+005,-2.55591144654167e+001,-2.84049756502176e+000

2.52813219796278e+005,-2.55596572224780e+001,-2.87870686268313e+000

2.56342360828676e+005,-2.55602104445409e+001,-2.91740359839472e+000

2.59920766833993e+005,-2.55607742310737e+001,-2.95659347006984e+000

2.63549125525621e+005,-2.55613486782721e+001,-2.99628224869449e+000

2.67228134217075e+005,-2.55619338789010e+001,-3.03647578053506e+000

2.70958499956006e+005,-2.55625299221407e+001,-3.07717998944509e+000

2.74740939660078e+005,-2.55631368934360e+001,-3.11840087927046e+000

2.78576180254757e+005,-2.55637548743514e+001,-3.16014453635233e+000

2.82464958813007e+005,-2.55643839424318e+001,-3.20241713213237e+000

2.86408022696948e+005,-2.55650241710705e+001,-3.24522492585596e+000

2.90406129701488e+005,-2.55656756293830e+001,-3.28857426737784e+000

2.94460048199957e+005,-2.55663383820912e+001,-3.33247160006827e+000

2.98570557291775e+005,-2.55670124894152e+001,-3.37692346381693e+000

3.02738446952187e+005,-2.55676980069757e+001,-3.42193649813882e+000

3.06964518184081e+005,-2.55683949857078e+001,-3.46751744537545e+000

3.11249583171928e+005,-2.55691034717855e+001,-3.51367315399320e+000

3.15594465437872e+005,-2.55698235065601e+001,-3.56041058197616e+000

3.19999999999997e+005,-2.55705551265111e+001,-3.60773680031001e+000

3.24467033532806e+005,-2.55712983632125e+001,-3.65565899655481e+000

3.28996424529938e+005,-2.55720532433139e+001,-3.70418447850351e+000

3.33589043469155e+005,-2.55728197885375e+001,-3.75332067792318e+000

3.38245772979638e+005,-2.55735980156930e+001,-3.80307515437291e+000

3.42967508011610e+005,-2.55743879367097e+001,-3.85345559909654e+000

3.47755156008335e+005,-2.55751895586867e+001,-3.90446983898290e+000

3.52609637080511e+005,-2.55760028839637e+001,-3.95612584058988e+000

3.57531884183106e+005,-2.55768279102107e+001,-4.00843171422655e+000

3.62522843294651e+005,-2.55776646305384e+001,-4.06139571808685e+000

3.67583473599047e+005,-2.55785130336307e+001,-4.11502626242739e+000

3.72714747669902e+005,-2.55793731038983e+001,-4.16933191378566e+000

3.77917651657445e+005,-2.55802448216539e+001,-4.22432139922939e+000

3.83193185478053e+005,-2.55811281633120e+001,-4.28000361062861e+000

3.88542363006410e+005,-2.55820231016093e+001,-4.33638760894688e+000

3.93966212270369e+005,-2.55829296058504e+001,-4.39348262853988e+000

3.99465775648511e+005,-2.55838476421754e+001,-4.45129808145531e+000

4.05042110070485e+005,-2.55847771738521e+001,-4.50984356172613e+000

4.10696287220124e+005,-2.55857181615912e+001,-4.56912884964861e+000

4.16429393741414e+005,-2.55866705638852e+001,-4.62916391603595e+000

4.22242531447321e+005,-2.55876343373703e+001,-4.68995892644127e+000

4.28136817531551e+005,-2.55886094372122e+001,-4.75152424533940e+000

4.34113384783250e+005,-2.55895958175137e+001,-4.81387044026158e+000

4.40173381804713e+005,-2.55905934317452e+001,-4.87700828587298e+000

4.46317973232124e+005,-2.55916022331971e+001,-4.94094876798612e+000

4.52548339959385e+005,-2.55926221754533e+001,-5.00570308750282e+000

4.58865679365059e+005,-2.55936532128852e+001,-5.07128266427621e+000

4.65271205542494e+005,-2.55946953011657e+001,-5.13769914088719e+000

4.71766149533147e+005,-2.55957483978020e+001,-5.20496438632659e+000

4.78351759563174e+005,-2.55968124626871e+001,-5.27309049957830e+000

4.85029301283321e+005,-2.55978874586671e+001,-5.34208981309791e+000

4.91800058012158e+005,-2.55989733521261e+001,-5.41197489617830e+000

4.98665330982714e+005,-2.56000701135851e+001,-5.48275855820142e+000

5.05626439592555e+005,-2.56011777183151e+001,-5.55445385176852e+000

5.12684721657352e+005,-2.56022961469621e+001,-5.62707407570710e+000

5.19841533667984e+005,-2.56034253861849e+001,-5.70063277795031e+000

5.27098251051240e+005,-2.56045654293017e+001,-5.77514375828633e+000

5.34456268434150e+005,-2.56057162769458e+001,-5.85062107097607e+000

5.41916999912011e+005,-2.56068779377294e+001,-5.92707902723829e+000

