Freq.,VOut,OutRef

1.00000000000000e+004,-2.36478293661581e+001,-3.31194543084146e-001

1.01395947979003e+004,-2.36478316211048e+001,-3.35817707973403e-001

1.02811382665607e+004,-2.36478339394262e+001,-3.40505403955087e-001

1.04246576084112e+004,-2.36478363229030e+001,-3.45258531598961e-001

1.05701804056138e+004,-2.36478387733658e+001,-3.50078004037150e-001

1.07177346253629e+004,-2.36478412926965e+001,-3.54964747137248e-001

1.08673486252606e+004,-2.36478438828297e+001,-3.59919699679999e-001

1.10190511587661e+004,-2.36478465457547e+001,-3.64943813537851e-001

1.11728713807222e+004,-2.36478492835163e+001,-3.70038053860965e-001

1.13288388529580e+004,-2.36478520982170e+001,-3.75203399256294e-001

1.14869835499703e+004,-2.36478549920179e+001,-3.80440841980713e-001

1.16473358646846e+004,-2.36478579671412e+001,-3.85751388127389e-001

1.18099266142953e+004,-2.36478610258711e+001,-3.91136057818752e-001

1.19747870461893e+004,-2.36478641705562e+001,-3.96595885402446e-001

1.21419488439505e+004,-2.36478674036110e+001,-4.02131919649133e-001

1.23114441334492e+004,-2.36478707275175e+001,-4.07745223953908e-001

1.24833054890161e+004,-2.36478741448275e+001,-4.13436876537343e-001

1.26575659397028e+004,-2.36478776581644e+001,-4.19207970654933e-001

1.28342589756290e+004,-2.36478812702254e+001,-4.25059614802546e-001

1.30134185544193e+004,-2.36478849837830e+001,-4.30992932932282e-001

1.31950791077289e+004,-2.36478888016877e+001,-4.37009064663767e-001

1.33792755478611e+004,-2.36478927268701e+001,-4.43109165505097e-001

1.35660432744767e+004,-2.36478967623428e+001,-4.49294407071077e-001

1.37554181813974e+004,-2.36479009112030e+001,-4.55565977309703e-001

1.39474366635040e+004,-2.36479051766346e+001,-4.61925080726908e-001

1.41421356237309e+004,-2.36479095619112e+001,-4.68372938617066e-001

1.43395524801583e+004,-2.36479140703977e+001,-4.74910789298466e-001

1.45397251732031e+004,-2.36479187055538e+001,-4.81539888346915e-001

1.47426921729110e+004,-2.36479234709359e+001,-4.88261508837472e-001

1.49484924863494e+004,-2.36479283702003e+001,-4.95076941585771e-001

1.51571656651040e+004,-2.36479334071058e+001,-5.01987495396724e-001

1.53687518128801e+004,-2.36479385855167e+001,-5.08994497311330e-001

1.55832915932100e+004,-2.36479439094053e+001,-5.16099292863560e-001

1.58008262372675e+004,-2.36479493828554e+001,-5.23303246334410e-001

1.60213975517924e+004,-2.36479550100653e+001,-5.30607741011836e-001

1.62450479271247e+004,-2.36479607953512e+001,-5.38014179456045e-001

1.64718203453514e+004,-2.36479667431497e+001,-5.45523983767229e-001

1.67017583885674e+004,-2.36479728580222e+001,-5.53138595854495e-001

1.69349062472505e+004,-2.36479791446577e+001,-5.60859477712930e-001

1.71713087287550e+004,-2.36479856078766e+001,-5.68688111700137e-001

1.74110112659224e+004,-2.36479922526344e+001,-5.76626000820442e-001

1.76540599258131e+004,-2.36479990840253e+001,-5.84674669009639e-001

1.79005014185594e+004,-2.36480061072862e+001,-5.92835661425777e-001

1.81503831063432e+004,-2.36480133278007e+001,-6.01110544744076e-001

1.84037530124975e+004,-2.36480207511032e+001,-6.09500907452798e-001

1.86606598307361e+004,-2.36480283828829e+001,-6.18008360157739e-001

1.89211529345119e+004,-2.36480362289884e+001,-6.26634535887808e-001

1.91852823865052e+004,-2.36480442954319e+001,-6.35381090403809e-001

1.94530989482457e+004,-2.36480525883941e+001,-6.44249702515941e-001

1.97246540898671e+004,-2.36480611142285e+001,-6.53242074401022e-001

1.99999999999999e+004,-2.36480698794661e+001,-6.62359931926361e-001

2.02791895958005e+004,-2.36480788908213e+001,-6.71605024976691e-001

2.05622765331213e+004,-2.36480881551957e+001,-6.80979127787233e-001

2.08493152168224e+004,-2.36480976796844e+001,-6.90484039280324e-001

2.11403608112276e+004,-2.36481074715804e+001,-7.00121583406458e-001

2.14354692507258e+004,-2.36481175383812e+001,-7.09893609489023e-001

2.17346972505211e+004,-2.36481278877935e+001,-7.19801992577225e-001

2.20381023175322e+004,-2.36481385277396e+001,-7.29848633798437e-001

2.23457427614443e+004,-2.36481494663633e+001,-7.40035460720801e-001

2.26576777059159e+004,-2.36481607120357e+001,-7.50364427717728e-001

2.29739670999406e+004,-2.36481722733620e+001,-7.60837516335321e-001

2.32946717293690e+004,-2.36481841591878e+001,-7.71456735670787e-001

2.36198532285905e+004,-2.36481963786055e+001,-7.82224122749140e-001

2.39495740923785e+004,-2.36482089409618e+001,-7.93141742910379e-001

2.42838976879009e+004,-2.36482218558640e+001,-8.04211690198483e-001

2.46228882668982e+004,-2.36482351331878e+001,-8.15436087757062e-001

2.49666109780322e+004,-2.36482487830843e+001,-8.26817088230892e-001

2.53151318794055e+004,-2.36482628159880e+001,-8.38356874169837e-001

2.56685179512580e+004,-2.36482772426245e+001,-8.50057658442536e-001

2.60268371088386e+004,-2.36482920740184e+001,-8.61921684651824e-001

2.63901582154578e+004,-2.36483073215020e+001,-8.73951227557962e-001

2.67585510957221e+004,-2.36483229967230e+001,-8.86148593507311e-001

2.71320865489533e+004,-2.36483391116542e+001,-8.98516120865226e-001

2.75108363627948e+004,-2.36483556786019e+001,-9.11056180455448e-001

2.78948733270080e+004,-2.36483727102151e+001,-9.23771176005905e-001

2.82842712474618e+004,-2.36483902194953e+001,-9.36663544601121e-001

2.86791049603164e+004,-2.36484082198058e+001,-9.49735757137999e-001

2.90794503464061e+004,-2.36484267248818e+001,-9.62990318789944e-001

2.94853843458219e+004,-2.36484457488411e+001,-9.76429769475439e-001

2.98969849726987e+004,-2.36484653061938e+001,-9.90056684334825e-001

3.03143313302078e+004,-2.36484854118538e+001,-1.00387367421234e+000

3.07375036257601e+004,-2.36485060811497e+001,-1.01788338614226e+000

3.11665831864199e+004,-2.36485273298360e+001,-1.03208850384556e+000

3.16016524745350e+004,-2.36485491741050e+001,-1.04649174823027e+000

3.20427951035848e+004,-2.36485716305987e+001,-1.06109587789966e+000

3.24900958542493e+004,-2.36485947164213e+001,-1.07590368966500e+000

3.29436406907028e+004,-2.36486184491519e+001,-1.09091801906762e+000

3.34035167771346e+004,-2.36486428468569e+001,-1.10614174090645e+000

3.38698124945009e+004,-2.36486679281045e+001,-1.12157776977209e+000

3.43426174575100e+004,-2.36486937119771e+001,-1.13722906058888e+000

3.48220225318448e+004,-2.36487202180862e+001,-1.15309860916320e+000

3.53081198516260e+004,-2.36487474665869e+001,-1.16918945273741e+000

3.58010028371187e+004,-2.36487754781921e+001,-1.18550467055450e+000

3.63007662126863e+004,-2.36488042741883e+001,-1.20204738442696e+000

3.68075060249948e+004,-2.36488338764511e+001,-1.21882075931334e+000

3.73213196614721e+004,-2.36488643074607e+001,-1.23582800390357e+000

3.78423058690237e+004,-2.36488955903193e+001,-1.25307237121058e+000

3.83705647730104e+004,-2.36489277487670e+001,-1.27055715916888e+000

3.89061978964912e+004,-2.36489608072000e+001,-1.28828571124267e+000

3.94493081797342e+004,-2.36489947906875e+001,-1.30626141703962e+000

3.99999999999998e+004,-2.36490297249910e+001,-1.32448771293289e+000

4.05583791916010e+004,-2.36490656365819e+001,-1.34296808269320e+000

4.11245530662425e+004,-2.36491025526613e+001,-1.36170605812379e+000

4.16986304336447e+004,-2.36491405011798e+001,-1.38070521970925e+000

4.22807216224550e+004,-2.36491795108574e+001,-1.39996919726754e+000

4.28709385014515e+004,-2.36492196112044e+001,-1.41950167061333e+000

4.34693945010421e+004,-2.36492608325424e+001,-1.43930637022740e+000

4.40762046350642e+004,-2.36493032060266e+001,-1.45938707793606e+000

4.46914855228886e+004,-2.36493467636676e+001,-1.47974762759715e+000

4.53153554118317e+004,-2.36493915383547e+001,-1.50039190579578e+000

4.59479341998812e+004,-2.36494375638792e+001,-1.52132385254838e+000

4.65893434587380e+004,-2.36494848749588e+001,-1.54254746201366e+000

4.72397064571810e+004,-2.36495335072619e+001,-1.56406678321499e+000

4.78991481847569e+004,-2.36495834974333e+001,-1.58588592076972e+000

4.85677953758016e+004,-2.36496348831200e+001,-1.60800903562613e+000

4.92457765337964e+004,-2.36496877029979e+001,-1.63044034581261e+000

4.99332219560642e+004,-2.36497419967989e+001,-1.65318412719195e+000

5.06302637588109e+004,-2.36497978053391e+001,-1.67624471422778e+000

5.13370359025159e+004,-2.36498551705474e+001,-1.69962650075740e+000

5.20536742176771e+004,-2.36499141354949e+001,-1.72333394077542e+000

5.27803164309155e+004,-2.36499747444248e+001,-1.74737154922616e+000

5.35171021914442e+004,-2.36500370427834e+001,-1.77174390280463e+000

5.42641730979066e+004,-2.36501010772514e+001,-1.79645564076824e+000

5.50216727255895e+004,-2.36501668957769e+001,-1.82151146575604e+000

5.57897466540159e+004,-2.36502345476076e+001,-1.84691614461842e+000

5.65685424949235e+004,-2.36503040833256e+001,-1.87267450925648e+000

5.73582099206328e+004,-2.36503755548815e+001,-1.89879145746940e+000

5.81589006928121e+004,-2.36504490156301e+001,-1.92527195381479e+000

5.89707686916437e+004,-2.36505245203671e+001,-1.95212103047414e+000

5.97939699453972e+004,-2.36506021253659e+001,-1.97934378813085e+000

6.06286626604156e+004,-2.36506818884162e+001,-2.00694539685843e+000

6.14750072515201e+004,-2.36507638688626e+001,-2.03493109701588e+000

6.23331663728396e+004,-2.36508481276447e+001,-2.06330620015560e+000

6.32033049490698e+004,-2.36509347273380e+001,-2.09207608993986e+000

6.40855902071694e+004,-2.36510237321956e+001,-2.12124622306679e+000

6.49801917084985e+004,-2.36511152081911e+001,-2.15082213020742e+000

6.58872813814055e+004,-2.36512092230619e+001,-2.18080941695281e+000

6.68070335542691e+004,-2.36513058463543e+001,-2.21121376476963e+000

6.77396249890018e+004,-2.36514051494691e+001,-2.24204093196758e+000

6.86852349150199e+004,-2.36515072057080e+001,-2.27329675467643e+000

6.96440450636895e+004,-2.36516120903217e+001,-2.30498714783276e+000

7.06162397032520e+004,-2.36517198805584e+001,-2.33711810617785e+000

7.16020056742374e+004,-2.36518306557139e+001,-2.36969570526442e+000

7.26015324253724e+004,-2.36519444971821e+001,-2.40272610247531e+000

7.36150120499896e+004,-2.36520614885073e+001,-2.43621553805102e+000

7.46426393229441e+004,-2.36521817154370e+001,-2.47017033612893e+000

7.56846117380472e+004,-2.36523052659767e+001,-2.50459690579165e+000

7.67411295460207e+004,-2.36524322304442e+001,-2.53950174212684e+000

7.78123957929823e+004,-2.36525627015270e+001,-2.57489142729618e+000

7.88986163594682e+004,-2.36526967743395e+001,-2.61077263161665e+000

7.99999999999995e+004,-2.36528345464816e+001,-2.64715211465055e+000

8.11167583832018e+004,-2.36529761180990e+001,-2.68403672630718e+000

8.22491061324848e+004,-2.36531215919441e+001,-2.72143340795410e+000

8.33972608672892e+004,-2.36532710734383e+001,-2.75934919353929e+000

8.45614432449099e+004,-2.36534246707356e+001,-2.79779121072563e+000

8.57418770029029e+004,-2.36535824947875e+001,-2.83676668203235e+000

8.69387890020841e+004,-2.36537446594083e+001,-2.87628292599066e+000

8.81524092701283e+004,-2.36539112813432e+001,-2.91634735830825e+000

8.93829710457770e+004,-2.36540824803358e+001,-2.95696749304489e+000

9.06307108236633e+004,-2.36542583791985e+001,-2.99815094379835e+000

9.18958683997622e+004,-2.36544391038827e+001,-3.03990542490181e+000

9.31786869174758e+004,-2.36546247835514e+001,-3.08223875263187e+000

9.44794129143618e+004,-2.36548155506525e+001,-3.12515884642761e+000

9.57982963695136e+004,-2.36550115409933e+001,-3.16867373011888e+000

9.71355907516031e+004,-2.36552128938164e+001,-3.21279153316826e+000

9.84915530675926e+004,-2.36554197518766e+001,-3.25752049192212e+000

9.98664439121282e+004,-2.36556322615198e+001,-3.30286895087326e+000

1.01260527517622e+005,-2.36558505727622e+001,-3.34884536393401e+000

1.02674071805032e+005,-2.36560748393713e+001,-3.39545829572246e+000

1.04107348435354e+005,-2.36563052189477e+001,-3.44271642285760e+000

1.05560632861831e+005,-2.36565418730091e+001,-3.49062853526666e+000

1.07034204382888e+005,-2.36567849670739e+001,-3.53920353750548e+000

1.08528346195813e+005,-2.36570346707478e+001,-3.58845045008750e+000

1.10043345451179e+005,-2.36572911578101e+001,-3.63837841082690e+000

1.11579493308032e+005,-2.36575546063023e+001,-3.68899667619224e+000

1.13137084989847e+005,-2.36578251986171e+001,-3.74031462267311e+000

1.14716419841265e+005,-2.36581031215893e+001,-3.79234174815735e+000

1.16317801385624e+005,-2.36583885665868e+001,-3.84508767332253e+000

1.17941537383287e+005,-2.36586817296039e+001,-3.89856214303783e+000

1.19587939890794e+005,-2.36589828113551e+001,-3.95277502778070e+000

1.21257325320831e+005,-2.36592920173697e+001,-4.00773632506505e+000

1.22950014503040e+005,-2.36596095580884e+001,-4.06345616088290e+000

1.24666332745679e+005,-2.36599356489601e+001,-4.11994479116021e+000

1.26406609898139e+005,-2.36602705105401e+001,-4.17721260322554e+000

1.28171180414339e+005,-2.36606143685893e+001,-4.23527011729375e+000

1.29960383416997e+005,-2.36609674541745e+001,-4.29412798796278e+000

1.31774562762811e+005,-2.36613300037694e+001,-4.35379700572793e+000

1.33614067108538e+005,-2.36617022593568e+001,-4.41428809850780e+000

1.35479249978003e+005,-2.36620844685316e+001,-4.47561233318935e+000

1.37370469830040e+005,-2.36624768846047e+001,-4.53778091718691e+000

1.39288090127379e+005,-2.36628797667082e+001,-4.60080520001887e+000

1.41232479406504e+005,-2.36632933799005e+001,-4.66469667490217e+000

1.43204011348474e+005,-2.36637179952736e+001,-4.72946698036316e+000

1.45203064850745e+005,-2.36641538900599e+001,-4.79512790186850e+000

1.47230024099979e+005,-2.36646013477409e+001,-4.86169137347436e+000

1.49285278645888e+005,-2.36650606581558e+001,-4.92916947949654e+000

1.51369223476094e+005,-2.36655321176121e+001,-4.99757445619968e+000

1.53482259092041e+005,-2.36660160289952e+001,-5.06691869350977e+000

1.55624791585964e+005,-2.36665127018808e+001,-5.13721473674842e+000

1.57797232718936e+005,-2.36670224526467e+001,-5.20847528838986e+000

1.59999999999999e+005,-2.36675456045859e+001,-5.28071320984286e+000

1.62233516766403e+005,-2.36680824880204e+001,-5.35394152325861e+000

1.64498212264969e+005,-2.36686334404161e+001,-5.42817341336368e+000

1.66794521734578e+005,-2.36691988064982e+001,-5.50342222932131e+000

1.69122886489819e+005,-2.36697789383674e+001,-5.57970148662159e+000

1.71483754005805e+005,-2.36703741956179e+001,-5.65702486900116e+000

1.73877578004168e+005,-2.36709849454552e+001,-5.73540623039448e+000

1.76304818540256e+005,-2.36716115628159e+001,-5.81485959691794e+000

1.78765942091554e+005,-2.36722544304877e+001,-5.89539916888737e+000

1.81261421647326e+005,-2.36729139392317e+001,-5.97703932287178e+000

1.83791736799524e+005,-2.36735904879050e+001,-6.05979461378368e+000

1.86357373834951e+005,-2.36742844835856e+001,-6.14367977700841e+000

1.88958825828723e+005,-2.36749963416977e+001,-6.22870973057271e+000

1.91596592739027e+005,-2.36757264861396e+001,-6.31489957735653e+000

1.94271181503206e+005,-2.36764753494136e+001,-6.40226460734721e+000

1.96983106135185e+005,-2.36772433727568e+001,-6.49082029993935e+000

1.99732887824256e+005,-2.36780310062749e+001,-6.58058232628210e+000

2.02521055035243e+005,-2.36788387090785e+001,-6.67156655167435e+000

2.05348143610063e+005,-2.36796669494216e+001,-6.76378903801139e+000

2.08214696870707e+005,-2.36805162048434e+001,-6.85726604628374e+000

2.11121265723661e+005,-2.36813869623128e+001,-6.95201403912982e+000

2.14068408765776e+005,-2.36822797183768e+001,-7.04804968344584e+000

2.17056692391625e+005,-2.36831949793130e+001,-7.14538985305242e+000

2.20086690902357e+005,-2.36841332612851e+001,-7.24405163142142e+000

2.23158986616063e+005,-2.36850950905045e+001,-7.34405231446475e+000

2.26274169979693e+005,-2.36860810033955e+001,-7.44540941338597e+000

2.29432839682530e+005,-2.36870915467673e+001,-7.54814065759653e+000

2.32635602771247e+005,-2.36881272779902e+001,-7.65226399769987e+000

2.35883074766574e+005,-2.36891887651799e+001,-7.75779760854175e+000

2.39175879781588e+005,-2.36902765873875e+001,-7.86475989233247e+000

2.42514650641661e+005,-2.36913913347975e+001,-7.97316948183758e+000

2.45900029006080e+005,-2.36925336089340e+001,-8.08304524364267e+000

2.49332665491357e+005,-2.36937040228751e+001,-8.19440628149093e+000

2.52813219796278e+005,-2.36949032014772e+001,-8.30727193969421e+000

2.56342360828676e+005,-2.36961317816090e+001,-8.42166180662008e+000

2.59920766833993e+005,-2.36973904123966e+001,-8.53759571825366e+000

2.63549125525621e+005,-2.36986797554795e+001,-8.65509376183618e+000

2.67228134217075e+005,-2.37000004852797e+001,-8.77417627957858e+000

2.70958499956006e+005,-2.37013532892833e+001,-8.89486387245240e+000

2.74740939660078e+005,-2.37027388683365e+001,-9.01717740405465e+000

2.78576180254757e+005,-2.37041579369557e+001,-9.14113800454964e+000

2.82464958813007e+005,-2.37056112236543e+001,-9.26676707468298e+000

2.86408022696948e+005,-2.37070994712851e+001,-9.39408628986950e+000

2.90406129701488e+005,-2.37086234374009e+001,-9.52311760435206e+000

2.94460048199957e+005,-2.37101838946333e+001,-9.65388325542886e+000

2.98570557291775e+005,-2.37117816310907e+001,-9.78640576774924e+000

3.02738446952187e+005,-2.37134174507772e+001,-9.92070795767130e+000

3.06964518184081e+005,-2.37150921740322e+001,-1.00568129376827e+001

3.11249583171928e+005,-2.37168066379933e+001,-1.01947441208775e+001

3.15594465437872e+005,-2.37185616970811e+001,-1.03345252254872e+001

3.19999999999997e+005,-2.37203582235099e+001,-1.04761802794598e+001

3.24467033532806e+005,-2.37221971078223e+001,-1.06197336250849e+001

3.28996424529938e+005,-2.37240792594508e+001,-1.07652099236552e+001

3.33589043469155e+005,-2.37260056073065e+001,-1.09126341601632e+001

3.38245772979638e+005,-2.37279771003956e+001,-1.10620316480232e+001

3.42967508011610e+005,-2.37299947084647e+001,-1.12134280338141e+001

3.47755156008335e+005,-2.37320594226770e+001,-1.13668493020345e+001

3.52609637080511e+005,-2.37341722563175e+001,-1.15223217798634e+001

3.57531884183106e+005,-2.37363342455313e+001,-1.16798721419174e+001

3.62522843294651e+005,-2.37385464500929e+001,-1.18395274149975e+001

3.67583473599047e+005,-2.37408099542089e+001,-1.20013149828135e+001

3.72714747669902e+005,-2.37431258673541e+001,-1.21652625906801e+001

3.77917651657445e+005,-2.37454953251415e+001,-1.23313983501722e+001

3.83193185478053e+005,-2.37479194902274e+001,-1.24997507437313e+001

3.88542363006410e+005,-2.37503995532509e+001,-1.26703486292092e+001

3.93966212270369e+005,-2.37529367338086e+001,-1.28432212443429e+001

3.99465775648511e+005,-2.37555322814662e+001,-1.30183982111444e+001

4.05042110070485e+005,-2.37581874768042e+001,-1.31959095401979e+001

4.10696287220124e+005,-2.37609036325009e+001,-1.33757856348499e+001

4.16429393741414e+005,-2.37636820944505e+001,-1.35580572952823e+001

4.22242531447321e+005,-2.37665242429179e+001,-1.37427557224541e+001

4.28136817531551e+005,-2.37694314937282e+001,-1.39299125219030e+001

4.34113384783250e+005,-2.37724052994930e+001,-1.41195597073890e+001

4.40173381804713e+005,-2.37754471508704e+001,-1.43117297043740e+001

4.46317973232124e+005,-2.37785585778606e+001,-1.45064553533196e+001

4.52548339959385e+005,-2.37817411511356e+001,-1.47037699127934e+001

4.58865679365059e+005,-2.37849964834019e+001,-1.49037070623708e+001

4.65271205542494e+005,-2.37883262307961e+001,-1.51063009053194e+001

4.71766149533147e+005,-2.37917320943129e+001,-1.53115859710553e+001

4.78351759563174e+005,-2.37952158212633e+001,-1.55195972173568e+001

4.85029301283321e+005,-2.37987792067631e+001,-1.57303700323263e+001

4.91800058012158e+005,-2.38024240952505e+001,-1.59439402360863e+001

4.98665330982714e+005,-2.38061523820309e+001,-1.61603440822013e+001

5.05626439592555e+005,-2.38099660148484e+001,-1.63796182588102e+001

5.12684721657352e+005,-2.38138669954818e+001,-1.66017998894633e+001

5.19841533667984e+005,-2.38178573813652e+001,-1.68269265336493e+001

5.27098251051240e+005,-2.38219392872295e+001,-1.70550361870054e+001

5.34456268434150e+005,-2.38261148867652e+001,-1.72861672811981e+001

5.41916999912011e+005,-2.38303864143038e+001,-1.75203586834681e+001

