Freq.,VOut,OutRef

1.00000000000000e+004,-2.24331363033203e+001,-4.35018483010516e-001

1.01395947979003e+004,-2.24331397289792e+001,-4.41090912124963e-001

1.02811382665607e+004,-2.24331432509181e+001,-4.47248100590864e-001

1.04246576084112e+004,-2.24331468718425e+001,-4.53491231238921e-001

1.05701804056138e+004,-2.24331505945334e+001,-4.59821503397316e-001

1.07177346253629e+004,-2.24331544218499e+001,-4.66240133119934e-001

1.08673486252606e+004,-2.24331583567317e+001,-4.72748353418835e-001

1.10190511587661e+004,-2.24331624022008e+001,-4.79347414500301e-001

1.11728713807222e+004,-2.24331665613642e+001,-4.86038584005817e-001

1.13288388529580e+004,-2.24331708374159e+001,-4.92823147253085e-001

1.14869835499703e+004,-2.24331752336398e+001,-4.99702407480919e-001

1.16473358646846e+004,-2.24331797534119e+001,-5.06677686101786e-001

1.18099266142953e+004,-2.24331844002029e+001,-5.13750322952221e-001

1.19747870461893e+004,-2.24331891775811e+001,-5.20921676549328e-001

1.21419488439505e+004,-2.24331940892147e+001,-5.28193124351593e-001

1.23114441334492e+004,-2.24331991388750e+001,-5.35566063020857e-001

1.24833054890161e+004,-2.24332043304393e+001,-5.43041908690593e-001

1.26575659397028e+004,-2.24332096678935e+001,-5.50622097236147e-001

1.28342589756290e+004,-2.24332151553354e+001,-5.58308084549580e-001

1.30134185544193e+004,-2.24332207969778e+001,-5.66101346817229e-001

1.31950791077289e+004,-2.24332265971519e+001,-5.74003380801958e-001

1.33792755478611e+004,-2.24332325603101e+001,-5.82015704130618e-001

1.35660432744767e+004,-2.24332386910299e+001,-5.90139855580436e-001

1.37554181813974e+004,-2.24332449940173e+001,-5.98377395377679e-001

1.39474366635040e+004,-2.24332514741102e+001,-6.06729905490681e-001

1.41421356237309e+004,-2.24332581362823e+001,-6.15198989935605e-001

1.43395524801583e+004,-2.24332649856468e+001,-6.23786275081219e-001

1.45397251732031e+004,-2.24332720274603e+001,-6.32493409959259e-001

1.47426921729110e+004,-2.24332792671268e+001,-6.41322066578956e-001

1.49484924863494e+004,-2.24332867102020e+001,-6.50273940246284e-001

1.51571656651040e+004,-2.24332943623973e+001,-6.59350749887729e-001

1.53687518128801e+004,-2.24333022295842e+001,-6.68554238376843e-001

1.55832915932100e+004,-2.24333103177990e+001,-6.77886172867857e-001

1.58008262372675e+004,-2.24333186332471e+001,-6.87348345132981e-001

1.60213975517924e+004,-2.24333271823080e+001,-6.96942571900824e-001

1.62450479271247e+004,-2.24333359715400e+001,-7.06670695206204e-001

1.64718203453514e+004,-2.24333450076851e+001,-7.16534582739341e-001

1.67017583885674e+004,-2.24333542976745e+001,-7.26536128200742e-001

1.69349062472505e+004,-2.24333638486335e+001,-7.36677251663344e-001

1.71713087287550e+004,-2.24333736678872e+001,-7.46959899936913e-001

1.74110112659224e+004,-2.24333837629657e+001,-7.57386046939622e-001

1.76540599258131e+004,-2.24333941416107e+001,-7.67957694071072e-001

1.79005014185594e+004,-2.24334048117800e+001,-7.78676870596407e-001

1.81503831063432e+004,-2.24334157816549e+001,-7.89545634029026e-001

1.84037530124975e+004,-2.24334270596456e+001,-8.00566070523794e-001

1.86606598307361e+004,-2.24334386543981e+001,-8.11740295271560e-001

1.89211529345119e+004,-2.24334505748003e+001,-8.23070452902788e-001

1.91852823865052e+004,-2.24334628299891e+001,-8.34558717893813e-001

1.94530989482457e+004,-2.24334754293570e+001,-8.46207294979327e-001

1.97246540898671e+004,-2.24334883825599e+001,-8.58018419571245e-001

1.99999999999999e+004,-2.24335016995237e+001,-8.69994358182295e-001

2.02791895958005e+004,-2.24335153904521e+001,-8.82137408856850e-001

2.05622765331213e+004,-2.24335294658344e+001,-8.94449901604585e-001

2.08493152168224e+004,-2.24335439364535e+001,-9.06934198844293e-001

2.11403608112276e+004,-2.24335588133939e+001,-9.19592695849525e-001

2.14354692507258e+004,-2.24335741080503e+001,-9.32427821202025e-001

2.17346972505211e+004,-2.24335898321360e+001,-9.45442037253099e-001

2.20381023175322e+004,-2.24336059976919e+001,-9.58637840587502e-001

2.23457427614443e+004,-2.24336226170957e+001,-9.72017762496175e-001

2.26576777059159e+004,-2.24336397030711e+001,-9.85584369454989e-001

2.29739670999406e+004,-2.24336572686973e+001,-9.99340263609517e-001

2.32946717293690e+004,-2.24336753274195e+001,-1.01328808326503e+000

2.36198532285905e+004,-2.24336938930583e+001,-1.02743050338620e+000

2.39495740923785e+004,-2.24337129798206e+001,-1.04177023610014e+000

2.42838976879009e+004,-2.24337326023099e+001,-1.05631003120976e+000

2.46228882668982e+004,-2.24337527755380e+001,-1.07105267670909e+000

2.49666109780322e+004,-2.24337735149357e+001,-1.08600099931096e+000

2.53151318794055e+004,-2.24337948363647e+001,-1.10115786497652e+000

2.56685179512580e+004,-2.24338167561293e+001,-1.11652617945687e+000

2.60268371088386e+004,-2.24338392909892e+001,-1.13210888883735e+000

2.63901582154578e+004,-2.24338624581714e+001,-1.14790898009197e+000

2.67585510957221e+004,-2.24338862753838e+001,-1.16392948164444e+000

2.71320865489533e+004,-2.24339107608279e+001,-1.18017346393548e+000

2.75108363627948e+004,-2.24339359332130e+001,-1.19664403999953e+000

2.78948733270080e+004,-2.24339618117700e+001,-1.21334436604717e+000

2.82842712474618e+004,-2.24339884162658e+001,-1.23027764205692e+000

2.86791049603164e+004,-2.24340157670180e+001,-1.24744711237341e+000

2.90794503464061e+004,-2.24340438849103e+001,-1.26485606631521e+000

2.94853843458219e+004,-2.24340727914083e+001,-1.28250783878698e+000

2.98969849726987e+004,-2.24341025085749e+001,-1.30040581090492e+000

3.03143313302078e+004,-2.24341330590876e+001,-1.31855341062545e+000

3.07375036257601e+004,-2.24341644662545e+001,-1.33695411338532e+000

3.11665831864199e+004,-2.24341967540328e+001,-1.35561144274749e+000

3.16016524745350e+004,-2.24342299470455e+001,-1.37452897105857e+000

3.20427951035848e+004,-2.24342640706007e+001,-1.39371032011151e+000

3.24900958542493e+004,-2.24342991507096e+001,-1.41315916181838e+000

3.29436406907028e+004,-2.24343352141064e+001,-1.43287921889324e+000

3.34035167771346e+004,-2.24343722882680e+001,-1.45287426553954e+000

3.38698124945009e+004,-2.24344104014342e+001,-1.47314812815269e+000

3.43426174575100e+004,-2.24344495826290e+001,-1.49370468602333e+000

3.48220225318448e+004,-2.24344898616815e+001,-1.51454787205925e+000

3.53081198516260e+004,-2.24345312692484e+001,-1.53568167350782e+000

3.58010028371187e+004,-2.24345738368367e+001,-1.55711013269235e+000

3.63007662126863e+004,-2.24346175968265e+001,-1.57883734775832e+000

3.68075060249948e+004,-2.24346625824953e+001,-1.60086747342388e+000

3.73213196614721e+004,-2.24347088280421e+001,-1.62320472174740e+000

3.78423058690237e+004,-2.24347563686131e+001,-1.64585336289695e+000

3.83705647730104e+004,-2.24348052403267e+001,-1.66881772593613e+000

3.89061978964912e+004,-2.24348554803007e+001,-1.69210219961382e+000

3.94493081797342e+004,-2.24349071266790e+001,-1.71571123316895e+000

3.99999999999998e+004,-2.24349602186599e+001,-1.73964933714184e+000

4.05583791916010e+004,-2.24350147965244e+001,-1.76392108419579e+000

4.11245530662425e+004,-2.24350709016655e+001,-1.78853110995145e+000

4.16986304336447e+004,-2.24351285766187e+001,-1.81348411382777e+000

4.22807216224550e+004,-2.24351878650928e+001,-1.83878485989646e+000

4.28709385014515e+004,-2.24352488120011e+001,-1.86443817774502e+000

4.34693945010421e+004,-2.24353114634948e+001,-1.89044896334980e+000

4.40762046350642e+004,-2.24353758669958e+001,-1.91682217996167e+000

4.46914855228886e+004,-2.24354420712311e+001,-1.94356285900094e+000

4.53153554118317e+004,-2.24355101262679e+001,-1.97067610096315e+000

4.59479341998812e+004,-2.24355800835497e+001,-1.99816707633570e+000

4.65893434587380e+004,-2.24356519959333e+001,-2.02604102652501e+000

4.72397064571810e+004,-2.24357259177262e+001,-2.05430326479719e+000

4.78991481847569e+004,-2.24358019047264e+001,-2.08295917722444e+000

4.85677953758016e+004,-2.24358800142612e+001,-2.11201422364920e+000

4.92457765337964e+004,-2.24359603052289e+001,-2.14147393865398e+000

4.99332219560642e+004,-2.24360428381402e+001,-2.17134393254519e+000

5.06302637588109e+004,-2.24361276751612e+001,-2.20162989234860e+000

5.13370359025159e+004,-2.24362148801574e+001,-2.23233758281502e+000

5.20536742176771e+004,-2.24363045187390e+001,-2.26347284743751e+000

5.27803164309155e+004,-2.24363966583071e+001,-2.29504160948115e+000

5.35171021914442e+004,-2.24364913681008e+001,-2.32704987302320e+000

5.42641730979066e+004,-2.24365887192459e+001,-2.35950372400726e+000

5.50216727255895e+004,-2.24366887848050e+001,-2.39240933130533e+000

5.57897466540159e+004,-2.24367916398278e+001,-2.42577294779622e+000

5.65685424949235e+004,-2.24368973614037e+001,-2.45960091145164e+000

5.73582099206328e+004,-2.24370060287156e+001,-2.49389964643703e+000

5.81589006928121e+004,-2.24371177230938e+001,-2.52867566422416e+000

5.89707686916437e+004,-2.24372325280730e+001,-2.56393556471331e+000

5.97939699453972e+004,-2.24373505294493e+001,-2.59968603737115e+000

6.06286626604156e+004,-2.24374718153390e+001,-2.63593386237815e+000

6.14750072515201e+004,-2.24375964762389e+001,-2.67268591178785e+000

6.23331663728396e+004,-2.24377246050880e+001,-2.70994915070163e+000

6.32033049490698e+004,-2.24378562973305e+001,-2.74773063845143e+000

6.40855902071694e+004,-2.24379916509806e+001,-2.78603752979759e+000

6.49801917084985e+004,-2.24381307666880e+001,-2.82487707613848e+000

6.58872813814055e+004,-2.24382737478064e+001,-2.86425662673081e+000

6.68070335542691e+004,-2.24384207004618e+001,-2.90418362992533e+000

6.77396249890018e+004,-2.24385717336238e+001,-2.94466563441174e+000

6.86852349150199e+004,-2.24387269591778e+001,-2.98571029047759e+000

6.96440450636895e+004,-2.24388864919990e+001,-3.02732535128048e+000

7.06162397032520e+004,-2.24390504500279e+001,-3.06951867412934e+000

7.16020056742374e+004,-2.24392189543479e+001,-3.11229822178241e+000

7.26015324253724e+004,-2.24393921292646e+001,-3.15567206375390e+000

7.36150120499896e+004,-2.24395701023858e+001,-3.19964837763526e+000

7.46426393229441e+004,-2.24397530047048e+001,-3.24423545042814e+000

7.56846117380472e+004,-2.24399409706846e+001,-3.28944167988969e+000

7.67411295460207e+004,-2.24401341383440e+001,-3.33527557589014e+000

7.78123957929823e+004,-2.24403326493456e+001,-3.38174576178300e+000

7.88986163594682e+004,-2.24405366490857e+001,-3.42886097578749e+000

7.99999999999995e+004,-2.24407462867862e+001,-3.47663007238279e+000

8.11167583832018e+004,-2.24409617155883e+001,-3.52506202371587e+000

8.22491061324848e+004,-2.24411830926477e+001,-3.57416592102024e+000

8.33972608672892e+004,-2.24414105792329e+001,-3.62395097604730e+000

8.45614432449099e+004,-2.24416443408240e+001,-3.67442652251034e+000

8.57418770029029e+004,-2.24418845472149e+001,-3.72560201754028e+000

8.69387890020841e+004,-2.24421313726163e+001,-3.77748704315385e+000

8.81524092701283e+004,-2.24423849957617e+001,-3.83009130773358e+000

8.93829710457770e+004,-2.24426456000148e+001,-3.88342464751994e+000

9.06307108236633e+004,-2.24429133734792e+001,-3.93749702811563e+000

9.18958683997622e+004,-2.24431885091103e+001,-3.99231854600247e+000

9.31786869174758e+004,-2.24434712048293e+001,-4.04789943006837e+000

9.44794129143618e+004,-2.24437616636388e+001,-4.10425004314880e+000

9.57982963695136e+004,-2.24440600937413e+001,-4.16138088357784e+000

9.71355907516031e+004,-2.24443667086593e+001,-4.21930258675292e+000

9.84915530675926e+004,-2.24446817273573e+001,-4.27802592671042e+000

9.98664439121282e+004,-2.24450053743672e+001,-4.33756181771334e+000

1.01260527517622e+005,-2.24453378799141e+001,-4.39792131585109e+000

1.02674071805032e+005,-2.24456794800458e+001,-4.45911562065012e+000

1.04107348435354e+005,-2.24460304167630e+001,-4.52115607669855e+000

1.05560632861831e+005,-2.24463909381536e+001,-4.58405417527957e+000

1.07034204382888e+005,-2.24467612985271e+001,-4.64782155601948e+000

1.08528346195813e+005,-2.24471417585525e+001,-4.71247000854584e+000

1.10043345451179e+005,-2.24475325853980e+001,-4.77801147415847e+000

1.11579493308032e+005,-2.24479340528725e+001,-4.84445804751224e+000

1.13137084989847e+005,-2.24483464415701e+001,-4.91182197831105e+000

1.14716419841265e+005,-2.24487700390158e+001,-4.98011567301532e+000

1.16317801385624e+005,-2.24492051398141e+001,-5.04935169656061e+000

1.17941537383287e+005,-2.24496520457992e+001,-5.11954277408867e+000

1.19587939890794e+005,-2.24501110661876e+001,-5.19070179269197e+000

1.21257325320831e+005,-2.24505825177326e+001,-5.26284180316912e+000

1.22950014503040e+005,-2.24510667248814e+001,-5.33597602179469e+000

1.24666332745679e+005,-2.24515640199337e+001,-5.41011783210060e+000

1.26406609898139e+005,-2.24520747432024e+001,-5.48528078667244e+000

1.28171180414339e+005,-2.24525992431770e+001,-5.56147860895700e+000

1.29960383416997e+005,-2.24531378766881e+001,-5.63872519508579e+000

1.31774562762811e+005,-2.24536910090749e+001,-5.71703461571156e+000

1.33614067108538e+005,-2.24542590143536e+001,-5.79642111785879e+000

1.35479249978003e+005,-2.24548422753892e+001,-5.87689912679025e+000

1.37370469830040e+005,-2.24554411840676e+001,-5.95848324788807e+000

1.39288090127379e+005,-2.24560561414712e+001,-6.04118826855014e+000

1.41232479406504e+005,-2.24566875580556e+001,-6.12502916010407e+000

1.43204011348474e+005,-2.24573358538281e+001,-6.21002107973673e+000

1.45203064850745e+005,-2.24580014585291e+001,-6.29617937244185e+000

1.47230024099979e+005,-2.24586848118140e+001,-6.38351957298543e+000

1.49285278645888e+005,-2.24593863634383e+001,-6.47205740789009e+000

1.51369223476094e+005,-2.24601065734442e+001,-6.56180879743911e+000

1.53482259092041e+005,-2.24608459123485e+001,-6.65278985770078e+000

1.55624791585964e+005,-2.24616048613331e+001,-6.74501690257315e+000

1.57797232718936e+005,-2.24623839124379e+001,-6.83850644585244e+000

1.59999999999999e+005,-2.24631835687542e+001,-6.93327520332393e+000

1.62233516766403e+005,-2.24640043446213e+001,-7.02934009487584e+000

1.64498212264969e+005,-2.24648467658252e+001,-7.12671824664121e+000

1.66794521734578e+005,-2.24657113697981e+001,-7.22542699316319e+000

1.69122886489819e+005,-2.24665987058217e+001,-7.32548387959043e+000

1.71483754005805e+005,-2.24675093352314e+001,-7.42690666390015e+000

1.73877578004168e+005,-2.24684438316235e+001,-7.52971331915170e+000

1.76304818540256e+005,-2.24694027810644e+001,-7.63392203577252e+000

1.78765942091554e+005,-2.24703867823024e+001,-7.73955122387602e+000

1.81261421647326e+005,-2.24713964469823e+001,-7.84661951561578e+000

1.83791736799524e+005,-2.24724323998621e+001,-7.95514576757447e+000

1.86357373834951e+005,-2.24734952790335e+001,-8.06514906319151e+000

1.88958825828723e+005,-2.24745857361448e+001,-8.17664871523025e+000

1.91596592739027e+005,-2.24757044366266e+001,-8.28966426828640e+000

1.94271181503206e+005,-2.24768520599228e+001,-8.40421550133872e+000

1.96983106135185e+005,-2.24780292997229e+001,-8.52032243034588e+000

1.99732887824256e+005,-2.24792368642002e+001,-8.63800531088829e+000

2.02521055035243e+005,-2.24804754762531e+001,-8.75728464085997e+000

2.05348143610063e+005,-2.24817458737515e+001,-8.87818116320928e+000

2.08214696870707e+005,-2.24830488097881e+001,-9.00071586873204e+000

2.11121265723661e+005,-2.24843850529348e+001,-9.12490999891902e+000

2.14068408765776e+005,-2.24857553875047e+001,-9.25078504885863e+000

2.17056692391625e+005,-2.24871606138208e+001,-9.37836277019642e+000

2.20086690902357e+005,-2.24886015484905e+001,-9.50766517415502e+000

2.23158986616063e+005,-2.24900790246878e+001,-9.63871453461327e+000

2.26274169979693e+005,-2.24915938924430e+001,-9.77153339124901e+000

2.29432839682530e+005,-2.24931470189405e+001,-9.90614455274425e+000

2.32635602771247e+005,-2.24947392888256e+001,-1.00425711000563e+001

2.35883074766574e+005,-2.24963716045205e+001,-1.01808363897552e+001

2.39175879781588e+005,-2.24980448865510e+001,-1.03209640574274e+001

2.42514650641661e+005,-2.24997600738835e+001,-1.04629780211494e+001

2.45900029006080e+005,-2.25015181242741e+001,-1.06069024850290e+001

2.49332665491357e+005,-2.25033200146299e+001,-1.07527619428163e+001

2.52813219796278e+005,-2.25051667413840e+001,-1.09005811815846e+001

2.56342360828676e+005,-2.25070593208842e+001,-1.10503852854804e+001

2.59920766833993e+005,-2.25089987897967e+001,-1.12021996395436e+001

2.63549125525621e+005,-2.25109862055272e+001,-1.13560499335953e+001

2.67228134217075e+005,-2.25130226466568e+001,-1.15119621661944e+001

2.70958499956006e+005,-2.25151092133983e+001,-1.16699626486594e+001

2.74740939660078e+005,-2.25172470280697e+001,-1.18300780091562e+001

2.78576180254757e+005,-2.25194372355889e+001,-1.19923351968472e+001

2.82464958813007e+005,-2.25216810039899e+001,-1.21567614861011e+001

2.86408022696948e+005,-2.25239795249602e+001,-1.23233844807593e+001

2.90406129701488e+005,-2.25263340144031e+001,-1.24922321184559e+001

2.94460048199957e+005,-2.25287457130235e+001,-1.26633326749864e+001

2.98570557291775e+005,-2.25312158869409e+001,-1.28367147687216e+001

3.02738446952187e+005,-2.25337458283276e+001,-1.30124073650612e+001

3.06964518184081e+005,-2.25363368560771e+001,-1.31904397809201e+001

3.11249583171928e+005,-2.25389903164999e+001,-1.33708416892433e+001

3.15594465437872e+005,-2.25417075840514e+001,-1.35536431235408e+001

3.19999999999997e+005,-2.25444900620906e+001,-1.37388744824350e+001

3.24467033532806e+005,-2.25473391836713e+001,-1.39265665342137e+001

3.28996424529938e+005,-2.25502564123678e+001,-1.41167504213774e+001

3.33589043469155e+005,-2.25532432431350e+001,-1.43094576651744e+001

3.38245772979638e+005,-2.25563012032044e+001,-1.45047201701107e+001

3.42967508011610e+005,-2.25594318530169e+001,-1.47025702284260e+001

3.47755156008335e+005,-2.25626367871937e+001,-1.49030405245222e+001

3.52609637080511e+005,-2.25659176355446e+001,-1.51061641393350e+001

3.57531884183106e+005,-2.25692760641169e+001,-1.53119745546327e+001

3.62522843294651e+005,-2.25727137762832e+001,-1.55205056572312e+001

3.67583473599047e+005,-2.25762325138701e+001,-1.57317917431104e+001

3.72714747669902e+005,-2.25798340583280e+001,-1.59458675214165e+001

3.77917651657445e+005,-2.25835202319418e+001,-1.61627681183368e+001

3.83193185478053e+005,-2.25872928990832e+001,-1.63825290808299e+001

3.88542363006410e+005,-2.25911539675057e+001,-1.66051863801962e+001

3.93966212270369e+005,-2.25951053896799e+001,-1.68307764154713e+001

3.99465775648511e+005,-2.25991491641715e+001,-1.70593360166254e+001

4.05042110070485e+005,-2.26032873370602e+001,-1.72909024475522e+001

4.10696287220124e+005,-2.26075220034000e+001,-1.75255134088295e+001

4.16429393741414e+005,-2.26118553087194e+001,-1.77632070402314e+001

4.22242531447321e+005,-2.26162894505619e+001,-1.80040219229783e+001

4.28136817531551e+005,-2.26208266800648e+001,-1.82479970817017e+001

4.34113384783250e+005,-2.26254693035769e+001,-1.84951719861097e+001

4.40173381804713e+005,-2.26302196843118e+001,-1.87455865523316e+001

4.46317973232124e+005,-2.26350802440371e+001,-1.89992811439247e+001

4.52548339959385e+005,-2.26400534647978e+001,-1.92562965725266e+001

4.58865679365059e+005,-2.26451418906714e+001,-1.95166740981318e+001

4.65271205542494e+005,-2.26503481295535e+001,-1.97804554289767e+001

4.71766149533147e+005,-2.26556748549721e+001,-2.00476827210163e+001

4.78351759563174e+005,-2.26611248079278e+001,-2.03183985769735e+001

4.85029301283321e+005,-2.26667007987582e+001,-2.05926460449456e+001

4.91800058012158e+005,-2.26724057090233e+001,-2.08704686165516e+001

4.98665330982714e+005,-2.26782424934105e+001,-2.11519102246038e+001

5.05626439592555e+005,-2.26842141816543e+001,-2.14370152402902e+001

5.12684721657352e+005,-2.26903238804707e+001,-2.17258284698516e+001

5.19841533667984e+005,-2.26965747755006e+001,-2.20183951507401e+001

5.27098251051240e+005,-2.27029701332597e+001,-2.23147609472473e+001

5.34456268434150e+005,-2.27095133030932e+001,-2.26149719455876e+001

5.41916999912011e+005,-2.27162077191291e+001,-2.29190746484274e+001

