Freq.,VOut,OutRef

1.00000000000000e+004,-1.29548137707372e+001,-9.09682739503385e-002

1.01395947979003e+004,-1.29548142420495e+001,-9.22380842810898e-002

1.02811382665607e+004,-1.29548147266023e+001,-9.35256179810578e-002

1.04246576084112e+004,-1.29548152247675e+001,-9.48311223501259e-002

1.05701804056138e+004,-1.29548157369268e+001,-9.61548481407540e-002

1.07177346253629e+004,-1.29548162634735e+001,-9.74970495944474e-002

1.08673486252606e+004,-1.29548168048111e+001,-9.88579845035252e-002

1.10190511587661e+004,-1.29548173613547e+001,-1.00237914249643e-001

1.11728713807222e+004,-1.29548179335312e+001,-1.01637103859818e-001

1.13288388529580e+004,-1.29548185217795e+001,-1.03055822052343e-001

1.14869835499703e+004,-1.29548191265500e+001,-1.04494341296671e-001

1.16473358646846e+004,-1.29548197483070e+001,-1.05952937851682e-001

1.18099266142953e+004,-1.29548203875267e+001,-1.07431891833735e-001

1.19747870461893e+004,-1.29548210446993e+001,-1.08931487258445e-001

1.21419488439505e+004,-1.29548217203284e+001,-1.10452012100421e-001

1.23114441334492e+004,-1.29548224149316e+001,-1.11993758348544e-001

1.24833054890161e+004,-1.29548231290416e+001,-1.13557022056840e-001

1.26575659397028e+004,-1.29548238632054e+001,-1.15142103408009e-001

1.28342589756290e+004,-1.29548246179853e+001,-1.16749306765050e-001

1.30134185544193e+004,-1.29548253939600e+001,-1.18378940730425e-001

1.31950791077289e+004,-1.29548261917234e+001,-1.20031318209251e-001

1.33792755478611e+004,-1.29548270118869e+001,-1.21706756461019e-001

1.35660432744767e+004,-1.29548278550785e+001,-1.23405577167608e-001

1.37554181813974e+004,-1.29548287219439e+001,-1.25128106490103e-001

1.39474366635040e+004,-1.29548296131470e+001,-1.26874675131592e-001

1.41421356237309e+004,-1.29548305293700e+001,-1.28645618403587e-001

1.43395524801583e+004,-1.29548314713145e+001,-1.30441276282220e-001

1.45397251732031e+004,-1.29548324397011e+001,-1.32261993484258e-001

1.47426921729110e+004,-1.29548334352714e+001,-1.34108119519155e-001

1.49484924863494e+004,-1.29548344587869e+001,-1.35980008768859e-001

1.51571656651040e+004,-1.29548355110311e+001,-1.37878020543634e-001

1.53687518128801e+004,-1.29548365928089e+001,-1.39802519159415e-001

1.55832915932100e+004,-1.29548377049476e+001,-1.41753874002084e-001

1.58008262372675e+004,-1.29548388482981e+001,-1.43732459597647e-001

1.60213975517924e+004,-1.29548400237345e+001,-1.45738655687625e-001

1.62450479271247e+004,-1.29548412321560e+001,-1.47772847293915e-001

1.64718203453514e+004,-1.29548424744858e+001,-1.49835424800369e-001

1.67017583885674e+004,-1.29548437516741e+001,-1.51926784019111e-001

1.69349062472505e+004,-1.29548450646966e+001,-1.54047326271787e-001

1.71713087287550e+004,-1.29548464145568e+001,-1.56197458460049e-001

1.74110112659224e+004,-1.29548478022861e+001,-1.58377593147359e-001

1.76540599258131e+004,-1.29548492289445e+001,-1.60588148635297e-001

1.79005014185594e+004,-1.29548506956214e+001,-1.62829549042981e-001

1.81503831063432e+004,-1.29548522034369e+001,-1.65102224386105e-001

1.84037530124975e+004,-1.29548537535421e+001,-1.67406610660232e-001

1.86606598307361e+004,-1.29548553471203e+001,-1.69743149921473e-001

1.89211529345119e+004,-1.29548569853874e+001,-1.72112290372915e-001

1.91852823865052e+004,-1.29548586695935e+001,-1.74514486445297e-001

1.94530989482457e+004,-1.29548604010234e+001,-1.76950198885315e-001

1.97246540898671e+004,-1.29548621809975e+001,-1.79419894843549e-001

1.99999999999999e+004,-1.29548640108731e+001,-1.81924047960275e-001

2.02791895958005e+004,-1.29548658920451e+001,-1.84463138454567e-001

2.05622765331213e+004,-1.29548678259472e+001,-1.87037653218506e-001

2.08493152168224e+004,-1.29548698140528e+001,-1.89648085904968e-001

2.11403608112276e+004,-1.29548718578765e+001,-1.92294937021913e-001

2.14354692507258e+004,-1.29548739589746e+001,-1.94978714028271e-001

2.17346972505211e+004,-1.29548761189471e+001,-1.97699931424680e-001

2.20381023175322e+004,-1.29548783394376e+001,-2.00459110857534e-001

2.23457427614443e+004,-1.29548806221361e+001,-2.03256781207834e-001

2.26576777059159e+004,-1.29548829687788e+001,-2.06093478699892e-001

2.29739670999406e+004,-1.29548853811504e+001,-2.08969746994833e-001

2.32946717293690e+004,-1.29548878610852e+001,-2.11886137294248e-001

2.36198532285905e+004,-1.29548904104675e+001,-2.14843208447580e-001

2.39495740923785e+004,-1.29548930312344e+001,-2.17841527051320e-001

2.42838976879009e+004,-1.29548957253765e+001,-2.20881667556885e-001

2.46228882668982e+004,-1.29548984949392e+001,-2.23964212378475e-001

2.49666109780322e+004,-1.29549013420248e+001,-2.27089752001641e-001

2.53151318794055e+004,-1.29549042687933e+001,-2.30258885094045e-001

2.56685179512580e+004,-1.29549072774645e+001,-2.33472218615895e-001

2.60268371088386e+004,-1.29549103703191e+001,-2.36730367935251e-001

2.63901582154578e+004,-1.29549135497014e+001,-2.40033956937363e-001

2.67585510957221e+004,-1.29549168180198e+001,-2.43383618148001e-001

2.71320865489533e+004,-1.29549201777491e+001,-2.46779992845815e-001

2.75108363627948e+004,-1.29549236314324e+001,-2.50223731182463e-001

2.78948733270080e+004,-1.29549271816824e+001,-2.53715492305689e-001

2.82842712474618e+004,-1.29549308311843e+001,-2.57255944475789e-001

2.86791049603164e+004,-1.29549345826964e+001,-2.60845765197732e-001

2.90794503464061e+004,-1.29549384390531e+001,-2.64485641336949e-001

2.94853843458219e+004,-1.29549424031665e+001,-2.68176269254884e-001

2.98969849726987e+004,-1.29549464780287e+001,-2.71918354931272e-001

3.03143313302078e+004,-1.29549506667135e+001,-2.75712614096516e-001

3.07375036257601e+004,-1.29549549723793e+001,-2.79559772364612e-001

3.11665831864199e+004,-1.29549593982706e+001,-2.83460565364534e-001

3.16016524745350e+004,-1.29549639477205e+001,-2.87415738877427e-001

3.20427951035848e+004,-1.29549686241536e+001,-2.91426048970706e-001

3.24900958542493e+004,-1.29549734310877e+001,-2.95492262138676e-001

3.29436406907028e+004,-1.29549783721365e+001,-2.99615155443436e-001

3.34035167771346e+004,-1.29549834510126e+001,-3.03795516652837e-001

3.38698124945009e+004,-1.29549886715290e+001,-3.08034144390022e-001

3.43426174575100e+004,-1.29549940376030e+001,-3.12331848273976e-001

3.48220225318448e+004,-1.29549995532581e+001,-3.16689449069332e-001

3.53081198516260e+004,-1.29550052226272e+001,-3.21107778834412e-001

3.58010028371187e+004,-1.29550110499551e+001,-3.25587681073512e-001

3.63007662126863e+004,-1.29550170396018e+001,-3.30130010887865e-001

3.68075060249948e+004,-1.29550231960453e+001,-3.34735635130706e-001

3.73213196614721e+004,-1.29550295238843e+001,-3.39405432566669e-001

3.78423058690237e+004,-1.29550360278423e+001,-3.44140294023671e-001

3.83705647730104e+004,-1.29550427127698e+001,-3.48941122560324e-001

3.89061978964912e+004,-1.29550495836482e+001,-3.53808833623110e-001

3.94493081797342e+004,-1.29550566455927e+001,-3.58744355212621e-001

3.99999999999998e+004,-1.29550639038564e+001,-3.63748628048138e-001

4.05583791916010e+004,-1.29550713638329e+001,-3.68822605738342e-001

4.11245530662425e+004,-1.29550790310607e+001,-3.73967254947622e-001

4.16986304336447e+004,-1.29550869112265e+001,-3.79183555570056e-001

4.22807216224550e+004,-1.29550950101688e+001,-3.84472500903832e-001

4.28709385014515e+004,-1.29551033338823e+001,-3.89835097824150e-001

4.34693945010421e+004,-1.29551118885211e+001,-3.95272366965135e-001

4.40762046350642e+004,-1.29551206804036e+001,-4.00785342895094e-001

4.46914855228886e+004,-1.29551297160152e+001,-4.06375074304126e-001

4.53153554118317e+004,-1.29551390020141e+001,-4.12042624182075e-001

4.59479341998812e+004,-1.29551485452343e+001,-4.17789070009428e-001

4.65893434587380e+004,-1.29551583526908e+001,-4.23615503940927e-001

4.72397064571810e+004,-1.29551684315833e+001,-4.29523033000498e-001

4.78991481847569e+004,-1.29551787893014e+001,-4.35512779269301e-001

4.85677953758016e+004,-1.29551894334288e+001,-4.41585880082717e-001

4.92457765337964e+004,-1.29552003717480e+001,-4.47743488225734e-001

4.99332219560642e+004,-1.29552116122457e+001,-4.53986772129805e-001

5.06302637588109e+004,-1.29552231631166e+001,-4.60316916077226e-001

5.13370359025159e+004,-1.29552350327694e+001,-4.66735120402112e-001

5.20536742176771e+004,-1.29552472298314e+001,-4.73242601691757e-001

5.27803164309155e+004,-1.29552597631539e+001,-4.79840592999242e-001

5.35171021914442e+004,-1.29552726418171e+001,-4.86530344049996e-001

5.42641730979066e+004,-1.29552858751357e+001,-4.93313121451507e-001

5.50216727255895e+004,-1.29552994726646e+001,-5.00190208909430e-001

5.57897466540159e+004,-1.29553134442040e+001,-5.07162907441025e-001

5.65685424949235e+004,-1.29553277998050e+001,-5.14232535593920e-001

5.73582099206328e+004,-1.29553425497760e+001,-5.21400429665061e-001

5.81589006928121e+004,-1.29553577046873e+001,-5.28667943924570e-001

5.89707686916437e+004,-1.29553732753786e+001,-5.36036450835625e-001

5.97939699453972e+004,-1.29553892729634e+001,-5.43507341286209e-001

6.06286626604156e+004,-1.29554057088363e+001,-5.51082024811500e-001

6.14750072515201e+004,-1.29554225946781e+001,-5.58761929829392e-001

6.23331663728396e+004,-1.29554399424630e+001,-5.66548503870816e-001

6.32033049490698e+004,-1.29554577644640e+001,-5.74443213813955e-001

6.40855902071694e+004,-1.29554760732604e+001,-5.82447546120723e-001

6.49801917084985e+004,-1.29554948817431e+001,-5.90563007077999e-001

6.58872813814055e+004,-1.29555142031216e+001,-5.98791123036732e-001

6.68070335542691e+004,-1.29555340509308e+001,-6.07133440655955e-001

6.77396249890018e+004,-1.29555544390375e+001,-6.15591527146116e-001

6.86852349150199e+004,-1.29555753816469e+001,-6.24166970519497e-001

6.96440450636895e+004,-1.29555968933095e+001,-6.32861379837168e-001

7.06162397032520e+004,-1.29556189889281e+001,-6.41676385459846e-001

7.16020056742374e+004,-1.29556416837643e+001,-6.50613639304640e-001

7.26015324253724e+004,-1.29556649934458e+001,-6.59674815096437e-001

7.36150120499896e+004,-1.29556889339727e+001,-6.68861608628647e-001

7.46426393229441e+004,-1.29557135217249e+001,-6.78175738021008e-001

7.56846117380472e+004,-1.29557387734690e+001,-6.87618943981696e-001

7.67411295460207e+004,-1.29557647063651e+001,-6.97192990070892e-001

7.78123957929823e+004,-1.29557913379738e+001,-7.06899662965252e-001

7.88986163594682e+004,-1.29558186862629e+001,-7.16740772727775e-001

7.99999999999995e+004,-1.29558467696147e+001,-7.26718153073890e-001

8.11167583832018e+004,-1.29558756068328e+001,-7.36833661645347e-001

8.22491061324848e+004,-1.29559052171484e+001,-7.47089180283195e-001

8.33972608672892e+004,-1.29559356202274e+001,-7.57486615302884e-001

8.45614432449099e+004,-1.29559668361775e+001,-7.68027897768980e-001

8.57418770029029e+004,-1.29559988855539e+001,-7.78714983778950e-001

8.69387890020841e+004,-1.29560317893666e+001,-7.89549854739086e-001

8.81524092701283e+004,-1.29560655690860e+001,-8.00534517651646e-001

8.93829710457770e+004,-1.29561002466501e+001,-8.11671005395587e-001

9.06307108236633e+004,-1.29561358444693e+001,-8.22961377016226e-001

9.18958683997622e+004,-1.29561723854337e+001,-8.34407718012422e-001

9.31786869174758e+004,-1.29562098929174e+001,-8.46012140627253e-001

9.44794129143618e+004,-1.29562483907854e+001,-8.57776784138389e-001

9.57982963695136e+004,-1.29562879033977e+001,-8.69703815155299e-001

9.71355907516031e+004,-1.29563284556148e+001,-8.81795427913376e-001

9.84915530675926e+004,-1.29563700728025e+001,-8.94053844571647e-001

9.98664439121282e+004,-1.29564127808361e+001,-9.06481315513182e-001

1.01260527517622e+005,-1.29564566061044e+001,-9.19080119647563e-001

1.02674071805032e+005,-1.29565015755141e+001,-9.31852564711860e-001

1.04107348435354e+005,-1.29565477164920e+001,-9.44800987580438e-001

1.05560632861831e+005,-1.29565950569887e+001,-9.57927754569498e-001

1.07034204382888e+005,-1.29566436254808e+001,-9.71235261748552e-001

1.08528346195813e+005,-1.29566934509731e+001,-9.84725935252063e-001

1.10043345451179e+005,-1.29567445629995e+001,-9.98402231593034e-001

1.11579493308032e+005,-1.29567969916244e+001,-1.01226663798153e+000

1.13137084989847e+005,-1.29568507674427e+001,-1.02632167264137e+000

1.14716419841265e+005,-1.29569059215797e+001,-1.04056988513273e+000

1.16317801385624e+005,-1.29569624856898e+001,-1.05501385667495e+000

1.17941537383287e+005,-1.29570204919549e+001,-1.06965620047519e+000

1.19587939890794e+005,-1.29570799730818e+001,-1.08449956205525e+000

1.21257325320831e+005,-1.29571409622995e+001,-1.09954661958445e+000

1.22950014503040e+005,-1.29572034933540e+001,-1.11480008421648e+000

1.24666332745679e+005,-1.29572676005041e+001,-1.13026270042601e+000

1.26406609898139e+005,-1.29573333185153e+001,-1.14593724635084e+000

1.28171180414339e+005,-1.29574006826526e+001,-1.16182653413797e+000

1.29960383416997e+005,-1.29574697286727e+001,-1.17793341029281e+000

1.31774562762811e+005,-1.29575404928149e+001,-1.19426075603118e+000

1.33614067108538e+005,-1.29576130117907e+001,-1.21081148763883e+000

1.35479249978003e+005,-1.29576873227724e+001,-1.22758855683215e+000

1.37370469830040e+005,-1.29577634633809e+001,-1.24459495112488e+000

1.39288090127379e+005,-1.29578414716709e+001,-1.26183369420089e+000

1.41232479406504e+005,-1.29579213861162e+001,-1.27930784629188e+000

1.43204011348474e+005,-1.29580032455924e+001,-1.29702050456032e+000

1.45203064850745e+005,-1.29580870893594e+001,-1.31497480348770e+000

1.47230024099979e+005,-1.29581729570407e+001,-1.33317391527458e+000

1.49285278645888e+005,-1.29582608886027e+001,-1.35162105023951e+000

1.51369223476094e+005,-1.29583509243313e+001,-1.37031945723311e+000

1.53482259092041e+005,-1.29584431048074e+001,-1.38927242405551e+000

1.55624791585964e+005,-1.29585374708803e+001,-1.40848327788498e+000

1.57797232718936e+005,-1.29586340636395e+001,-1.42795538571251e+000

1.59999999999999e+005,-1.29587329243842e+001,-1.44769215479230e+000

1.62233516766403e+005,-1.29588340945917e+001,-1.46769703309401e+000

1.64498212264969e+005,-1.29589376158829e+001,-1.48797350977452e+000

1.66794521734578e+005,-1.29590435299864e+001,-1.50852511565579e+000

1.69122886489819e+005,-1.29591518787002e+001,-1.52935542371671e+000

1.71483754005805e+005,-1.29592627038518e+001,-1.55046804960040e+000

1.73877578004168e+005,-1.29593760472551e+001,-1.57186665213275e+000

1.76304818540256e+005,-1.29594919506663e+001,-1.59355493385634e+000

1.78765942091554e+005,-1.29596104557371e+001,-1.61553664158205e+000

1.81261421647326e+005,-1.29597316039650e+001,-1.63781556695558e+000

1.83791736799524e+005,-1.29598554366426e+001,-1.66039554704226e+000

1.86357373834951e+005,-1.29599819948035e+001,-1.68328046493038e+000

1.88958825828723e+005,-1.29601113191662e+001,-1.70647425035597e+000

1.91596592739027e+005,-1.29602434500762e+001,-1.72998088034410e+000

1.94271181503206e+005,-1.29603784274449e+001,-1.75380437987730e+000

1.96983106135185e+005,-1.29605162906871e+001,-1.77794882258341e+000

1.99732887824256e+005,-1.29606570786551e+001,-1.80241833144934e+000

2.02521055035243e+005,-1.29608008295718e+001,-1.82721707955893e+000

2.05348143610063e+005,-1.29609475809606e+001,-1.85234929085937e+000

2.08214696870707e+005,-1.29610973695732e+001,-1.87781924095282e+000

2.11121265723661e+005,-1.29612502313158e+001,-1.90363125791992e+000

2.14068408765776e+005,-1.29614062011726e+001,-1.92978972317205e+000

2.17056692391625e+005,-1.29615653131277e+001,-1.95629907233507e+000

2.20086690902357e+005,-1.29617276000846e+001,-1.98316379616762e+000

2.23158986616063e+005,-1.29618930937845e+001,-2.01038844151186e+000

2.26274169979693e+005,-1.29620618247217e+001,-2.03797761228275e+000

2.29432839682530e+005,-1.29622338220593e+001,-2.06593597048982e+000

2.32635602771247e+005,-1.29624091135413e+001,-2.09426823730195e+000

2.35883074766574e+005,-1.29625877254047e+001,-2.12297919414859e+000

2.39175879781588e+005,-1.29627696822899e+001,-2.15207368386361e+000

2.42514650641661e+005,-1.29629550071504e+001,-2.18155661186956e+000

2.45900029006080e+005,-1.29631437211612e+001,-2.21143294740778e+000

2.49332665491357e+005,-1.29633358436272e+001,-2.24170772481001e+000

2.52813219796278e+005,-1.29635313918904e+001,-2.27238604481820e+000

2.56342360828676e+005,-1.29637303812377e+001,-2.30347307594918e+000

2.59920766833993e+005,-1.29639328248083e+001,-2.33497405590898e+000

2.63549125525621e+005,-1.29641387335015e+001,-2.36689429305390e+000

2.67228134217075e+005,-1.29643481158852e+001,-2.39923916790194e+000

2.70958499956006e+005,-1.29645609781051e+001,-2.43201413469495e+000

2.74740939660078e+005,-1.29647773237948e+001,-2.46522472301187e+000

2.78576180254757e+005,-1.29649971539887e+001,-2.49887653943198e+000

2.82464958813007e+005,-1.29652204670342e+001,-2.53297526925285e+000

2.86408022696948e+005,-1.29654472585090e+001,-2.56752667825771e+000

2.90406129701488e+005,-1.29656775211381e+001,-2.60253661453820e+000

2.94460048199957e+005,-1.29659112447156e+001,-2.63801101036828e+000

2.98570557291775e+005,-1.29661484160285e+001,-2.67395588413097e+000

3.02738446952187e+005,-1.29663890187842e+001,-2.71037734229882e+000

3.06964518184081e+005,-1.29666330335423e+001,-2.74728158146433e+000

3.11249583171928e+005,-1.29668804376500e+001,-2.78467489042418e+000

3.15594465437872e+005,-1.29671312051826e+001,-2.82256365231354e+000

3.19999999999997e+005,-1.29673853068882e+001,-2.86095434679056e+000

3.24467033532806e+005,-1.29676427101386e+001,-2.89985355226922e+000

3.28996424529938e+005,-1.29679033788852e+001,-2.93926794820228e+000

3.33589043469155e+005,-1.29681672736209e+001,-2.97920431740888e+000

3.38245772979638e+005,-1.29684343513483e+001,-3.01966954844799e+000

3.42967508011610e+005,-1.29687045655552e+001,-3.06067063803525e+000

3.47755156008335e+005,-1.29689778661956e+001,-3.10221469350147e+000

3.52609637080511e+005,-1.29692541996795e+001,-3.14430893529013e+000

3.57531884183106e+005,-1.29695335088692e+001,-3.18696069949317e+000

3.62522843294651e+005,-1.29698157330831e+001,-3.23017744042099e+000

3.67583473599047e+005,-1.29701008081088e+001,-3.27396673320506e+000

3.72714747669902e+005,-1.29703886662229e+001,-3.31833627643012e+000

3.77917651657445e+005,-1.29706792362197e+001,-3.36329389479499e+000

3.83193185478053e+005,-1.29709724434489e+001,-3.40884754179507e+000

3.88542363006410e+005,-1.29712682098606e+001,-3.45500530242894e+000

3.93966212270369e+005,-1.29715664540609e+001,-3.50177539592055e+000

3.99465775648511e+005,-1.29718670913737e+001,-3.54916617845882e+000

4.05042110070485e+005,-1.29721700339141e+001,-3.59718614594635e+000

4.10696287220124e+005,-1.29724751906681e+001,-3.64584393675992e+000

4.16429393741414e+005,-1.29727824675821e+001,-3.69514833451409e+000

4.22242531447321e+005,-1.29730917676610e+001,-3.74510827082745e+000

4.28136817531551e+005,-1.29734029910744e+001,-3.79573282808783e+000

4.34113384783250e+005,-1.29737160352708e+001,-3.84703124221419e+000

4.40173381804713e+005,-1.29740307951007e+001,-3.89901290540855e+000

4.46317973232124e+005,-1.29743471629464e+001,-3.95168736890013e+000

4.52548339959385e+005,-1.29746650288600e+001,-4.00506434567423e+000

4.58865679365059e+005,-1.29749842807083e+001,-4.05915371318449e+000

4.65271205542494e+005,-1.29753048043242e+001,-4.11396551604889e+000

4.71766149533147e+005,-1.29756264836653e+001,-4.16950996871969e+000

4.78351759563174e+005,-1.29759492009772e+001,-4.22579745813399e+000

4.85029301283321e+005,-1.29762728369632e+001,-4.28283854633425e+000

4.91800058012158e+005,-1.29765972709590e+001,-4.34064397306331e+000

4.98665330982714e+005,-1.29769223811107e+001,-4.39922465832933e+000

5.05626439592555e+005,-1.29772480445585e+001,-4.45859170493750e+000

5.12684721657352e+005,-1.29775741376219e+001,-4.51875640099254e+000

5.19841533667984e+005,-1.29779005359891e+001,-4.57973022236410e+000

5.27098251051240e+005,-1.29782271149073e+001,-4.64152483512165e+000

5.34456268434150e+005,-1.29785537493759e+001,-4.70415209793189e+000

5.41916999912011e+005,-1.29788803143392e+001,-4.76762406442463e+000

