Freq.,VOut,OutRef

1.00000000000000e+004,-2.47872717822470e+001,-3.24760740503862e-001

1.01395947979003e+004,-2.47872740166937e+001,-3.29294094973962e-001

1.02811382665607e+004,-2.47872763139391e+001,-3.33890726919634e-001

1.04246576084112e+004,-2.47872786757477e+001,-3.38551519414840e-001

1.05701804056138e+004,-2.47872811039334e+001,-3.43277367851353e-001

1.07177346253629e+004,-2.47872836003609e+001,-3.48069180109847e-001

1.08673486252606e+004,-2.47872861669477e+001,-3.52927876730927e-001

1.10190511587661e+004,-2.47872888056646e+001,-3.57854391096130e-001

1.11728713807222e+004,-2.47872915185379e+001,-3.62849669602870e-001

1.13288388529580e+004,-2.47872943076509e+001,-3.67914671847758e-001

1.14869835499703e+004,-2.47872971751455e+001,-3.73050370808106e-001

1.16473358646846e+004,-2.47873001232233e+001,-3.78257753031166e-001

1.18099266142953e+004,-2.47873031541478e+001,-3.83537818820947e-001

1.19747870461893e+004,-2.47873062702465e+001,-3.88891582428790e-001

1.21419488439505e+004,-2.47873094739116e+001,-3.94320072250400e-001

1.23114441334492e+004,-2.47873127676028e+001,-3.99824331019606e-001

1.24833054890161e+004,-2.47873161538488e+001,-4.05405416009399e-001

1.26575659397028e+004,-2.47873196352491e+001,-4.11064399235144e-001

1.28342589756290e+004,-2.47873232144762e+001,-4.16802367655843e-001

1.30134185544193e+004,-2.47873268942778e+001,-4.22620423386375e-001

1.31950791077289e+004,-2.47873306774783e+001,-4.28519683905993e-001

1.33792755478611e+004,-2.47873345669815e+001,-4.34501282272145e-001

1.35660432744767e+004,-2.47873385657730e+001,-4.40566367336448e-001

1.37554181813974e+004,-2.47873426769216e+001,-4.46716103966358e-001

1.39474366635040e+004,-2.47873469035825e+001,-4.52951673264980e-001

1.41421356237309e+004,-2.47873512489995e+001,-4.59274272798146e-001

1.43395524801583e+004,-2.47873557165068e+001,-4.65685116825651e-001

1.45397251732031e+004,-2.47873603095329e+001,-4.72185436526838e-001

1.47426921729110e+004,-2.47873650316018e+001,-4.78776480242384e-001

1.49484924863494e+004,-2.47873698863369e+001,-4.85459513707627e-001

1.51571656651040e+004,-2.47873748774625e+001,-4.92235820297945e-001

1.53687518128801e+004,-2.47873800088078e+001,-4.99106701271094e-001

1.55832915932100e+004,-2.47873852843093e+001,-5.06073476016837e-001

1.58008262372675e+004,-2.47873907080137e+001,-5.13137482308298e-001

1.60213975517924e+004,-2.47873962840811e+001,-5.20300076556087e-001

1.62450479271247e+004,-2.47874020167885e+001,-5.27562634069442e-001

1.64718203453514e+004,-2.47874079105325e+001,-5.34926549315031e-001

1.67017583885674e+004,-2.47874139698327e+001,-5.42393236186734e-001

1.69349062472505e+004,-2.47874201993359e+001,-5.49964128270607e-001

1.71713087287550e+004,-2.47874266038187e+001,-5.57640679123219e-001

1.74110112659224e+004,-2.47874331881914e+001,-5.65424362542763e-001

1.76540599258131e+004,-2.47874399575023e+001,-5.73316672854182e-001

1.79005014185594e+004,-2.47874469169407e+001,-5.81319125191694e-001

1.81503831063432e+004,-2.47874540718413e+001,-5.89433255787694e-001

1.84037530124975e+004,-2.47874614276883e+001,-5.97660622264596e-001

1.86606598307361e+004,-2.47874689901193e+001,-6.06002803931476e-001

1.89211529345119e+004,-2.47874767649300e+001,-6.14461402083817e-001

1.91852823865052e+004,-2.47874847580780e+001,-6.23038040310118e-001

1.94530989482457e+004,-2.47874929756879e+001,-6.31734364796583e-001

1.97246540898671e+004,-2.47875014240556e+001,-6.40552044643787e-001

1.99999999999999e+004,-2.47875101096531e+001,-6.49492772180789e-001

2.02791895958005e+004,-2.47875190391336e+001,-6.58558263288560e-001

2.05622765331213e+004,-2.47875282193365e+001,-6.67750257723605e-001

2.08493152168224e+004,-2.47875376572921e+001,-6.77070519451136e-001

2.11403608112276e+004,-2.47875473602279e+001,-6.86520836975242e-001

2.14354692507258e+004,-2.47875573355732e+001,-6.96103023681987e-001

2.17346972505211e+004,-2.47875675909648e+001,-7.05818918181889e-001

2.20381023175322e+004,-2.47875781342532e+001,-7.15670384656897e-001

2.23457427614443e+004,-2.47875889735085e+001,-7.25659313214827e-001

2.26576777059159e+004,-2.47876001170261e+001,-7.35787620246767e-001

2.29739670999406e+004,-2.47876115733331e+001,-7.46057248790766e-001

2.32946717293690e+004,-2.47876233511950e+001,-7.56470168896178e-001

2.36198532285905e+004,-2.47876354596221e+001,-7.67028378000428e-001

2.39495740923785e+004,-2.47876479078761e+001,-7.77733901303367e-001

2.42838976879009e+004,-2.47876607054775e+001,-7.88588792150543e-001

2.46228882668982e+004,-2.47876738622127e+001,-7.99595132421578e-001

2.49666109780322e+004,-2.47876873881409e+001,-8.10755032921752e-001

2.53151318794055e+004,-2.47877012936021e+001,-8.22070633782111e-001

2.56685179512580e+004,-2.47877155892249e+001,-8.33544104860682e-001

2.60268371088386e+004,-2.47877302859342e+001,-8.45177646152535e-001

2.63901582154578e+004,-2.47877453949596e+001,-8.56973488204114e-001

2.67585510957221e+004,-2.47877609278438e+001,-8.68933892531626e-001

2.71320865489533e+004,-2.47877768964511e+001,-8.81061152048978e-001

2.75108363627948e+004,-2.47877933129766e+001,-8.93357591496556e-001

2.78948733270080e+004,-2.47878101899549e+001,-9.05825567878125e-001

2.82842712474618e+004,-2.47878275402700e+001,-9.18467470904783e-001

2.86791049603164e+004,-2.47878453771645e+001,-9.31285723442006e-001

2.90794503464061e+004,-2.47878637142496e+001,-9.44282781964412e-001

2.94853843458219e+004,-2.47878825655153e+001,-9.57461137016020e-001

2.98969849726987e+004,-2.47879019453409e+001,-9.70823313675957e-001

3.03143313302078e+004,-2.47879218685054e+001,-9.84371872033114e-001

3.07375036257601e+004,-2.47879423501992e+001,-9.98109407661427e-001

3.11665831864199e+004,-2.47879634060345e+001,-1.01203855210750e+000

3.16016524745350e+004,-2.47879850520574e+001,-1.02616197338063e+000

3.20427951035848e+004,-2.47880073047600e+001,-1.04048237645033e+000

3.24900958542493e+004,-2.47880301810920e+001,-1.05500250375174e+000

3.29436406907028e+004,-2.47880536984739e+001,-1.06972513569513e+000

3.34035167771346e+004,-2.47880778748095e+001,-1.08465309118311e+000

3.38698124945009e+004,-2.47881027284992e+001,-1.09978922813619e+000

3.43426174575100e+004,-2.47881282784537e+001,-1.11513644402166e+000

3.48220225318448e+004,-2.47881545441079e+001,-1.13069767639208e+000

3.53081198516260e+004,-2.47881815454351e+001,-1.14647590343062e+000

3.58010028371187e+004,-2.47882093029618e+001,-1.16247414450121e+000

3.63007662126863e+004,-2.47882378377829e+001,-1.17869546070770e+000

3.68075060249948e+004,-2.47882671715768e+001,-1.19514295545986e+000

3.73213196614721e+004,-2.47882973266220e+001,-1.21181977504616e+000

3.78423058690237e+004,-2.47883283258124e+001,-1.22872910921422e+000

3.83705647730104e+004,-2.47883601926749e+001,-1.24587419175761e+000

3.89061978964912e+004,-2.47883929513862e+001,-1.26325830111168e+000

3.94493081797342e+004,-2.47884266267905e+001,-1.28088476095559e+000

3.99999999999998e+004,-2.47884612444175e+001,-1.29875694082358e+000

4.05583791916010e+004,-2.47884968305012e+001,-1.31687825672045e+000

4.11245530662425e+004,-2.47885334119983e+001,-1.33525217174927e+000

4.16986304336447e+004,-2.47885710166088e+001,-1.35388219674325e+000

4.22807216224550e+004,-2.47886096727948e+001,-1.37277189090743e+000

4.28709385014515e+004,-2.47886494098022e+001,-1.39192486246786e+000

4.34693945010421e+004,-2.47886902576807e+001,-1.41134476932852e+000

4.40762046350642e+004,-2.47887322473063e+001,-1.43103531973608e+000

4.46914855228886e+004,-2.47887754104029e+001,-1.45100027295438e+000

4.53153554118317e+004,-2.47888197795656e+001,-1.47124343994422e+000

4.59479341998812e+004,-2.47888653882831e+001,-1.49176868405537e+000

4.65893434587380e+004,-2.47889122709627e+001,-1.51257992172283e+000

4.72397064571810e+004,-2.47889604629538e+001,-1.53368112317477e+000

4.78991481847569e+004,-2.47890100005739e+001,-1.55507631314687e+000

4.85677953758016e+004,-2.47890609211335e+001,-1.57676957160740e+000

4.92457765337964e+004,-2.47891132629635e+001,-1.59876503448717e+000

4.99332219560642e+004,-2.47891670654412e+001,-1.62106689442364e+000

5.06302637588109e+004,-2.47892223690188e+001,-1.64367940150844e+000

5.13370359025159e+004,-2.47892792152515e+001,-1.66660686404693e+000

5.20536742176771e+004,-2.47893376468267e+001,-1.68985364932616e+000

5.27803164309155e+004,-2.47893977075936e+001,-1.71342418439122e+000

5.35171021914442e+004,-2.47894594425944e+001,-1.73732295683009e+000

5.42641730979066e+004,-2.47895228980948e+001,-1.76155451556987e+000

5.50216727255895e+004,-2.47895881216166e+001,-1.78612347167870e+000

5.57897466540159e+004,-2.47896551619705e+001,-1.81103449918093e+000

5.65685424949235e+004,-2.47897240692895e+001,-1.83629233587823e+000

5.73582099206328e+004,-2.47897948950636e+001,-1.86190178418039e+000

5.81589006928121e+004,-2.47898676921749e+001,-1.88786771194873e+000

5.89707686916437e+004,-2.47899425149337e+001,-1.91419505334477e+000

5.97939699453972e+004,-2.47900194191159e+001,-1.94088880969002e+000

6.06286626604156e+004,-2.47900984619998e+001,-1.96795405033680e+000

6.14750072515201e+004,-2.47901797024060e+001,-1.99539591354636e+000

6.23331663728396e+004,-2.47902632007362e+001,-2.02321960737746e+000

6.32033049490698e+004,-2.47903490190141e+001,-2.05143041058579e+000

6.40855902071694e+004,-2.47904372209265e+001,-2.08003367353071e+000

6.49801917084985e+004,-2.47905278718663e+001,-2.10903481909417e+000

6.58872813814055e+004,-2.47906210389751e+001,-2.13843934360749e+000

6.68070335542691e+004,-2.47907167911881e+001,-2.16825281779030e+000

6.77396249890018e+004,-2.47908151992793e+001,-2.19848088769609e+000

6.86852349150199e+004,-2.47909163359077e+001,-2.22912927567130e+000

6.96440450636895e+004,-2.47910202756646e+001,-2.26020378132160e+000

7.06162397032520e+004,-2.47911270951224e+001,-2.29171028248958e+000

7.16020056742374e+004,-2.47912368728835e+001,-2.32365473624160e+000

7.26015324253724e+004,-2.47913496896314e+001,-2.35604317986629e+000

7.36150120499896e+004,-2.47914656281816e+001,-2.38888173188092e+000

7.46426393229441e+004,-2.47915847735348e+001,-2.42217659304942e+000

7.56846117380472e+004,-2.47917072129307e+001,-2.45593404741103e+000

7.67411295460207e+004,-2.47918330359025e+001,-2.49016046331617e+000

7.78123957929823e+004,-2.47919623343333e+001,-2.52486229447712e+000

7.88986163594682e+004,-2.47920952025132e+001,-2.56004608102427e+000

7.99999999999995e+004,-2.47922317371977e+001,-2.59571845057627e+000

8.11167583832018e+004,-2.47923720376669e+001,-2.63188611931847e+000

8.22491061324848e+004,-2.47925162057867e+001,-2.66855589309158e+000

8.33972608672892e+004,-2.47926643460702e+001,-2.70573466849236e+000

8.45614432449099e+004,-2.47928165657410e+001,-2.74342943398223e+000

8.57418770029029e+004,-2.47929729747977e+001,-2.78164727100864e+000

8.69387890020841e+004,-2.47931336860789e+001,-2.82039535513605e+000

8.81524092701283e+004,-2.47932988153303e+001,-2.85968095718517e+000

8.93829710457770e+004,-2.47934684812725e+001,-2.89951144438686e+000

9.06307108236633e+004,-2.47936428056702e+001,-2.93989428154274e+000

9.18958683997622e+004,-2.47938219134029e+001,-2.98083703219823e+000

9.31786869174758e+004,-2.47940059325360e+001,-3.02234735982588e+000

9.44794129143618e+004,-2.47941949943941e+001,-3.06443302901895e+000

9.57982963695136e+004,-2.47943892336353e+001,-3.10710190669602e+000

9.71355907516031e+004,-2.47945887883261e+001,-3.15036196331583e+000

9.84915530675926e+004,-2.47947938000187e+001,-3.19422127410295e+000

9.98664439121282e+004,-2.47950044138282e+001,-3.23868802028515e+000

1.01260527517622e+005,-2.47952207785125e+001,-3.28377049034002e+000

1.02674071805032e+005,-2.47954430465521e+001,-3.32947708125422e+000

1.04107348435354e+005,-2.47956713742320e+001,-3.37581629979164e+000

1.05560632861831e+005,-2.47959059217245e+001,-3.42279676377590e+000

1.07034204382888e+005,-2.47961468531736e+001,-3.47042720337985e+000

1.08528346195813e+005,-2.47963943367796e+001,-3.51871646242982e+000

1.10043345451179e+005,-2.47966485448863e+001,-3.56767349972003e+000

1.11579493308032e+005,-2.47969096540685e+001,-3.61730739033839e+000

1.13137084989847e+005,-2.47971778452208e+001,-3.66762732700376e+000

1.14716419841265e+005,-2.47974533036478e+001,-3.71864262141563e+000

1.16317801385624e+005,-2.47977362191550e+001,-3.77036270561618e+000

1.17941537383287e+005,-2.47980267861420e+001,-3.82279713336312e+000

1.19587939890794e+005,-2.47983252036948e+001,-3.87595558151659e+000

1.21257325320831e+005,-2.47986316756818e+001,-3.92984785143761e+000

1.22950014503040e+005,-2.47989464108481e+001,-3.98448387039952e+000

1.24666332745679e+005,-2.47992696229135e+001,-4.03987369301347e+000

1.26406609898139e+005,-2.47996015306697e+001,-4.09602750266639e+000

1.28171180414339e+005,-2.47999423580791e+001,-4.15295561297345e+000

1.29960383416997e+005,-2.48002923343751e+001,-4.21066846924414e+000

1.31774562762811e+005,-2.48006516941628e+001,-4.26917664996280e+000

1.33614067108538e+005,-2.48010206775208e+001,-4.32849086828541e+000

1.35479249978003e+005,-2.48013995301044e+001,-4.38862197354980e+000

1.37370469830040e+005,-2.48017885032485e+001,-4.44958095280356e+000

1.39288090127379e+005,-2.48021878540735e+001,-4.51137893234675e+000

1.41232479406504e+005,-2.48025978455897e+001,-4.57402717929239e+000

1.43204011348474e+005,-2.48030187468048e+001,-4.63753710314506e+000

1.45203064850745e+005,-2.48034508328303e+001,-4.70192025739630e+000

1.47230024099979e+005,-2.48038943849905e+001,-4.76718834113949e+000

1.49285278645888e+005,-2.48043496909309e+001,-4.83335320070480e+000

1.51369223476094e+005,-2.48048170447286e+001,-4.90042683131328e+000

1.53482259092041e+005,-2.48052967470025e+001,-4.96842137875316e+000

1.55624791585964e+005,-2.48057891050251e+001,-5.03734914107758e+000

1.57797232718936e+005,-2.48062944328351e+001,-5.10722257032543e+000

1.59999999999999e+005,-2.48068130513502e+001,-5.17805427426526e+000

1.62233516766403e+005,-2.48073452884812e+001,-5.24985701816567e+000

1.64498212264969e+005,-2.48078914792473e+001,-5.32264372658980e+000

1.66794521734578e+005,-2.48084519658915e+001,-5.39642748521848e+000

1.69122886489819e+005,-2.48090270979978e+001,-5.47122154269980e+000

1.71483754005805e+005,-2.48096172326086e+001,-5.54703931253016e+000

1.73877578004168e+005,-2.48102227343437e+001,-5.62389437496429e+000

1.76304818540256e+005,-2.48108439755201e+001,-5.70180047895841e+000

1.78765942091554e+005,-2.48114813362733e+001,-5.78077154414598e+000

1.81261421647326e+005,-2.48121352046791e+001,-5.86082166284931e+000

1.83791736799524e+005,-2.48128059768777e+001,-5.94196510212676e+000

1.86357373834951e+005,-2.48134940571985e+001,-6.02421630585777e+000

1.88958825828723e+005,-2.48141998582872e+001,-6.10758989686837e+000

1.91596592739027e+005,-2.48149238012337e+001,-6.19210067909655e+000

1.94271181503206e+005,-2.48156663157026e+001,-6.27776363980084e+000

1.96983106135185e+005,-2.48164278400658e+001,-6.36459395181420e+000

1.99732887824256e+005,-2.48172088215367e+001,-6.45260697584299e+000

2.02521055035243e+005,-2.48180097163074e+001,-6.54181826281415e+000

2.05348143610063e+005,-2.48188309896885e+001,-6.63224355627279e+000

2.08214696870707e+005,-2.48196731162518e+001,-6.72389879483080e+000

2.11121265723661e+005,-2.48205365799762e+001,-6.81680011466872e+000

2.14068408765776e+005,-2.48214218743972e+001,-6.91096385209377e+000

2.17056692391625e+005,-2.48223295027602e+001,-7.00640654615315e+000

2.20086690902357e+005,-2.48232599781782e+001,-7.10314494130777e+000

2.23158986616063e+005,-2.48242138237938e+001,-7.20119599016588e+000

2.26274169979693e+005,-2.48251915729465e+001,-7.30057685627849e+000

2.29432839682530e+005,-2.48261937693453e+001,-7.40130491699952e+000

2.32635602771247e+005,-2.48272209672474e+001,-7.50339776641062e+000

2.35883074766574e+005,-2.48282737316428e+001,-7.60687321831406e+000

2.39175879781588e+005,-2.48293526384468e+001,-7.71174930929281e+000

2.42514650641661e+005,-2.48304582746988e+001,-7.81804430184198e+000

2.45900029006080e+005,-2.48315912387705e+001,-7.92577668756966e+000

2.49332665491357e+005,-2.48327521405815e+001,-8.03496519047108e+000

2.52813219796278e+005,-2.48339416018256e+001,-8.14562877027542e+000

2.56342360828676e+005,-2.48351602562057e+001,-8.25778662586615e+000

2.59920766833993e+005,-2.48364087496809e+001,-8.37145819877641e+000

2.63549125525621e+005,-2.48376877407242e+001,-8.48666317675839e+000

2.67228134217075e+005,-2.48389979005928e+001,-8.60342149742800e+000

2.70958499956006e+005,-2.48403399136113e+001,-8.72175335198446e+000

2.74740939660078e+005,-2.48417144774692e+001,-8.84167918900388e+000

2.78576180254757e+005,-2.48431223035326e+001,-8.96321971830759e+000

2.82464958813007e+005,-2.48445641171723e+001,-9.08639591490165e+000

2.86408022696948e+005,-2.48460406581073e+001,-9.21122902299015e+000

2.90406129701488e+005,-2.48475526807673e+001,-9.33774056005657e+000

2.94460048199957e+005,-2.48491009546724e+001,-9.46595232101441e+000

2.98570557291775e+005,-2.48506862648322e+001,-9.59588638242375e+000

3.02738446952187e+005,-2.48523094121661e+001,-9.72756510677002e+000

3.06964518184081e+005,-2.48539712139440e+001,-9.86101114680333e+000

3.11249583171928e+005,-2.48556725042497e+001,-9.99624744993488e+000

3.15594465437872e+005,-2.48574141344669e+001,-1.01332972626851e+001

3.19999999999997e+005,-2.48591969737909e+001,-1.02721841351804e+001

3.24467033532806e+005,-2.48610219097633e+001,-1.04129319256931e+001

3.28996424529938e+005,-2.48628898488349e+001,-1.05555648052212e+001

3.33589043469155e+005,-2.48648017169540e+001,-1.07001072620975e+001

3.38245772979638e+005,-2.48667584601840e+001,-1.08465841066281e+001

3.42967508011610e+005,-2.48687610453489e+001,-1.09950204757493e+001

3.47755156008335e+005,-2.48708104607087e+001,-1.11454418376963e+001

3.52609637080511e+005,-2.48729077166661e+001,-1.12978739966789e+001

3.57531884183106e+005,-2.48750538465033e+001,-1.14523430975525e+001

3.62522843294651e+005,-2.48772499071519e+001,-1.16088756304779e+001

3.67583473599047e+005,-2.48794969799951e+001,-1.17674984355625e+001

3.72714747669902e+005,-2.48817961717033e+001,-1.19282387074688e+001

3.77917651657445e+005,-2.48841486151037e+001,-1.20911239999872e+001

3.83193185478053e+005,-2.48865554700843e+001,-1.22561822305564e+001

3.88542363006410e+005,-2.48890179245333e+001,-1.24234416847259e+001

3.93966212270369e+005,-2.48915371953129e+001,-1.25929310205474e+001

3.99465775648511e+005,-2.48941145292696e+001,-1.27646792728840e+001

4.05042110070485e+005,-2.48967512042793e+001,-1.29387158576276e+001

4.10696287220124e+005,-2.48994485303296e+001,-1.31150705758108e+001

4.16429393741414e+005,-2.49022078506367e+001,-1.32937736176030e+001

4.22242531447321e+005,-2.49050305427990e+001,-1.34748555661775e+001

4.28136817531551e+005,-2.49079180199862e+001,-1.36583474014394e+001

4.34113384783250e+005,-2.49108717321642e+001,-1.38442805035995e+001

4.40173381804713e+005,-2.49138931673548e+001,-1.40326866565835e+001

4.46317973232124e+005,-2.49169838529302e+001,-1.42235980512651e+001

4.52548339959385e+005,-2.49201453569424e+001,-1.44170472885075e+001

4.58865679365059e+005,-2.49233792894851e+001,-1.46130673820049e+001

4.65271205542494e+005,-2.49266873040898e+001,-1.48116917609085e+001

4.71766149533147e+005,-2.49300710991527e+001,-1.50129542722276e+001

4.78351759563174e+005,-2.49335324193944e+001,-1.52168891829911e+001

4.85029301283321e+005,-2.49370730573482e+001,-1.54235311821613e+001

4.91800058012158e+005,-2.49406948548790e+001,-1.56329153822848e+001

4.98665330982714e+005,-2.49443997047293e+001,-1.58450773208714e+001

5.05626439592555e+005,-2.49481895520923e+001,-1.60600529614900e+001

5.12684721657352e+005,-2.49520663962109e+001,-1.62778786945697e+001

5.19841533667984e+005,-2.49560322920003e+001,-1.64985913378978e+001

5.27098251051240e+005,-2.49600893516935e+001,-1.67222281368019e+001

5.34456268434150e+005,-2.49642397465078e+001,-1.69488267640087e+001

5.41916999912011e+005,-2.49684857083312e+001,-1.71784253191707e+001

