Freq.,VOut,OutRef

1.00000000000000e+004,-1.59036106481117e+001,-6.86384316537145e-002

1.01395947979003e+004,-1.59036116551403e+001,-6.95964633031800e-002

1.02811382665607e+004,-1.59036126904597e+001,-7.05678632632309e-002

1.04246576084112e+004,-1.59036137548640e+001,-7.15528179248018e-002

1.05701804056138e+004,-1.59036148491695e+001,-7.25515162687167e-002

1.07177346253629e+004,-1.59036159742157e+001,-7.35641499054266e-002

1.08673486252606e+004,-1.59036171308655e+001,-7.45909131075618e-002

1.10190511587661e+004,-1.59036183200057e+001,-7.56320028515202e-002

1.11728713807222e+004,-1.59036195425483e+001,-7.66876188513573e-002

1.13288388529580e+004,-1.59036207994307e+001,-7.77579635961029e-002

1.14869835499703e+004,-1.59036220916166e+001,-7.88432423905008e-002

1.16473358646846e+004,-1.59036234200966e+001,-7.99436633911363e-002

1.18099266142953e+004,-1.59036247858893e+001,-8.10594376484541e-002

1.19747870461893e+004,-1.59036261900417e+001,-8.21907791434884e-002

1.21419488439505e+004,-1.59036276336296e+001,-8.33379048331527e-002

1.23114441334492e+004,-1.59036291177599e+001,-8.45010346836128e-002

1.24833054890161e+004,-1.59036306435699e+001,-8.56803917174290e-002

1.26575659397028e+004,-1.59036322122286e+001,-8.68762020566455e-002

1.28342589756290e+004,-1.59036338249379e+001,-8.80886949601991e-002

1.30134185544193e+004,-1.59036354829336e+001,-8.93181028692057e-002

1.31950791077289e+004,-1.59036371874858e+001,-9.05646614523092e-002

1.33792755478611e+004,-1.59036389399000e+001,-9.18286096484468e-002

1.35660432744767e+004,-1.59036407415187e+001,-9.31101897109237e-002

1.37554181813974e+004,-1.59036425937213e+001,-9.44096472550855e-002

1.39474366635040e+004,-1.59036444979263e+001,-9.57272313024363e-002

1.41421356237309e+004,-1.59036464555917e+001,-9.70631943271423e-002

1.43395524801583e+004,-1.59036484682162e+001,-9.84177923059984e-002

1.45397251732031e+004,-1.59036505373408e+001,-9.97912847593994e-002

1.47426921729110e+004,-1.59036526645487e+001,-1.01183934812490e-001

1.49484924863494e+004,-1.59036548514682e+001,-1.02596009230034e-001

1.51571656651040e+004,-1.59036570997724e+001,-1.04027778476819e-001

1.53687518128801e+004,-1.59036594111819e+001,-1.05479516758814e-001

1.55832915932100e+004,-1.59036617874649e+001,-1.06951502083980e-001

1.58008262372675e+004,-1.59036642304388e+001,-1.08444016308419e-001

1.60213975517924e+004,-1.59036667419720e+001,-1.09957345189043e-001

1.62450479271247e+004,-1.59036693239852e+001,-1.11491778436110e-001

1.64718203453514e+004,-1.59036719784524e+001,-1.13047609770194e-001

1.67017583885674e+004,-1.59036747074030e+001,-1.14625136971589e-001

1.69349062472505e+004,-1.59036775129224e+001,-1.16224661943713e-001

1.71713087287550e+004,-1.59036803971549e+001,-1.17846490757762e-001

1.74110112659224e+004,-1.59036833623040e+001,-1.19490933719635e-001

1.76540599258131e+004,-1.59036864106354e+001,-1.21158305417036e-001

1.79005014185594e+004,-1.59036895444770e+001,-1.22848924790245e-001

1.81503831063432e+004,-1.59036927662220e+001,-1.24563115179290e-001

1.84037530124975e+004,-1.59036960783304e+001,-1.26301204387902e-001

1.86606598307361e+004,-1.59036994833308e+001,-1.28063524743805e-001

1.89211529345119e+004,-1.59037029838216e+001,-1.29850413161234e-001

1.91852823865052e+004,-1.59037065824742e+001,-1.31662211198678e-001

1.94530989482457e+004,-1.59037102820339e+001,-1.33499265124127e-001

1.97246540898671e+004,-1.59037140853226e+001,-1.35361925979130e-001

1.99999999999999e+004,-1.59037179952405e+001,-1.37250549639997e-001

2.02791895958005e+004,-1.59037220147686e+001,-1.39165496883974e-001

2.05622765331213e+004,-1.59037261469707e+001,-1.41107133455692e-001

2.08493152168224e+004,-1.59037303949956e+001,-1.43075830131537e-001

2.11403608112276e+004,-1.59037347620798e+001,-1.45071962789912e-001

2.14354692507258e+004,-1.59037392515494e+001,-1.47095912475994e-001

2.17346972505211e+004,-1.59037438668230e+001,-1.49148065472046e-001

2.20381023175322e+004,-1.59037486114141e+001,-1.51228813367511e-001

2.23457427614443e+004,-1.59037534889333e+001,-1.53338553129846e-001

2.26576777059159e+004,-1.59037585030917e+001,-1.55477687172955e-001

2.29739670999406e+004,-1.59037636577031e+001,-1.57646623432485e-001

2.32946717293690e+004,-1.59037689566868e+001,-1.59845775438807e-001

2.36198532285905e+004,-1.59037744040709e+001,-1.62075562387592e-001

2.39495740923785e+004,-1.59037800039948e+001,-1.64336409218074e-001

2.42838976879009e+004,-1.59037857607125e+001,-1.66628746687230e-001

2.46228882668982e+004,-1.59037916785956e+001,-1.68953011445649e-001

2.49666109780322e+004,-1.59037977621365e+001,-1.71309646116425e-001

2.53151318794055e+004,-1.59038040159516e+001,-1.73699099371840e-001

2.56685179512580e+004,-1.59038104447854e+001,-1.76121826010473e-001

2.60268371088386e+004,-1.59038170535126e+001,-1.78578287043481e-001

2.63901582154578e+004,-1.59038238471426e+001,-1.81068949769173e-001

2.67585510957221e+004,-1.59038308308229e+001,-1.83594287858217e-001

2.71320865489533e+004,-1.59038380098429e+001,-1.86154781433843e-001

2.75108363627948e+004,-1.59038453896379e+001,-1.88750917155398e-001

2.78948733270080e+004,-1.59038529757926e+001,-1.91383188305521e-001

2.82842712474618e+004,-1.59038607740449e+001,-1.94052094873702e-001

2.86791049603164e+004,-1.59038687902910e+001,-1.96758143642377e-001

2.90794503464061e+004,-1.59038770305889e+001,-1.99501848271701e-001

2.94853843458219e+004,-1.59038855011628e+001,-2.02283729393346e-001

2.98969849726987e+004,-1.59038942084079e+001,-2.05104314690930e-001

3.03143313302078e+004,-1.59039031588943e+001,-2.07964138999712e-001

3.07375036257601e+004,-1.59039123593725e+001,-2.10863744388321e-001

3.11665831864199e+004,-1.59039218167777e+001,-2.13803680255405e-001

3.16016524745350e+004,-1.59039315382348e+001,-2.16784503419922e-001

3.20427951035848e+004,-1.59039415310633e+001,-2.19806778215061e-001

3.24900958542493e+004,-1.59039518027829e+001,-2.22871076582244e-001

3.29436406907028e+004,-1.59039623611181e+001,-2.25977978168114e-001

3.34035167771346e+004,-1.59039732140043e+001,-2.29128070415856e-001

3.38698124945009e+004,-1.59039843695932e+001,-2.32321948665471e-001

3.43426174575100e+004,-1.59039958362579e+001,-2.35560216251642e-001

3.48220225318448e+004,-1.59040076225995e+001,-2.38843484601269e-001

3.53081198516260e+004,-1.59040197374527e+001,-2.42172373330897e-001

3.58010028371187e+004,-1.59040321898922e+001,-2.45547510349058e-001

3.63007662126863e+004,-1.59040449892380e+001,-2.48969531959561e-001

3.68075060249948e+004,-1.59040581450635e+001,-2.52439082956438e-001

3.73213196614721e+004,-1.59040716672002e+001,-2.55956816733141e-001

3.78423058690237e+004,-1.59040855657458e+001,-2.59523395382851e-001

3.83705647730104e+004,-1.59040998510705e+001,-2.63139489803636e-001

3.89061978964912e+004,-1.59041145338238e+001,-2.66805779801799e-001

3.94493081797342e+004,-1.59041296249424e+001,-2.70522954199587e-001

3.99999999999998e+004,-1.59041451356568e+001,-2.74291710939816e-001

4.05583791916010e+004,-1.59041610774994e+001,-2.78112757193939e-001

4.11245530662425e+004,-1.59041774623118e+001,-2.81986809469343e-001

4.16986304336447e+004,-1.59041943022528e+001,-2.85914593718491e-001

4.22807216224550e+004,-1.59042116098065e+001,-2.89896845446771e-001

4.28709385014515e+004,-1.59042293977907e+001,-2.93934309823549e-001

4.34693945010421e+004,-1.59042476793647e+001,-2.98027741790589e-001

4.40762046350642e+004,-1.59042664680385e+001,-3.02177906175070e-001

4.46914855228886e+004,-1.59042857776813e+001,-3.06385577799722e-001

4.53153554118317e+004,-1.59043056225305e+001,-3.10651541594216e-001

4.59479341998812e+004,-1.59043260172007e+001,-3.14976592709255e-001

4.65893434587380e+004,-1.59043469766934e+001,-3.19361536627594e-001

4.72397064571810e+004,-1.59043685164057e+001,-3.23807189279233e-001

4.78991481847569e+004,-1.59043906521416e+001,-3.28314377149821e-001

4.85677953758016e+004,-1.59044134001200e+001,-3.32883937403771e-001

4.92457765337964e+004,-1.59044367769861e+001,-3.37516717989181e-001

4.99332219560642e+004,-1.59044607998213e+001,-3.42213577758961e-001

5.06302637588109e+004,-1.59044854861540e+001,-3.46975386579441e-001

5.13370359025159e+004,-1.59045108539696e+001,-3.51803025451572e-001

5.20536742176771e+004,-1.59045369217220e+001,-3.56697386621618e-001

5.27803164309155e+004,-1.59045637083450e+001,-3.61659373696266e-001

5.35171021914442e+004,-1.59045912332625e+001,-3.66689901760133e-001

5.42641730979066e+004,-1.59046195164011e+001,-3.71789897488431e-001

5.50216727255895e+004,-1.59046485782015e+001,-3.76960299262059e-001

5.57897466540159e+004,-1.59046784396301e+001,-3.82202057283063e-001

5.65685424949235e+004,-1.59047091221915e+001,-3.87516133687556e-001

5.73582099206328e+004,-1.59047406479403e+001,-3.92903502662879e-001

5.81589006928121e+004,-1.59047730394945e+001,-3.98365150557414e-001

5.89707686916437e+004,-1.59048063200471e+001,-4.03902075996595e-001

5.97939699453972e+004,-1.59048405133798e+001,-4.09515289994633e-001

6.06286626604156e+004,-1.59048756438755e+001,-4.15205816067728e-001

6.14750072515201e+004,-1.59049117365323e+001,-4.20974690343700e-001

6.23331663728396e+004,-1.59049488169761e+001,-4.26822961674617e-001

6.32033049490698e+004,-1.59049869114746e+001,-4.32751691745748e-001

6.40855902071694e+004,-1.59050260469510e+001,-4.38761955186182e-001

6.49801917084985e+004,-1.59050662509980e+001,-4.44854839674545e-001

6.58872813814055e+004,-1.59051075518920e+001,-4.51031446047695e-001

6.68070335542691e+004,-1.59051499786067e+001,-4.57292888407032e-001

6.77396249890018e+004,-1.59051935608284e+001,-4.63640294220085e-001

6.86852349150199e+004,-1.59052383289698e+001,-4.70074804428778e-001

6.96440450636895e+004,-1.59052843141849e+001,-4.76597573544793e-001

7.06162397032520e+004,-1.59053315483836e+001,-4.83209769756411e-001

7.16020056742374e+004,-1.59053800642467e+001,-4.89912575021259e-001

7.26015324253724e+004,-1.59054298952405e+001,-4.96707185166729e-001

7.36150120499896e+004,-1.59054810756322e+001,-5.03594809983620e-001

7.46426393229441e+004,-1.59055336405043e+001,-5.10576673318382e-001

7.56846117380472e+004,-1.59055876257705e+001,-5.17654013164583e-001

7.67411295460207e+004,-1.59056430681901e+001,-5.24828081751124e-001

7.78123957929823e+004,-1.59057000053832e+001,-5.32100145628182e-001

7.88986163594682e+004,-1.59057584758460e+001,-5.39471485752096e-001

7.99999999999995e+004,-1.59058185189659e+001,-5.46943397563984e-001

8.11167583832018e+004,-1.59058801750360e+001,-5.54517191071167e-001

8.22491061324848e+004,-1.59059434852704e+001,-5.62194190920207e-001

8.33972608672892e+004,-1.59060084918188e+001,-5.69975736471445e-001

8.45614432449099e+004,-1.59060752377811e+001,-5.77863181867696e-001

8.57418770029029e+004,-1.59061437672219e+001,-5.85857896101010e-001

8.69387890020841e+004,-1.59062141251850e+001,-5.93961263075020e-001

8.81524092701283e+004,-1.59062863577069e+001,-6.02174681666803e-001

8.93829710457770e+004,-1.59063605118310e+001,-6.10499565781156e-001

9.06307108236633e+004,-1.59064366356208e+001,-6.18937344404302e-001

9.18958683997622e+004,-1.59065147781734e+001,-6.27489461651185e-001

9.31786869174758e+004,-1.59065949896315e+001,-6.36157376814169e-001

9.44794129143618e+004,-1.59066773211962e+001,-6.44942564400641e-001

9.57982963695136e+004,-1.59067618251391e+001,-6.53846514170627e-001

9.71355907516031e+004,-1.59068485548129e+001,-6.62870731172076e-001

9.84915530675926e+004,-1.59069375646624e+001,-6.72016735767871e-001

9.98664439121282e+004,-1.59070289102349e+001,-6.81286063659992e-001

1.01260527517622e+005,-1.59071226481891e+001,-6.90680265911638e-001

1.02674071805032e+005,-1.59072188363044e+001,-7.00200908959522e-001

1.04107348435354e+005,-1.59073175334880e+001,-7.09849574630503e-001

1.05560632861831e+005,-1.59074187997827e+001,-7.19627860142470e-001

1.07034204382888e+005,-1.59075226963725e+001,-7.29537378110539e-001

1.08528346195813e+005,-1.59076292855878e+001,-7.39579756544312e-001

1.10043345451179e+005,-1.59077386309097e+001,-7.49756638839117e-001

1.11579493308032e+005,-1.59078507969723e+001,-7.60069683766212e-001

1.13137084989847e+005,-1.59079658495650e+001,-7.70520565457194e-001

1.14716419841265e+005,-1.59080838556326e+001,-7.81110973382709e-001

1.16317801385624e+005,-1.59082048832741e+001,-7.91842612328957e-001

1.17941537383287e+005,-1.59083290017405e+001,-8.02717202367034e-001

1.19587939890794e+005,-1.59084562814308e+001,-8.13736478821289e-001

1.21257325320831e+005,-1.59085867938858e+001,-8.24902192232933e-001

1.22950014503040e+005,-1.59087206117815e+001,-8.36216108316316e-001

1.24666332745679e+005,-1.59088578089190e+001,-8.47680007917355e-001

1.26406609898139e+005,-1.59089984602138e+001,-8.59295686963974e-001

1.28171180414339e+005,-1.59091426416827e+001,-8.71064956414075e-001

1.29960383416997e+005,-1.59092904304276e+001,-8.82989642204656e-001

1.31774562762811e+005,-1.59094419046186e+001,-8.95071585191987e-001

1.33614067108538e+005,-1.59095971434739e+001,-9.07312641094215e-001

1.35479249978003e+005,-1.59097562272370e+001,-9.19714680431009e-001

1.37370469830040e+005,-1.59099192371517e+001,-9.32279588462642e-001

1.39288090127379e+005,-1.59100862554346e+001,-9.45009265124094e-001

1.41232479406504e+005,-1.59102573652443e+001,-9.57905624967326e-001

1.43204011348474e+005,-1.59104326506477e+001,-9.70970597094645e-001

1.45203064850745e+005,-1.59106121965838e+001,-9.84206125099037e-001

1.47230024099979e+005,-1.59107960888236e+001,-9.97614167004645e-001

1.49285278645888e+005,-1.59109844139272e+001,-1.01119669520861e+000

1.51369223476094e+005,-1.59111772591977e+001,-1.02495569642783e+000

1.53482259092041e+005,-1.59113747126303e+001,-1.03889317164846e+000

1.55624791585964e+005,-1.59115768628600e+001,-1.05301113608158e+000

1.57797232718936e+005,-1.59117837991028e+001,-1.06731161912511e+000

1.59999999999999e+005,-1.59119956110957e+001,-1.08179666433137e+000

1.62233516766403e+005,-1.59122123890308e+001,-1.09646832938496e+000

1.64498212264969e+005,-1.59124342234862e+001,-1.11132868608835e+000

1.66794521734578e+005,-1.59126612053527e+001,-1.12637982035932e+000

1.69122886489819e+005,-1.59128934257558e+001,-1.14162383224056e+000

1.71483754005805e+005,-1.59131309759738e+001,-1.15706283592396e+000

1.73877578004168e+005,-1.59133739473513e+001,-1.17269895978573e+000

1.76304818540256e+005,-1.59136224312078e+001,-1.18853434644423e+000

1.78765942091554e+005,-1.59138765187425e+001,-1.20457115283203e+000

1.81261421647326e+005,-1.59141363009338e+001,-1.22081155028820e+000

1.83791736799524e+005,-1.59144018684341e+001,-1.23725772467562e+000

1.86357373834951e+005,-1.59146733114604e+001,-1.25391187651826e+000

1.88958825828723e+005,-1.59149507196797e+001,-1.27077622116545e+000

1.91596592739027e+005,-1.59152341820895e+001,-1.28785298898571e+000

1.94271181503206e+005,-1.59155237868940e+001,-1.30514442558830e+000

1.96983106135185e+005,-1.59158196213754e+001,-1.32265279207581e+000

1.99732887824256e+005,-1.59161217717600e+001,-1.34038036533504e+000

2.02521055035243e+005,-1.59164303230805e+001,-1.35832943835885e+000

2.05348143610063e+005,-1.59167453590325e+001,-1.37650232061258e+000

2.08214696870707e+005,-1.59170669618281e+001,-1.39490133843560e+000

2.11121265723661e+005,-1.59173952120437e+001,-1.41352883549133e+000

2.14068408765776e+005,-1.59177301884638e+001,-1.43238717326114e+000

2.17056692391625e+005,-1.59180719679216e+001,-1.45147873158564e+000

2.20086690902357e+005,-1.59184206251343e+001,-1.47080590925924e+000

2.23158986616063e+005,-1.59187762325356e+001,-1.49037112467714e+000

2.26274169979693e+005,-1.59191388601049e+001,-1.51017681653702e+000

2.29432839682530e+005,-1.59195085751919e+001,-1.53022544460144e+000

2.32635602771247e+005,-1.59198854423399e+001,-1.55051949051900e+000

2.35883074766574e+005,-1.59202695231054e+001,-1.57106145871076e+000

2.39175879781588e+005,-1.59206608758755e+001,-1.59185387732087e+000

2.42514650641661e+005,-1.59210595556838e+001,-1.61289929923523e+000

2.45900029006080e+005,-1.59214656140244e+001,-1.63420030317155e+000

2.49332665491357e+005,-1.59218790986648e+001,-1.65575949484149e+000

2.52813219796278e+005,-1.59223000534580e+001,-1.67757950818721e+000

2.56342360828676e+005,-1.59227285181550e+001,-1.69966300669289e+000

2.59920766833993e+005,-1.59231645282170e+001,-1.72201268477711e+000

2.63549125525621e+005,-1.59236081146287e+001,-1.74463126926359e+000

2.67228134217075e+005,-1.59240593037133e+001,-1.76752152093295e+000

2.70958499956006e+005,-1.59245181169487e+001,-1.79068623615918e+000

2.74740939660078e+005,-1.59249845707879e+001,-1.81412824862686e+000

2.78576180254757e+005,-1.59254586764812e+001,-1.83785043113491e+000

2.82464958813007e+005,-1.59259404399029e+001,-1.86185569748657e+000

2.86408022696948e+005,-1.59264298613833e+001,-1.88614700446111e+000

2.90406129701488e+005,-1.59269269355450e+001,-1.91072735387698e+000

2.94460048199957e+005,-1.59274316511460e+001,-1.93559979473456e+000

2.98570557291775e+005,-1.59279439909301e+001,-1.96076742544782e+000

3.02738446952187e+005,-1.59284639314830e+001,-1.98623339616026e+000

3.06964518184081e+005,-1.59289914430996e+001,-2.01200091114059e+000

3.11249583171928e+005,-1.59295264896576e+001,-2.03807323126354e+000

3.15594465437872e+005,-1.59300690285029e+001,-2.06445367657014e+000

3.19999999999997e+005,-1.59306190103447e+001,-2.09114562890340e+000

3.24467033532806e+005,-1.59311763791623e+001,-2.11815253462060e+000

3.28996424529938e+005,-1.59317410721240e+001,-2.14547790737908e+000

3.33589043469155e+005,-1.59323130195187e+001,-2.17312533098781e+000

3.38245772979638e+005,-1.59328921447007e+001,-2.20109846232840e+000

3.42967508011610e+005,-1.59334783640498e+001,-2.22940103433308e+000

3.47755156008335e+005,-1.59340715869452e+001,-2.25803685902246e+000

3.52609637080511e+005,-1.59346717157549e+001,-2.28700983059565e+000

3.57531884183106e+005,-1.59352786458421e+001,-2.31632392856507e+000

3.62522843294651e+005,-1.59358922655868e+001,-2.34598322093635e+000

3.67583473599047e+005,-1.59365124564255e+001,-2.37599186742137e+000

3.72714747669902e+005,-1.59371390929080e+001,-2.40635412268354e+000

3.77917651657445e+005,-1.59377720427719e+001,-2.43707433960465e+000

3.83193185478053e+005,-1.59384111670352e+001,-2.46815697257213e+000

3.88542363006410e+005,-1.59390563201080e+001,-2.49960658077376e+000

3.93966212270369e+005,-1.59397073499216e+001,-2.53142783149686e+000

3.99465775648511e+005,-1.59403640980774e+001,-2.56362550342560e+000

4.05042110070485e+005,-1.59410264000132e+001,-2.59620448992575e+000

4.10696287220124e+005,-1.59416940851898e+001,-2.62916980231181e+000

4.16429393741414e+005,-1.59423669772950e+001,-2.66252657308882e+000

4.22242531447321e+005,-1.59430448944653e+001,-2.69628005916260e+000

4.28136817531551e+005,-1.59437276495280e+001,-2.73043564500689e+000

4.34113384783250e+005,-1.59444150502578e+001,-2.76499884578744e+000

4.40173381804713e+005,-1.59451068996535e+001,-2.79997531042717e+000

4.46317973232124e+005,-1.59458029962292e+001,-2.83537082461327e+000

4.52548339959385e+005,-1.59465031343232e+001,-2.87119131373385e+000

4.58865679365059e+005,-1.59472071044206e+001,-2.90744284574176e+000

4.65271205542494e+005,-1.59479146934923e+001,-2.94413163393513e+000

4.71766149533147e+005,-1.59486256853464e+001,-2.98126403965272e+000

4.78351759563174e+005,-1.59493398609929e+001,-3.01884657487583e+000

4.85029301283321e+005,-1.59500569990204e+001,-3.05688590473426e+000

4.91800058012158e+005,-1.59507768759838e+001,-3.09538884990618e+000

4.98665330982714e+005,-1.59514992668008e+001,-3.13436238891666e+000

5.05626439592555e+005,-1.59522239451586e+001,-3.17381366032166e+000

5.12684721657352e+005,-1.59529506839266e+001,-3.21374996478065e+000

5.19841533667984e+005,-1.59536792555761e+001,-3.25417876701328e+000

5.27098251051240e+005,-1.59544094326050e+001,-3.29510769763675e+000

5.34456268434150e+005,-1.59551409879655e+001,-3.33654455488571e+000

5.41916999912011e+005,-1.59558736954953e+001,-3.37849730620942e+000

