Freq.,VOut,OutRef

1.00000000000000e+004,-1.51445522429911e+001,-1.95350870982216e-001

1.01395947979003e+004,-1.51445528479267e+001,-1.98077809198759e-001

1.02811382665607e+004,-1.51445534698600e+001,-2.00842811578398e-001

1.04246576084112e+004,-1.51445541092681e+001,-2.03646409373470e-001

1.05701804056138e+004,-1.51445547666418e+001,-2.06489141244592e-001

1.07177346253629e+004,-1.51445554424857e+001,-2.09371553369512e-001

1.08673486252606e+004,-1.51445561373182e+001,-2.12294199545845e-001

1.10190511587661e+004,-1.51445568516726e+001,-2.15257641295648e-001

1.11728713807222e+004,-1.51445575860970e+001,-2.18262447974005e-001

1.13288388529580e+004,-1.51445583411549e+001,-2.21309196879460e-001

1.14869835499703e+004,-1.51445591174255e+001,-2.24398473363133e-001

1.16473358646846e+004,-1.51445599155045e+001,-2.27530870941950e-001

1.18099266142953e+004,-1.51445607360039e+001,-2.30706991411083e-001

1.19747870461893e+004,-1.51445615795533e+001,-2.33927444959662e-001

1.21419488439505e+004,-1.51445624467996e+001,-2.37192850289037e-001

1.23114441334492e+004,-1.51445633384080e+001,-2.40503834730028e-001

1.24833054890161e+004,-1.51445642550624e+001,-2.43861034362572e-001

1.26575659397028e+004,-1.51445651974656e+001,-2.47265094139389e-001

1.28342589756290e+004,-1.51445661663401e+001,-2.50716668008723e-001

1.30134185544193e+004,-1.51445671624293e+001,-2.54216419036212e-001

1.31950791077289e+004,-1.51445681864964e+001,-2.57765019539463e-001

1.33792755478611e+004,-1.51445692393269e+001,-2.61363151208437e-001

1.35660432744767e+004,-1.51445703217277e+001,-2.65011505241910e-001

1.37554181813974e+004,-1.51445714345285e+001,-2.68710782477351e-001

1.39474366635040e+004,-1.51445725785822e+001,-2.72461693524967e-001

1.41421356237309e+004,-1.51445737547658e+001,-2.76264958903177e-001

1.43395524801583e+004,-1.51445749639803e+001,-2.80121309180165e-001

1.45397251732031e+004,-1.51445762071527e+001,-2.84031485106651e-001

1.47426921729110e+004,-1.51445774852352e+001,-2.87996237766643e-001

1.49484924863494e+004,-1.51445787992072e+001,-2.92016328712112e-001

1.51571656651040e+004,-1.51445801500751e+001,-2.96092530115607e-001

1.53687518128801e+004,-1.51445815388738e+001,-3.00225624913782e-001

1.55832915932100e+004,-1.51445829666668e+001,-3.04416406959155e-001

1.58008262372675e+004,-1.51445844345476e+001,-3.08665681170744e-001

1.60213975517924e+004,-1.51445859436404e+001,-3.12974263688174e-001

1.62450479271247e+004,-1.51445874951003e+001,-3.17342982029572e-001

1.64718203453514e+004,-1.51445890901153e+001,-3.21772675244741e-001

1.67017583885674e+004,-1.51445907299063e+001,-3.26264194081802e-001

1.69349062472505e+004,-1.51445924157282e+001,-3.30818401145544e-001

1.71713087287550e+004,-1.51445941488713e+001,-3.35436171062944e-001

1.74110112659224e+004,-1.51445959306617e+001,-3.40118390651264e-001

1.76540599258131e+004,-1.51445977624628e+001,-3.44865959085397e-001

1.79005014185594e+004,-1.51445996456756e+001,-3.49679788072276e-001

1.81503831063432e+004,-1.51446015817407e+001,-3.54560802022190e-001

1.84037530124975e+004,-1.51446035721389e+001,-3.59509938226742e-001

1.86606598307361e+004,-1.51446056183919e+001,-3.64528147038007e-001

1.89211529345119e+004,-1.51446077220642e+001,-3.69616392048075e-001

1.91852823865052e+004,-1.51446098847639e+001,-3.74775650275111e-001

1.94530989482457e+004,-1.51446121081440e+001,-3.80006912346814e-001

1.97246540898671e+004,-1.51446143939036e+001,-3.85311182691687e-001

1.99999999999999e+004,-1.51446167437891e+001,-3.90689479729866e-001

2.02791895958005e+004,-1.51446191595955e+001,-3.96142836066243e-001

2.05622765331213e+004,-1.51446216431681e+001,-4.01672298688770e-001

2.08493152168224e+004,-1.51446241964033e+001,-4.07278929166380e-001

2.11403608112276e+004,-1.51446268212506e+001,-4.12963803851066e-001

2.14354692507258e+004,-1.51446295197136e+001,-4.18728014085342e-001

2.17346972505211e+004,-1.51446322938517e+001,-4.24572666405937e-001

2.20381023175322e+004,-1.51446351457817e+001,-4.30498882757439e-001

2.23457427614443e+004,-1.51446380776794e+001,-4.36507800704144e-001

2.26576777059159e+004,-1.51446410917809e+001,-4.42600573647170e-001

2.29739670999406e+004,-1.51446441903846e+001,-4.48778371042835e-001

2.32946717293690e+004,-1.51446473758526e+001,-4.55042378626744e-001

2.36198532285905e+004,-1.51446506506131e+001,-4.61393798635575e-001

2.39495740923785e+004,-1.51446540171613e+001,-4.67833850040128e-001

2.42838976879009e+004,-1.51446574780621e+001,-4.74363768771343e-001

2.46228882668982e+004,-1.51446610359511e+001,-4.80984807960387e-001

2.49666109780322e+004,-1.51446646935375e+001,-4.87698238171509e-001

2.53151318794055e+004,-1.51446684536055e+001,-4.94505347646862e-001

2.56685179512580e+004,-1.51446723190166e+001,-5.01407442547789e-001

2.60268371088386e+004,-1.51446762927114e+001,-5.08405847204129e-001

2.63901582154578e+004,-1.51446803777123e+001,-5.15501904364750e-001

2.67585510957221e+004,-1.51446845771251e+001,-5.22696975451858e-001

2.71320865489533e+004,-1.51446888941418e+001,-5.29992440818004e-001

2.75108363627948e+004,-1.51446933320429e+001,-5.37389700007666e-001

2.78948733270080e+004,-1.51446978941993e+001,-5.44890172022509e-001

2.82842712474618e+004,-1.51447025840752e+001,-5.52495295589004e-001

2.86791049603164e+004,-1.51447074052308e+001,-5.60206529430552e-001

2.90794503464061e+004,-1.51447123613243e+001,-5.68025352542693e-001

2.94853843458219e+004,-1.51447174561153e+001,-5.75953264472281e-001

2.98969849726987e+004,-1.51447226934667e+001,-5.83991785601722e-001

3.03143313302078e+004,-1.51447280773484e+001,-5.92142457433467e-001

3.07375036257601e+004,-1.51447336118394e+001,-6.00406842883024e-001

3.11665831864199e+004,-1.51447393011314e+001,-6.08786526570402e-001

3.16016524745350e+004,-1.51447451495313e+001,-6.17283115121469e-001

3.20427951035848e+004,-1.51447511614644e+001,-6.25898237470011e-001

3.24900958542493e+004,-1.51447573414782e+001,-6.34633545161673e-001

3.29436406907028e+004,-1.51447636942449e+001,-6.43490712665981e-001

3.34035167771346e+004,-1.51447702245648e+001,-6.52471437692264e-001

3.38698124945009e+004,-1.51447769373705e+001,-6.61577441505646e-001

3.43426174575100e+004,-1.51447838377297e+001,-6.70810469252404e-001

3.48220225318448e+004,-1.51447909308488e+001,-6.80172290285454e-001

3.53081198516260e+004,-1.51447982220772e+001,-6.89664698497128e-001

3.58010028371187e+004,-1.51448057169105e+001,-6.99289512654431e-001

3.63007662126863e+004,-1.51448134209946e+001,-7.09048576739939e-001

3.68075060249948e+004,-1.51448213401301e+001,-7.18943760295172e-001

3.73213196614721e+004,-1.51448294802755e+001,-7.28976958772798e-001

3.78423058690237e+004,-1.51448378475524e+001,-7.39150093886468e-001

3.83705647730104e+004,-1.51448464482487e+001,-7.49465113974461e-001

3.89061978964912e+004,-1.51448552888243e+001,-7.59923994357488e-001

3.94493081797342e+004,-1.51448643759144e+001,-7.70528737710972e-001

3.99999999999998e+004,-1.51448737163348e+001,-7.81281374435300e-001

4.05583791916010e+004,-1.51448833170865e+001,-7.92183963034252e-001

4.11245530662425e+004,-1.51448931853606e+001,-8.03238590498057e-001

4.16986304336447e+004,-1.51449033285430e+001,-8.14447372688549e-001

4.22807216224550e+004,-1.51449137542195e+001,-8.25812454735675e-001

4.28709385014515e+004,-1.51449244701817e+001,-8.37336011430191e-001

4.34693945010421e+004,-1.51449354844312e+001,-8.49020247629359e-001

4.40762046350642e+004,-1.51449468051858e+001,-8.60867398664672e-001

4.46914855228886e+004,-1.51449584408852e+001,-8.72879730752905e-001

4.53153554118317e+004,-1.51449704001959e+001,-8.85059541416102e-001

4.59479341998812e+004,-1.51449826920178e+001,-8.97409159904750e-001

4.65893434587380e+004,-1.51449953254900e+001,-9.09930947625224e-001

4.72397064571810e+004,-1.51450083099967e+001,-9.22627298577244e-001

4.78991481847569e+004,-1.51450216551735e+001,-9.35500639791128e-001

4.85677953758016e+004,-1.51450353709138e+001,-9.48553431773896e-001

4.92457765337964e+004,-1.51450494673756e+001,-9.61788168961162e-001

4.99332219560642e+004,-1.51450639549877e+001,-9.75207380172725e-001

5.06302637588109e+004,-1.51450788444569e+001,-9.88813629076692e-001

5.13370359025159e+004,-1.51450941467746e+001,-1.00260951465481e+000

5.20536742176771e+004,-1.51451098732244e+001,-1.01659767167987e+000

5.27803164309155e+004,-1.51451260353889e+001,-1.03078077119326e+000

5.35171021914442e+004,-1.51451426451572e+001,-1.04516152099252e+000

5.42641730979066e+004,-1.51451597147329e+001,-1.05974266612157e+000

5.50216727255895e+004,-1.51451772566413e+001,-1.07452698936957e+000

5.57897466540159e+004,-1.51451952837373e+001,-1.08951731177643e+000

5.65685424949235e+004,-1.51452138092140e+001,-1.10471649313985e+000

5.73582099206328e+004,-1.51452328466104e+001,-1.12012743253499e+000

5.81589006928121e+004,-1.51452524098197e+001,-1.13575306883551e+000

5.89707686916437e+004,-1.51452725130983e+001,-1.15159638124320e+000

5.97939699453972e+004,-1.51452931710740e+001,-1.16766038982327e+000

6.06286626604156e+004,-1.51453143987552e+001,-1.18394815604731e+000

6.14750072515201e+004,-1.51453362115398e+001,-1.20046278334089e+000

6.23331663728396e+004,-1.51453586252242e+001,-1.21720741763824e+000

6.32033049490698e+004,-1.51453816560131e+001,-1.23418524794590e+000

6.40855902071694e+004,-1.51454053205284e+001,-1.25139950690922e+000

6.49801917084985e+004,-1.51454296358194e+001,-1.26885347138876e+000

6.58872813814055e+004,-1.51454546193725e+001,-1.28655046304144e+000

6.68070335542691e+004,-1.51454802891209e+001,-1.30449384891096e+000

6.77396249890018e+004,-1.51455066634551e+001,-1.32268704202166e+000

6.86852349150199e+004,-1.51455337612331e+001,-1.34113350198248e+000

6.96440450636895e+004,-1.51455616017910e+001,-1.35983673559707e+000

7.06162397032520e+004,-1.51455902049535e+001,-1.37880029747909e+000

7.16020056742374e+004,-1.51456195910446e+001,-1.39802779067893e+000

7.26015324253724e+004,-1.51456497808986e+001,-1.41752286731285e+000

7.36150120499896e+004,-1.51456807958714e+001,-1.43728922920282e+000

7.46426393229441e+004,-1.51457126578514e+001,-1.45733062852199e+000

7.56846117380472e+004,-1.51457453892713e+001,-1.47765086844797e+000

7.67411295460207e+004,-1.51457790131188e+001,-1.49825380382443e+000

7.78123957929823e+004,-1.51458135529493e+001,-1.51914334182867e+000

7.88986163594682e+004,-1.51458490328969e+001,-1.54032344264759e+000

7.99999999999995e+004,-1.51458854776862e+001,-1.56179812016311e+000

8.11167583832018e+004,-1.51459229126450e+001,-1.58357144264083e+000

8.22491061324848e+004,-1.51459613637157e+001,-1.60564753343082e+000

8.33972608672892e+004,-1.51460008574677e+001,-1.62803057167536e+000

8.45614432449099e+004,-1.51460414211098e+001,-1.65072479302259e+000

8.57418770029029e+004,-1.51460830825024e+001,-1.67373449034962e+000

8.69387890020841e+004,-1.51461258701699e+001,-1.69706401449524e+000

8.81524092701283e+004,-1.51461698133135e+001,-1.72071777499672e+000

8.93829710457770e+004,-1.51462149418230e+001,-1.74470024084036e+000

9.06307108236633e+004,-1.51462612862904e+001,-1.76901594121427e+000

9.18958683997622e+004,-1.51463088780213e+001,-1.79366946627534e+000

9.31786869174758e+004,-1.51463577490485e+001,-1.81866546792033e+000

9.44794129143618e+004,-1.51464079321439e+001,-1.84400866056850e+000

9.57982963695136e+004,-1.51464594608315e+001,-1.86970382195063e+000

9.71355907516031e+004,-1.51465123693995e+001,-1.89575579390903e+000

9.84915530675926e+004,-1.51465666929133e+001,-1.92216948320395e+000

9.98664439121282e+004,-1.51466224672272e+001,-1.94894986233292e+000

1.01260527517622e+005,-1.51466797289974e+001,-1.97610197035343e+000

1.02674071805032e+005,-1.51467385156935e+001,-2.00363091372180e+000

1.04107348435354e+005,-1.51467988656110e+001,-2.03154186713506e+000

1.05560632861831e+005,-1.51468608178832e+001,-2.05984007438604e+000

1.07034204382888e+005,-1.51469244124925e+001,-2.08853084922775e+000

1.08528346195813e+005,-1.51469896902822e+001,-2.11761957624687e+000

1.10043345451179e+005,-1.51470566929676e+001,-2.14711171174701e+000

1.11579493308032e+005,-1.51471254631473e+001,-2.17701278464268e+000

1.13137084989847e+005,-1.51471960443134e+001,-2.20732839736377e+000

1.14716419841265e+005,-1.51472684808622e+001,-2.23806422677020e+000

1.16317801385624e+005,-1.51473428181044e+001,-2.26922602507690e+000

1.17941537383287e+005,-1.51474191022742e+001,-2.30081962079090e+000

1.19587939890794e+005,-1.51474973805392e+001,-2.33285091965825e+000

1.21257325320831e+005,-1.51475777010087e+001,-2.36532590562285e+000

1.22950014503040e+005,-1.51476601127424e+001,-2.39825064179796e+000

1.24666332745679e+005,-1.51477446657576e+001,-2.43163127144818e+000

1.26406609898139e+005,-1.51478314110373e+001,-2.46547401898334e+000

1.28171180414339e+005,-1.51479204005363e+001,-2.49978519096777e+000

1.29960383416997e+005,-1.51480116871871e+001,-2.53457117713854e+000

1.31774562762811e+005,-1.51481053249059e+001,-2.56983845143960e+000

1.33614067108538e+005,-1.51482013685965e+001,-2.60559357306858e+000

1.35479249978003e+005,-1.51482998741546e+001,-2.64184318753739e+000

1.37370469830040e+005,-1.51484008984711e+001,-2.67859402774768e+000

1.39288090127379e+005,-1.51485044994338e+001,-2.71585291508027e+000

1.41232479406504e+005,-1.51486107359295e+001,-2.75362676049988e+000

1.43204011348474e+005,-1.51487196678440e+001,-2.79192256567687e+000

1.45203064850745e+005,-1.51488313560614e+001,-2.83074742412339e+000

1.47230024099979e+005,-1.51489458624637e+001,-2.87010852234693e+000

1.49285278645888e+005,-1.51490632499269e+001,-2.91001314102160e+000

1.51369223476094e+005,-1.51491835823184e+001,-2.95046865617671e+000

1.53482259092041e+005,-1.51493069244919e+001,-2.99148254040373e+000

1.55624791585964e+005,-1.51494333422816e+001,-3.03306236408257e+000

1.57797232718936e+005,-1.51495629024950e+001,-3.07521579662846e+000

1.59999999999999e+005,-1.51496956729047e+001,-3.11795060775727e+000

1.62233516766403e+005,-1.51498317222387e+001,-3.16127466877441e+000

1.64498212264969e+005,-1.51499711201695e+001,-3.20519595388422e+000

1.66794521734578e+005,-1.51501139373018e+001,-3.24972254152282e+000

1.69122886489819e+005,-1.51502602451592e+001,-3.29486261571474e+000

1.71483754005805e+005,-1.51504101161687e+001,-3.34062446745350e+000

1.73877578004168e+005,-1.51505636236446e+001,-3.38701649610867e+000

1.76304818540256e+005,-1.51507208417706e+001,-3.43404721085828e+000

1.78765942091554e+005,-1.51508818455804e+001,-3.48172523215032e+000

1.81261421647326e+005,-1.51510467109369e+001,-3.53005929319053e+000

1.83791736799524e+005,-1.51512155145101e+001,-3.57905824146245e+000

1.86357373834951e+005,-1.51513883337536e+001,-3.62873104027504e+000

1.88958825828723e+005,-1.51515652468792e+001,-3.67908677034505e+000

1.91596592739027e+005,-1.51517463328301e+001,-3.73013463141144e+000

1.94271181503206e+005,-1.51519316712537e+001,-3.78188394388213e+000

1.96983106135185e+005,-1.51521213424715e+001,-3.83434415052003e+000

1.99732887824256e+005,-1.51523154274487e+001,-3.88752481816151e+000

2.02521055035243e+005,-1.51525140077623e+001,-3.94143563947724e+000

2.05348143610063e+005,-1.51527171655677e+001,-3.99608643476815e+000

2.08214696870707e+005,-1.51529249835640e+001,-4.05148715380619e+000

2.11121265723661e+005,-1.51531375449592e+001,-4.10764787771375e+000

2.14068408765776e+005,-1.51533549334327e+001,-4.16457882088909e+000

2.17056692391625e+005,-1.51535772330986e+001,-4.22229033297499e+000

2.20086690902357e+005,-1.51538045284667e+001,-4.28079290087532e+000

2.23158986616063e+005,-1.51540369044041e+001,-4.34009715081771e+000

2.26274169979693e+005,-1.51542744460952e+001,-4.40021385046650e+000

2.29432839682530e+005,-1.51545172390017e+001,-4.46115391108645e+000

2.32635602771247e+005,-1.51547653688226e+001,-4.52292838975781e+000

2.35883074766574e+005,-1.51550189214535e+001,-4.58554849164516e+000

2.39175879781588e+005,-1.51552779829465e+001,-4.64902557232098e+000

2.42514650641661e+005,-1.51555426394704e+001,-4.71337114014603e+000

2.45900029006080e+005,-1.51558129772708e+001,-4.77859685870630e+000

2.49332665491357e+005,-1.51560890826317e+001,-4.84471454930961e+000

2.52813219796278e+005,-1.51563710418376e+001,-4.91173619354148e+000

2.56342360828676e+005,-1.51566589411372e+001,-4.97967393588357e+000

2.59920766833993e+005,-1.51569528667080e+001,-5.04854008639315e+000

2.63549125525621e+005,-1.51572529046237e+001,-5.11834712344646e+000

2.67228134217075e+005,-1.51575591408225e+001,-5.18910769654708e+000

2.70958499956006e+005,-1.51578716610789e+001,-5.26083462919927e+000

2.74740939660078e+005,-1.51581905509775e+001,-5.33354092184694e+000

2.78576180254757e+005,-1.51585158958900e+001,-5.40723975488079e+000

2.82464958813007e+005,-1.51588477809562e+001,-5.48194449171138e+000

2.86408022696948e+005,-1.51591862910680e+001,-5.55766868191152e+000

2.90406129701488e+005,-1.51595315108580e+001,-5.63442606442597e+000

2.94460048199957e+005,-1.51598835246928e+001,-5.71223057085070e+000

2.98570557291775e+005,-1.51602424166704e+001,-5.79109632877978e+000

3.02738446952187e+005,-1.51606082706240e+001,-5.87103766522169e+000

3.06964518184081e+005,-1.51609811701309e+001,-5.95206911008317e+000

3.11249583171928e+005,-1.51613611985272e+001,-6.03420539972269e+000

3.15594465437872e+005,-1.51617484389303e+001,-6.11746148056900e+000

3.19999999999997e+005,-1.51621429742664e+001,-6.20185251280920e+000

3.24467033532806e+005,-1.51625448873073e+001,-6.28739387414036e+000

3.28996424529938e+005,-1.51629542607133e+001,-6.37410116358869e+000

3.33589043469155e+005,-1.51633711770849e+001,-6.46199020538954e+000

3.38245772979638e+005,-1.51637957190237e+001,-6.55107705293271e+000

3.42967508011610e+005,-1.51642279692004e+001,-6.64137799276604e+000

3.47755156008335e+005,-1.51646680104338e+001,-6.73290954866058e+000

3.52609637080511e+005,-1.51651159257783e+001,-6.82568848573117e+000

3.57531884183106e+005,-1.51655717986213e+001,-6.91973181461306e+000

3.62522843294651e+005,-1.51660357127916e+001,-7.01505679569227e+000

3.67583473599047e+005,-1.51665077526777e+001,-7.11168094338507e+000

3.72714747669902e+005,-1.51669880033563e+001,-7.20962203046722e+000

3.77917651657445e+005,-1.51674765507334e+001,-7.30889809244867e+000

3.83193185478053e+005,-1.51679734816951e+001,-7.40952743199010e+000

3.88542363006410e+005,-1.51684788842701e+001,-7.51152862336090e+000

3.93966212270369e+005,-1.51689928478051e+001,-7.61492051693358e+000

3.99465775648511e+005,-1.51695154631496e+001,-7.71972224371260e+000

4.05042110070485e+005,-1.51700468228547e+001,-7.82595321989427e+000

4.10696287220124e+005,-1.51705870213823e+001,-7.93363315145457e+000

4.16429393741414e+005,-1.51711361553269e+001,-8.04278203876121e+000

4.22242531447321e+005,-1.51716943236491e+001,-8.15342018120876e+000

4.28136817531551e+005,-1.51722616279207e+001,-8.26556818187065e+000

4.34113384783250e+005,-1.51728381725823e+001,-8.37924695216760e+000

4.40173381804713e+005,-1.51734240652113e+001,-8.49447771654734e+000

4.46317973232124e+005,-1.51740194168028e+001,-8.61128201717439e+000

4.52548339959385e+005,-1.51746243420609e+001,-8.72968171862567e+000

4.58865679365059e+005,-1.51752389597011e+001,-8.84969901258886e+000

4.65271205542494e+005,-1.51758633927644e+001,-8.97135642256263e+000

4.71766149533147e+005,-1.51764977689407e+001,-9.09467680855379e+000

4.78351759563174e+005,-1.51771422209036e+001,-9.21968337177022e+000

4.85029301283321e+005,-1.51777968866544e+001,-9.34639965930778e+000

4.91800058012158e+005,-1.51784619098758e+001,-9.47484956882725e+000

4.98665330982714e+005,-1.51791374402952e+001,-9.60505735322152e+000

5.05626439592555e+005,-1.51798236340561e+001,-9.73704762527001e+000

5.12684721657352e+005,-1.51805206540981e+001,-9.87084536227925e+000

5.19841533667984e+005,-1.51812286705450e+001,-1.00064759107084e+001

5.27098251051240e+005,-1.51819478610997e+001,-1.01439649907793e+001

5.34456268434150e+005,-1.51826784114470e+001,-1.02833387010692e+001

5.41916999912011e+005,-1.51834205156620e+001,-1.04246235230856e+001

