Freq.,VOut,OutRef

1.00000000000000e+004,-2.13619348112441e+001,-3.02103154114435e-001

1.01395947979003e+004,-2.13619368705151e+001,-3.06320205556873e-001

1.02811382665607e+004,-2.13619389876567e+001,-3.10596118415840e-001

1.04246576084112e+004,-2.13619411642947e+001,-3.14931714093336e-001

1.05701804056138e+004,-2.13619434021002e+001,-3.19327825446055e-001

1.07177346253629e+004,-2.13619457027914e+001,-3.23785296946046e-001

1.08673486252606e+004,-2.13619480681347e+001,-3.28304984838649e-001

1.10190511587661e+004,-2.13619504999461e+001,-3.32887757310827e-001

1.11728713807222e+004,-2.13619530000924e+001,-3.37534494655241e-001

1.13288388529580e+004,-2.13619555704930e+001,-3.42246089437905e-001

1.14869835499703e+004,-2.13619582131210e+001,-3.47023446670061e-001

1.16473358646846e+004,-2.13619609300050e+001,-3.51867483981358e-001

1.18099266142953e+004,-2.13619637232302e+001,-3.56779131795057e-001

1.19747870461893e+004,-2.13619665949410e+001,-3.61759333504190e-001

1.21419488439505e+004,-2.13619695473410e+001,-3.66809045655652e-001

1.23114441334492e+004,-2.13619725826963e+001,-3.71929238130666e-001

1.24833054890161e+004,-2.13619757033364e+001,-3.77120894328254e-001

1.26575659397028e+004,-2.13619789116560e+001,-3.82385011358686e-001

1.28342589756290e+004,-2.13619822101171e+001,-3.87722600228305e-001

1.30134185544193e+004,-2.13619856012506e+001,-3.93134686036264e-001

1.31950791077289e+004,-2.13619890876587e+001,-3.98622308167652e-001

1.33792755478611e+004,-2.13619926720161e+001,-4.04186520495317e-001

1.35660432744767e+004,-2.13619963570728e+001,-4.09828391577652e-001

1.37554181813974e+004,-2.13620001456558e+001,-4.15549004864835e-001

1.39474366635040e+004,-2.13620040406713e+001,-4.21349458905356e-001

1.41421356237309e+004,-2.13620080451073e+001,-4.27230867553809e-001

1.43395524801583e+004,-2.13620121620349e+001,-4.33194360187144e-001

1.45397251732031e+004,-2.13620163946119e+001,-4.39241081915107e-001

1.47426921729110e+004,-2.13620207460841e+001,-4.45372193803348e-001

1.49484924863494e+004,-2.13620252197889e+001,-4.51588873090942e-001

1.51571656651040e+004,-2.13620298191563e+001,-4.57892313419571e-001

1.53687518128801e+004,-2.13620345477132e+001,-4.64283725054742e-001

1.55832915932100e+004,-2.13620394090849e+001,-4.70764335121771e-001

1.58008262372675e+004,-2.13620444069983e+001,-4.77335387836680e-001

1.60213975517924e+004,-2.13620495452848e+001,-4.83998144744597e-001

1.62450479271247e+004,-2.13620548278829e+001,-4.90753884958836e-001

1.64718203453514e+004,-2.13620602588414e+001,-4.97603905405347e-001

1.67017583885674e+004,-2.13620658423227e+001,-5.04549521068510e-001

1.69349062472505e+004,-2.13620715826055e+001,-5.11592065242412e-001

1.71713087287550e+004,-2.13620774840884e+001,-5.18732889783238e-001

1.74110112659224e+004,-2.13620835512929e+001,-5.25973365368081e-001

1.76540599258131e+004,-2.13620897888673e+001,-5.33314881753252e-001

1.79005014185594e+004,-2.13620962015896e+001,-5.40758848040100e-001

1.81503831063432e+004,-2.13621027943719e+001,-5.48306692942565e-001

1.84037530124975e+004,-2.13621095722634e+001,-5.55959865056529e-001

1.86606598307361e+004,-2.13621165404548e+001,-5.63719833137301e-001

1.89211529345119e+004,-2.13621237042815e+001,-5.71588086378061e-001

1.91852823865052e+004,-2.13621310692285e+001,-5.79566134690479e-001

1.94530989482457e+004,-2.13621386409340e+001,-5.87655508992510e-001

1.97246540898671e+004,-2.13621464251938e+001,-5.95857761499315e-001

1.99999999999999e+004,-2.13621544279657e+001,-6.04174466014795e-001

2.02791895958005e+004,-2.13621626553738e+001,-6.12607218232664e-001

2.05622765331213e+004,-2.13621711137136e+001,-6.21157636037335e-001

2.08493152168224e+004,-2.13621798094563e+001,-6.29827359809122e-001

2.11403608112276e+004,-2.13621887492537e+001,-6.38618052736336e-001

2.14354692507258e+004,-2.13621979399435e+001,-6.47531401129196e-001

2.17346972505211e+004,-2.13622073885544e+001,-6.56569114737290e-001

2.20381023175322e+004,-2.13622171023109e+001,-6.65732927075246e-001

2.23457427614443e+004,-2.13622270886395e+001,-6.75024595747060e-001

2.26576777059159e+004,-2.13622373551736e+001,-6.84445902780667e-001

2.29739670999406e+004,-2.13622479097598e+001,-6.93998654962163e-001

2.32946717293690e+004,-2.13622587604634e+001,-7.03684684177221e-001

2.36198532285905e+004,-2.13622699155745e+001,-7.13505847756323e-001

2.39495740923785e+004,-2.13622813836144e+001,-7.23464028824655e-001

2.42838976879009e+004,-2.13622931733419e+001,-7.33561136656286e-001

2.46228882668982e+004,-2.13623052937596e+001,-7.43799107034037e-001

2.49666109780322e+004,-2.13623177541212e+001,-7.54179902612653e-001

2.53151318794055e+004,-2.13623305639380e+001,-7.64705513287822e-001

2.56685179512580e+004,-2.13623437329859e+001,-7.75377956570950e-001

2.60268371088386e+004,-2.13623572713129e+001,-7.86199277966757e-001

2.63901582154578e+004,-2.13623711892470e+001,-7.97171551355868e-001

2.67585510957221e+004,-2.13623854974031e+001,-8.08296879386339e-001

2.71320865489533e+004,-2.13624002066913e+001,-8.19577393865982e-001

2.75108363627948e+004,-2.13624153283251e+001,-8.31015256159989e-001

2.78948733270080e+004,-2.13624308738296e+001,-8.42612657598039e-001

2.82842712474618e+004,-2.13624468550500e+001,-8.54371819881527e-001

2.86791049603164e+004,-2.13624632841609e+001,-8.66294995499091e-001

2.90794503464061e+004,-2.13624801736741e+001,-8.78384468148634e-001

2.94853843458219e+004,-2.13624975364496e+001,-8.90642553159208e-001

2.98969849726987e+004,-2.13625153857033e+001,-9.03071597927506e-001

3.03143313302078e+004,-2.13625337350183e+001,-9.15673982350006e-001

3.07375036257601e+004,-2.13625525983537e+001,-9.28452119269115e-001

3.11665831864199e+004,-2.13625719900560e+001,-9.41408454918615e-001

3.16016524745350e+004,-2.13625919248686e+001,-9.54545469380176e-001

3.20427951035848e+004,-2.13626124179433e+001,-9.67865677042449e-001

3.24900958542493e+004,-2.13626334848513e+001,-9.81371627065978e-001

3.29436406907028e+004,-2.13626551415946e+001,-9.95065903856575e-001

3.34035167771346e+004,-2.13626774046176e+001,-1.00895112754113e+000

3.38698124945009e+004,-2.13627002908192e+001,-1.02302995445483e+000

3.43426174575100e+004,-2.13627238175653e+001,-1.03730507762770e+000

3.48220225318448e+004,-2.13627480027012e+001,-1.05177922728293e+000

3.53081198516260e+004,-2.13627728645645e+001,-1.06645517133920e+000

3.58010028371187e+004,-2.13627984219991e+001,-1.08133571591906e+000

3.63007662126863e+004,-2.13628246943681e+001,-1.09642370586494e+000

3.68075060249948e+004,-2.13628517015681e+001,-1.11172202526049e+000

3.73213196614721e+004,-2.13628794640438e+001,-1.12723359795942e+000

3.78423058690237e+004,-2.13629080028024e+001,-1.14296138811955e+000

3.83705647730104e+004,-2.13629373394292e+001,-1.15890840074467e+000

3.89061978964912e+004,-2.13629674961026e+001,-1.17507768223389e+000

3.94493081797342e+004,-2.13629984956105e+001,-1.19147232093465e+000

3.99999999999998e+004,-2.13630303613663e+001,-1.20809544770695e+000

4.05583791916010e+004,-2.13630631174258e+001,-1.22495023648981e+000

4.11245530662425e+004,-2.13630967885043e+001,-1.24203990487837e+000

4.16986304336447e+004,-2.13631313999945e+001,-1.25936771470658e+000

4.22807216224550e+004,-2.13631669779838e+001,-1.27693697263627e+000

4.28709385014515e+004,-2.13632035492739e+001,-1.29475103075463e+000

4.34693945010421e+004,-2.13632411413987e+001,-1.31281328717827e+000

4.40762046350642e+004,-2.13632797826445e+001,-1.33112718666344e+000

4.46914855228886e+004,-2.13633195020694e+001,-1.34969622122679e+000

4.53153554118317e+004,-2.13633603295242e+001,-1.36852393076951e+000

4.59479341998812e+004,-2.13634022956727e+001,-1.38761390371148e+000

4.65893434587380e+004,-2.13634454320138e+001,-1.40696977763197e+000

4.72397064571810e+004,-2.13634897709029e+001,-1.42659523991748e+000

4.78991481847569e+004,-2.13635353455750e+001,-1.44649402841829e+000

4.85677953758016e+004,-2.13635821901668e+001,-1.46666993211231e+000

4.92457765337964e+004,-2.13636303397412e+001,-1.48712679177487e+000

4.99332219560642e+004,-2.13636798303110e+001,-1.50786850065848e+000

5.06302637588109e+004,-2.13637306988638e+001,-1.52889900518012e+000

5.13370359025159e+004,-2.13637829833871e+001,-1.55022230561391e+000

5.20536742176771e+004,-2.13638367228944e+001,-1.57184245679543e+000

5.27803164309155e+004,-2.13638919574516e+001,-1.59376356883009e+000

5.35171021914442e+004,-2.13639487282043e+001,-1.61598980781254e+000

5.42641730979066e+004,-2.13640070774055e+001,-1.63852539655171e+000

5.50216727255895e+004,-2.13640670484439e+001,-1.66137461530618e+000

5.57897466540159e+004,-2.13641286858732e+001,-1.68454180252500e+000

5.65685424949235e+004,-2.13641920354415e+001,-1.70803135559853e+000

5.73582099206328e+004,-2.13642571441221e+001,-1.73184773161697e+000

5.81589006928121e+004,-2.13643240601443e+001,-1.75599544813592e+000

5.89707686916437e+004,-2.13643928330252e+001,-1.78047908395334e+000

5.97939699453972e+004,-2.13644635136024e+001,-1.80530327988959e+000

6.06286626604156e+004,-2.13645361540669e+001,-1.83047273957992e+000

6.14750072515201e+004,-2.13646108079973e+001,-1.85599223027468e+000

6.23331663728396e+004,-2.13646875303942e+001,-1.88186658364571e+000

6.32033049490698e+004,-2.13647663777158e+001,-1.90810069660261e+000

6.40855902071694e+004,-2.13648474079142e+001,-1.93469953211784e+000

6.49801917084985e+004,-2.13649306804716e+001,-1.96166812005887e+000

6.58872813814055e+004,-2.13650162564390e+001,-1.98901155802897e+000

6.68070335542691e+004,-2.13651041984738e+001,-2.01673501221786e+000

6.77396249890018e+004,-2.13651945708795e+001,-2.04484371825794e+000

6.86852349150199e+004,-2.13652874396459e+001,-2.07334298209162e+000

6.96440450636895e+004,-2.13653828724892e+001,-2.10223818084632e+000

7.06162397032520e+004,-2.13654809388944e+001,-2.13153476371702e+000

7.16020056742374e+004,-2.13655817101576e+001,-2.16123825285709e+000

7.26015324253724e+004,-2.13656852594288e+001,-2.19135424428053e+000

7.36150120499896e+004,-2.13657916617568e+001,-2.22188840876807e+000

7.46426393229441e+004,-2.13659009941332e+001,-2.25284649278569e+000

7.56846117380472e+004,-2.13660133355390e+001,-2.28423431940949e+000

7.67411295460207e+004,-2.13661287669906e+001,-2.31605778925875e+000

7.78123957929823e+004,-2.13662473715875e+001,-2.34832288143998e+000

7.88986163594682e+004,-2.13663692345606e+001,-2.38103565449553e+000

7.99999999999995e+004,-2.13664944433209e+001,-2.41420224736510e+000

8.11167583832018e+004,-2.13666230875098e+001,-2.44782888035147e+000

8.22491061324848e+004,-2.13667552590497e+001,-2.48192185609755e+000

8.33972608672892e+004,-2.13668910521955e+001,-2.51648756057066e+000

8.45614432449099e+004,-2.13670305635871e+001,-2.55153246405569e+000

8.57418770029029e+004,-2.13671738923026e+001,-2.58706312215670e+000

8.69387890020841e+004,-2.13673211399122e+001,-2.62308617680643e+000

8.81524092701283e+004,-2.13674724105332e+001,-2.65960835728521e+000

8.93829710457770e+004,-2.13676278108855e+001,-2.69663648124726e+000

9.06307108236633e+004,-2.13677874503477e+001,-2.73417745575690e+000

9.18958683997622e+004,-2.13679514410148e+001,-2.77223827833163e+000

9.31786869174758e+004,-2.13681198977559e+001,-2.81082603799479e+000

9.44794129143618e+004,-2.13682929382725e+001,-2.84994791633660e+000

9.57982963695136e+004,-2.13684706831584e+001,-2.88961118858381e+000

9.71355907516031e+004,-2.13686532559594e+001,-2.92982322467713e+000

9.84915530675926e+004,-2.13688407832340e+001,-2.97059149035906e+000

9.98664439121282e+004,-2.13690333946153e+001,-3.01192354826828e+000

1.01260527517622e+005,-2.13692312228723e+001,-3.05382705904484e+000

1.02674071805032e+005,-2.13694344039734e+001,-3.09630978244209e+000

1.04107348435354e+005,-2.13696430771486e+001,-3.13937957844994e+000

1.05560632861831e+005,-2.13698573849543e+001,-3.18304440842473e+000

1.07034204382888e+005,-2.13700774733369e+001,-3.22731233623041e+000

1.08528346195813e+005,-2.13703034916978e+001,-3.27219152938614e+000

1.10043345451179e+005,-2.13705355929585e+001,-3.31769026022693e+000

1.11579493308032e+005,-2.13707739336267e+001,-3.36381690707019e+000

1.13137084989847e+005,-2.13710186738613e+001,-3.41057995539468e+000

1.14716419841265e+005,-2.13712699775398e+001,-3.45798799902723e+000

1.16317801385624e+005,-2.13715280123243e+001,-3.50604974134111e+000

1.17941537383287e+005,-2.13717929497284e+001,-3.55477399646387e+000

1.19587939890794e+005,-2.13720649651843e+001,-3.60416969049583e+000

1.21257325320831e+005,-2.13723442381097e+001,-3.65424586273996e+000

1.22950014503040e+005,-2.13726309519757e+001,-3.70501166694183e+000

1.24666332745679e+005,-2.13729252943733e+001,-3.75647637254221e+000

1.26406609898139e+005,-2.13732274570808e+001,-3.80864936594080e+000

1.28171180414339e+005,-2.13735376361316e+001,-3.86154015177230e+000

1.29960383416997e+005,-2.13738560318805e+001,-3.91515835419542e+000

1.31774562762811e+005,-2.13741828490706e+001,-3.96951371819522e+000

1.33614067108538e+005,-2.13745182969005e+001,-4.02461611089854e+000

1.35479249978003e+005,-2.13748625890898e+001,-4.08047552290414e+000

1.37370469830040e+005,-2.13752159439455e+001,-4.13710206962790e+000

1.39288090127379e+005,-2.13755785844271e+001,-4.19450599266286e+000

1.41232479406504e+005,-2.13759507382120e+001,-4.25269766115613e+000

1.43204011348474e+005,-2.13763326377594e+001,-4.31168757320247e+000

1.45203064850745e+005,-2.13767245203745e+001,-4.37148635725588e+000

1.47230024099979e+005,-2.13771266282712e+001,-4.43210477355949e+000

1.49285278645888e+005,-2.13775392086351e+001,-4.49355371559504e+000

1.51369223476094e+005,-2.13779625136845e+001,-4.55584421155334e+000

1.53482259092041e+005,-2.13783968007315e+001,-4.61898742582612e+000

1.55624791585964e+005,-2.13788423322417e+001,-4.68299466051951e+000

1.57797232718936e+005,-2.13792993758935e+001,-4.74787735699376e+000

1.59999999999999e+005,-2.13797682046360e+001,-4.81364709742513e+000

1.62233516766403e+005,-2.13802490967458e+001,-4.88031560639633e+000

1.64498212264969e+005,-2.13807423358832e+001,-4.94789475251441e+000

1.66794521734578e+005,-2.13812482111475e+001,-5.01639655005589e+000

1.69122886489819e+005,-2.13817670171304e+001,-5.08583316064590e+000

1.71483754005805e+005,-2.13822990539691e+001,-5.15621689496681e+000

1.73877578004168e+005,-2.13828446273984e+001,-5.22756021450197e+000

1.76304818540256e+005,-2.13834040488012e+001,-5.29987573331541e+000

1.78765942091554e+005,-2.13839776352585e+001,-5.37317621986814e+000

1.81261421647326e+005,-2.13845657095980e+001,-5.44747459887515e+000

1.83791736799524e+005,-2.13851686004427e+001,-5.52278395320177e+000

1.86357373834951e+005,-2.13857866422573e+001,-5.59911752580605e+000

1.88958825828723e+005,-2.13864201753950e+001,-5.67648872172375e+000

1.91596592739027e+005,-2.13870695461433e+001,-5.75491111010294e+000

1.94271181503206e+005,-2.13877351067692e+001,-5.83439842628784e+000

1.96983106135185e+005,-2.13884172155639e+001,-5.91496457395377e+000

1.99732887824256e+005,-2.13891162368877e+001,-5.99662362729820e+000

2.02521055035243e+005,-2.13898325412143e+001,-6.07938983328662e+000

2.05348143610063e+005,-2.13905665051762e+001,-6.16327761395924e+000

2.08214696870707e+005,-2.13913185116093e+001,-6.24830156879809e+000

2.11121265723661e+005,-2.13920889495993e+001,-6.33447647715862e+000

2.14068408765776e+005,-2.13928782145281e+001,-6.42181730076755e+000

2.17056692391625e+005,-2.13936867081224e+001,-6.51033918629009e+000

2.20086690902357e+005,-2.13945148385032e+001,-6.60005746796804e+000

2.23158986616063e+005,-2.13953630202377e+001,-6.69098767033279e+000

2.26274169979693e+005,-2.13962316743934e+001,-6.78314551099277e+000

2.29432839682530e+005,-2.13971212285950e+001,-6.87654690350219e+000

2.32635602771247e+005,-2.13980321170851e+001,-6.97120796030925e+000

2.35883074766574e+005,-2.13989647807879e+001,-7.06714499578761e+000

2.39175879781588e+005,-2.13999196673780e+001,-7.16437452935469e+000

2.42514650641661e+005,-2.14008972313540e+001,-7.26291328867679e+000

2.45900029006080e+005,-2.14018979341171e+001,-7.36277821296363e+000

2.49332665491357e+005,-2.14029222440569e+001,-7.46398645635566e+000

2.52813219796278e+005,-2.14039706366431e+001,-7.56655539140345e+000

2.56342360828676e+005,-2.14050435945253e+001,-7.67050261264221e+000

2.59920766833993e+005,-2.14061416076415e+001,-7.77584594026261e+000

2.63549125525621e+005,-2.14072651733350e+001,-7.88260342387917e+000

2.67228134217075e+005,-2.14084147964818e+001,-7.99079334639575e+000

2.70958499956006e+005,-2.14095909896289e+001,-8.10043422797061e+000

2.74740939660078e+005,-2.14107942731440e+001,-8.21154483008086e+000

2.78576180254757e+005,-2.14120251753779e+001,-8.32414415968544e+000

2.82464958813007e+005,-2.14132842328412e+001,-8.43825147348744e+000

2.86408022696948e+005,-2.14145719903941e+001,-8.55388628229494e+000

2.90406129701488e+005,-2.14158890014537e+001,-8.67106835547917e+000

2.94460048199957e+005,-2.14172358282160e+001,-8.78981772552892e+000

2.98570557291775e+005,-2.14186130418971e+001,-8.91015469269938e+000

3.02738446952187e+005,-2.14200212229917e+001,-9.03209982975372e+000

3.06964518184081e+005,-2.14214609615524e+001,-9.15567398679369e+000

3.11249583171928e+005,-2.14229328574895e+001,-9.28089829617796e+000

3.15594465437872e+005,-2.14244375208920e+001,-9.40779417752326e+000

3.19999999999997e+005,-2.14259755723724e+001,-9.53638334278553e+000

3.24467033532806e+005,-2.14275476434354e+001,-9.66668780141606e+000

3.28996424529938e+005,-2.14291543768708e+001,-9.79872986558722e+000

3.33589043469155e+005,-2.14307964271732e+001,-9.93253215548479e+000

3.38245772979638e+005,-2.14324744609889e+001,-1.00681176046576e+001

3.42967508011610e+005,-2.14341891575901e+001,-1.02055094654207e+001

3.47755156008335e+005,-2.14359412093786e+001,-1.03447313143051e+001

3.52609637080511e+005,-2.14377313224196e+001,-1.04858070575453e+001

3.57531884183106e+005,-2.14395602170056e+001,-1.06287609365972e+001

3.62522843294651e+005,-2.14414286282524e+001,-1.07736175336813e+001

3.67583473599047e+005,-2.14433373067274e+001,-1.09204017773359e+001

3.72714747669902e+005,-2.14452870191106e+001,-1.10691389479789e+001

3.77917651657445e+005,-2.14472785488901e+001,-1.12198546834625e+001

3.83193185478053e+005,-2.14493126970904e+001,-1.13725749846147e+001

3.88542363006410e+005,-2.14513902830371e+001,-1.15273262207549e+001

3.93966212270369e+005,-2.14535121451558e+001,-1.16841351351752e+001

3.99465775648511e+005,-2.14556791418066e+001,-1.18430288505751e+001

4.05042110070485e+005,-2.14578921521544e+001,-1.20040348744379e+001

4.10696287220124e+005,-2.14601520770753e+001,-1.21671811043400e+001

4.16429393741414e+005,-2.14624598400988e+001,-1.23324958331783e+001

4.22242531447321e+005,-2.14648163883857e+001,-1.25000077543064e+001

4.28136817531551e+005,-2.14672226937421e+001,-1.26697459665676e+001

4.34113384783250e+005,-2.14696797536691e+001,-1.28417399792109e+001

4.40173381804713e+005,-2.14721885924471e+001,-1.30160197166810e+001

4.46317973232124e+005,-2.14747502622557e+001,-1.31926155232678e+001

4.52548339959385e+005,-2.14773658443273e+001,-1.33715581676061e+001

4.58865679365059e+005,-2.14800364501344e+001,-1.35528788470119e+001

4.65271205542494e+005,-2.14827632226106e+001,-1.37366091916453e+001

4.71766149533147e+005,-2.14855473374026e+001,-1.39227812684871e+001

4.78351759563174e+005,-2.14883900041543e+001,-1.41114275851208e+001

4.85029301283321e+005,-2.14912924678209e+001,-1.43025810933062e+001

4.91800058012158e+005,-2.14942560100118e+001,-1.44962751923366e+001

4.98665330982714e+005,-2.14972819503626e+001,-1.46925437321684e+001

5.05626439592555e+005,-2.15003716479325e+001,-1.48914210163138e+001

5.12684721657352e+005,-2.15035265026283e+001,-1.50929418044879e+001

5.19841533667984e+005,-2.15067479566524e+001,-1.52971413149998e+001

5.27098251051240e+005,-2.15100374959732e+001,-1.55040552268821e+001

5.34456268434150e+005,-2.15133966518171e+001,-1.57137196817483e+001

5.41916999912011e+005,-2.15168270021804e+001,-1.59261712853721e+001

