Freq.,VOut,OutRef

1.00000000000000e+004,-1.20241104160881e+001,-1.07284781601027e-001

1.01395947979003e+004,-1.20241107248884e+001,-1.08782379998069e-001

1.02811382665607e+004,-1.20241110423635e+001,-1.10300882334256e-001

1.04246576084112e+004,-1.20241113687566e+001,-1.11840580344894e-001

1.05701804056138e+004,-1.20241117043184e+001,-1.13401769830931e-001

1.07177346253629e+004,-1.20241120493058e+001,-1.14984750723435e-001

1.08673486252606e+004,-1.20241124039836e+001,-1.16589827133465e-001

1.10190511587661e+004,-1.20241127686238e+001,-1.18217307414215e-001

1.11728713807222e+004,-1.20241131435059e+001,-1.19867504221466e-001

1.13288388529580e+004,-1.20241135289171e+001,-1.21540734571399e-001

1.14869835499703e+004,-1.20241139251532e+001,-1.23237319898578e-001

1.16473358646846e+004,-1.20241143325175e+001,-1.24957586125058e-001

1.18099266142953e+004,-1.20241147513225e+001,-1.26701863713938e-001

1.19747870461893e+004,-1.20241151818892e+001,-1.28470487738659e-001

1.21419488439505e+004,-1.20241156245474e+001,-1.30263797945798e-001

1.23114441334492e+004,-1.20241160796363e+001,-1.32082138818733e-001

1.24833054890161e+004,-1.20241165475046e+001,-1.33925859644730e-001

1.26575659397028e+004,-1.20241170285106e+001,-1.35795314582908e-001

1.28342589756290e+004,-1.20241175230230e+001,-1.37690862727244e-001

1.30134185544193e+004,-1.20241180314203e+001,-1.39612868182507e-001

1.31950791077289e+004,-1.20241185540921e+001,-1.41561700126122e-001

1.33792755478611e+004,-1.20241190914384e+001,-1.43537732887209e-001

1.35660432744767e+004,-1.20241196438709e+001,-1.45541346009414e-001

1.37554181813974e+004,-1.20241202118125e+001,-1.47572924328866e-001

1.39474366635040e+004,-1.20241207956977e+001,-1.49632858049356e-001

1.41421356237309e+004,-1.20241213959737e+001,-1.51721542810716e-001

1.43395524801583e+004,-1.20241220131000e+001,-1.53839379767968e-001

1.45397251732031e+004,-1.20241226475483e+001,-1.55986775671646e-001

1.47426921729110e+004,-1.20241232998047e+001,-1.58164142936224e-001

1.49484924863494e+004,-1.20241239703677e+001,-1.60371899730302e-001

1.51571656651040e+004,-1.20241246597505e+001,-1.62610470044789e-001

1.53687518128801e+004,-1.20241253684805e+001,-1.64880283782582e-001

1.55832915932100e+004,-1.20241260970991e+001,-1.67181776840433e-001

1.58008262372675e+004,-1.20241268461638e+001,-1.69515391183865e-001

1.60213975517924e+004,-1.20241276162474e+001,-1.71881574939997e-001

1.62450479271247e+004,-1.20241284079381e+001,-1.74280782480951e-001

1.64718203453514e+004,-1.20241292218412e+001,-1.76713474508567e-001

1.67017583885674e+004,-1.20241300585785e+001,-1.79180118143380e-001

1.69349062472505e+004,-1.20241309187892e+001,-1.81681187014375e-001

1.71713087287550e+004,-1.20241318031307e+001,-1.84217161346618e-001

1.74110112659224e+004,-1.20241327122778e+001,-1.86788528059732e-001

1.76540599258131e+004,-1.20241336469252e+001,-1.89395780850396e-001

1.79005014185594e+004,-1.20241346077861e+001,-1.92039420294799e-001

1.81503831063432e+004,-1.20241355955940e+001,-1.94719953940240e-001

1.84037530124975e+004,-1.20241366111027e+001,-1.97437896403003e-001

1.86606598307361e+004,-1.20241376550869e+001,-2.00193769465203e-001

1.89211529345119e+004,-1.20241387283431e+001,-2.02988102175519e-001

1.91852823865052e+004,-1.20241398316895e+001,-2.05821430949078e-001

1.94530989482457e+004,-1.20241409659677e+001,-2.08694299667997e-001

1.97246540898671e+004,-1.20241421320419e+001,-2.11607259789399e-001

1.99999999999999e+004,-1.20241433308011e+001,-2.14560870444270e-001

2.02791895958005e+004,-1.20241445631584e+001,-2.17555698548616e-001

2.05622765331213e+004,-1.20241458300526e+001,-2.20592318908166e-001

2.08493152168224e+004,-1.20241471324484e+001,-2.23671314329352e-001

2.11403608112276e+004,-1.20241484713374e+001,-2.26793275728429e-001

2.14354692507258e+004,-1.20241498477384e+001,-2.29958802246778e-001

2.17346972505211e+004,-1.20241512626989e+001,-2.33168501358049e-001

2.20381023175322e+004,-1.20241527172950e+001,-2.36422988992993e-001

2.23457427614443e+004,-1.20241542126328e+001,-2.39722889646573e-001

2.26576777059159e+004,-1.20241557498492e+001,-2.43068836502457e-001

2.29739670999406e+004,-1.20241573301123e+001,-2.46461471551784e-001

2.32946717293690e+004,-1.20241589546226e+001,-2.49901445712352e-001

2.36198532285905e+004,-1.20241606246140e+001,-2.53389418955530e-001

2.39495740923785e+004,-1.20241623413540e+001,-2.56926060428978e-001

2.42838976879009e+004,-1.20241641061458e+001,-2.60512048582763e-001

2.46228882668982e+004,-1.20241659203280e+001,-2.64148071299218e-001

2.49666109780322e+004,-1.20241677852765e+001,-2.67834826022059e-001

2.53151318794055e+004,-1.20241697024051e+001,-2.71573019887598e-001

2.56685179512580e+004,-1.20241716731663e+001,-2.75363369860823e-001

2.60268371088386e+004,-1.20241736990532e+001,-2.79206602866123e-001

2.63901582154578e+004,-1.20241757815994e+001,-2.83103455930104e-001

2.67585510957221e+004,-1.20241779223811e+001,-2.87054676314896e-001

2.71320865489533e+004,-1.20241801230178e+001,-2.91061021663485e-001

2.75108363627948e+004,-1.20241823851735e+001,-2.95123260139475e-001

2.78948733270080e+004,-1.20241847105577e+001,-2.99242170574239e-001

2.82842712474618e+004,-1.20241871009271e+001,-3.03418542611497e-001

2.86791049603164e+004,-1.20241895580867e+001,-3.07653176854524e-001

2.90794503464061e+004,-1.20241920838907e+001,-3.11946885020446e-001

2.94853843458219e+004,-1.20241946802442e+001,-3.16300490090368e-001

2.98969849726987e+004,-1.20241973491045e+001,-3.20714826463664e-001

3.03143313302078e+004,-1.20242000924825e+001,-3.25190740114113e-001

3.07375036257601e+004,-1.20242029124439e+001,-3.29729088750446e-001

3.11665831864199e+004,-1.20242058111110e+001,-3.34330741975753e-001

3.16016524745350e+004,-1.20242087906639e+001,-3.38996581449125e-001

3.20427951035848e+004,-1.20242118533421e+001,-3.43727501053557e-001

3.24900958542493e+004,-1.20242150014466e+001,-3.48524407058149e-001

3.29436406907028e+004,-1.20242182373402e+001,-3.53388218294104e-001

3.34035167771346e+004,-1.20242215634505e+001,-3.58319866319827e-001

3.38698124945009e+004,-1.20242249822712e+001,-3.63320295597480e-001

3.43426174575100e+004,-1.20242284963632e+001,-3.68390463670254e-001

3.48220225318448e+004,-1.20242321083572e+001,-3.73531341336976e-001

3.53081198516260e+004,-1.20242358209549e+001,-3.78743912837340e-001

3.58010028371187e+004,-1.20242396369315e+001,-3.84029176028914e-001

3.63007662126863e+004,-1.20242435591367e+001,-3.89388142579266e-001

3.68075060249948e+004,-1.20242475904975e+001,-3.94821838147782e-001

3.73213196614721e+004,-1.20242517340196e+001,-4.00331302578447e-001

3.78423058690237e+004,-1.20242559927899e+001,-4.05917590092501e-001

3.83705647730104e+004,-1.20242603699780e+001,-4.11581769482480e-001

3.89061978964912e+004,-1.20242648688391e+001,-4.17324924309438e-001

3.94493081797342e+004,-1.20242694927152e+001,-4.23148153105082e-001

3.99999999999998e+004,-1.20242742450383e+001,-4.29052569571575e-001

4.05583791916010e+004,-1.20242791293319e+001,-4.35039302787765e-001

4.11245530662425e+004,-1.20242841492139e+001,-4.41109497417798e-001

4.16986304336447e+004,-1.20242893083986e+001,-4.47264313918589e-001

4.22807216224550e+004,-1.20242946106991e+001,-4.53504928758183e-001

4.28709385014515e+004,-1.20243000600300e+001,-4.59832534625099e-001

4.34693945010421e+004,-1.20243056604101e+001,-4.66248340649819e-001

4.40762046350642e+004,-1.20243114159643e+001,-4.72753572626511e-001

4.46914855228886e+004,-1.20243173309268e+001,-4.79349473235143e-001

4.53153554118317e+004,-1.20243234096439e+001,-4.86037302269733e-001

4.59479341998812e+004,-1.20243296565759e+001,-4.92818336866054e-001

4.65893434587380e+004,-1.20243360763011e+001,-4.99693871734970e-001

4.72397064571810e+004,-1.20243426735179e+001,-5.06665219395860e-001

4.78991481847569e+004,-1.20243494530474e+001,-5.13733710418993e-001

4.85677953758016e+004,-1.20243564198375e+001,-5.20900693659151e-001

4.92457765337964e+004,-1.20243635789645e+001,-5.28167536508022e-001

4.99332219560642e+004,-1.20243709356377e+001,-5.35535625132377e-001

5.06302637588109e+004,-1.20243784952010e+001,-5.43006364731707e-001

5.13370359025159e+004,-1.20243862631374e+001,-5.50581179784491e-001

5.20536742176771e+004,-1.20243942450715e+001,-5.58261514307736e-001

5.27803164309155e+004,-1.20244024467731e+001,-5.66048832114532e-001

5.35171021914442e+004,-1.20244108741600e+001,-5.73944617077822e-001

5.42641730979066e+004,-1.20244195333025e+001,-5.81950373391661e-001

5.50216727255895e+004,-1.20244284304258e+001,-5.90067625843119e-001

5.57897466540159e+004,-1.20244375719143e+001,-5.98297920081271e-001

5.65685424949235e+004,-1.20244469643147e+001,-6.06642822893500e-001

5.73582099206328e+004,-1.20244566143396e+001,-6.15103922481784e-001

5.81589006928121e+004,-1.20244665288718e+001,-6.23682828743988e-001

5.89707686916437e+004,-1.20244767149670e+001,-6.32381173559467e-001

5.97939699453972e+004,-1.20244871798589e+001,-6.41200611073396e-001

6.06286626604156e+004,-1.20244979309617e+001,-6.50142817991074e-001

6.14750072515201e+004,-1.20245089758750e+001,-6.59209493869976e-001

6.23331663728396e+004,-1.20245203223872e+001,-6.68402361417944e-001

6.32033049490698e+004,-1.20245319784795e+001,-6.77723166793227e-001

6.40855902071694e+004,-1.20245439523300e+001,-6.87173679910434e-001

6.49801917084985e+004,-1.20245562523180e+001,-6.96755694746077e-001

6.58872813814055e+004,-1.20245688870275e+001,-7.06471029650322e-001

6.68070335542691e+004,-1.20245818652520e+001,-7.16321527662554e-001

6.77396249890018e+004,-1.20245951959977e+001,-7.26309056829104e-001

6.86852349150199e+004,-1.20246088884887e+001,-7.36435510523012e-001

6.96440450636895e+004,-1.20246229521707e+001,-7.46702807771964e-001

7.06162397032520e+004,-1.20246373967150e+001,-7.57112893583721e-001

7.16020056742374e+004,-1.20246522320232e+001,-7.67667739281054e-001

7.26015324253724e+004,-1.20246674682309e+001,-7.78369342836771e-001

7.36150120499896e+004,-1.20246831157124e+001,-7.89219729211626e-001

7.46426393229441e+004,-1.20246991850846e+001,-8.00220950699349e-001

7.56846117380472e+004,-1.20247156872114e+001,-8.11375087272349e-001

7.67411295460207e+004,-1.20247326332080e+001,-8.22684246931158e-001

7.78123957929823e+004,-1.20247500344444e+001,-8.34150566062218e-001

7.88986163594682e+004,-1.20247679025508e+001,-8.45776209790879e-001

7.99999999999995e+004,-1.20247862494203e+001,-8.57563372345695e-001

8.11167583832018e+004,-1.20248050872142e+001,-8.69514277423979e-001

8.22491061324848e+004,-1.20248244283649e+001,-8.81631178560833e-001

8.33972608672892e+004,-1.20248442855809e+001,-8.93916359500236e-001

8.45614432449099e+004,-1.20248646718502e+001,-9.06372134574587e-001

8.57418770029029e+004,-1.20248856004436e+001,-9.19000849084437e-001

8.69387890020841e+004,-1.20249070849193e+001,-9.31804879683341e-001

8.81524092701283e+004,-1.20249291391261e+001,-9.44786634765478e-001

8.93829710457770e+004,-1.20249517772066e+001,-9.57948554860358e-001

9.06307108236633e+004,-1.20249750136010e+001,-9.71293113027877e-001

9.18958683997622e+004,-1.20249988630499e+001,-9.84822815260386e-001

9.31786869174758e+004,-1.20250233405979e+001,-9.98540200885476e-001

9.44794129143618e+004,-1.20250484615956e+001,-1.01244784297831e+000

9.57982963695136e+004,-1.20250742417033e+001,-1.02654834877149e+000

9.71355907516031e+004,-1.20251006968925e+001,-1.04084436007464e+000

9.84915530675926e+004,-1.20251278434487e+001,-1.05533855369632e+000

9.98664439121282e+004,-1.20251556979733e+001,-1.07003364186769e+000

1.01260527517622e+005,-1.20251842773853e+001,-1.08493237267641e+000

1.02674071805032e+005,-1.20252135989227e+001,-1.10003753049862e+000

1.04107348435354e+005,-1.20252436801437e+001,-1.11535193644059e+000

1.05560632861831e+005,-1.20252745389273e+001,-1.13087844878169e+000

1.07034204382888e+005,-1.20253061934742e+001,-1.14661996342333e+000

1.08528346195813e+005,-1.20253386623065e+001,-1.16257941434335e+000

1.10043345451179e+005,-1.20253719642674e+001,-1.17875977405287e+000

1.11579493308032e+005,-1.20254061185208e+001,-1.19516405406148e+000

1.13137084989847e+005,-1.20254411445496e+001,-1.21179530534432e+000

1.14716419841265e+005,-1.20254770621547e+001,-1.22865661881522e+000

1.16317801385624e+005,-1.20255138914521e+001,-1.24575112580796e+000

1.17941537383287e+005,-1.20255516528706e+001,-1.26308199855757e+000

1.19587939890794e+005,-1.20255903671482e+001,-1.28065245069224e+000

1.21257325320831e+005,-1.20256300553291e+001,-1.29846573772708e+000

1.22950014503040e+005,-1.20256707387577e+001,-1.31652515756686e+000

1.24666332745679e+005,-1.20257124390745e+001,-1.33483405101324e+000

1.26406609898139e+005,-1.20257551782101e+001,-1.35339580227634e+000

1.28171180414339e+005,-1.20257989783782e+001,-1.37221383949689e+000

1.29960383416997e+005,-1.20258438620681e+001,-1.39129163527135e+000

1.31774562762811e+005,-1.20258898520370e+001,-1.41063270718559e+000

1.33614067108538e+005,-1.20259369713007e+001,-1.43024061835453e+000

1.35479249978003e+005,-1.20259852431232e+001,-1.45011897797014e+000

1.37370469830040e+005,-1.20260346910065e+001,-1.47027144185593e+000

1.39288090127379e+005,-1.20260853386780e+001,-1.49070171303090e+000

1.41232479406504e+005,-1.20261372100784e+001,-1.51141354227873e+000

1.43204011348474e+005,-1.20261903293470e+001,-1.53241072872817e+000

1.45203064850745e+005,-1.20262447208072e+001,-1.55369712044117e+000

1.47230024099979e+005,-1.20263004089503e+001,-1.57527661500855e+000

1.49285278645888e+005,-1.20263574184176e+001,-1.59715316015931e+000

1.51369223476094e+005,-1.20264157739826e+001,-1.61933075437463e+000

1.53482259092041e+005,-1.20264755005308e+001,-1.64181344751499e+000

1.55624791585964e+005,-1.20265366230385e+001,-1.66460534145964e+000

1.57797232718936e+005,-1.20265991665503e+001,-1.68771059075285e+000

1.59999999999999e+005,-1.20266631561558e+001,-1.71113340326508e+000

1.62233516766403e+005,-1.20267286169637e+001,-1.73487804086590e+000

1.64498212264969e+005,-1.20267955740753e+001,-1.75894882010923e+000

1.66794521734578e+005,-1.20268640525562e+001,-1.78335011293133e+000

1.69122886489819e+005,-1.20269340774070e+001,-1.80808634736327e+000

1.71483754005805e+005,-1.20270056735312e+001,-1.83316200825794e+000

1.73877578004168e+005,-1.20270788657030e+001,-1.85858163803274e+000

1.76304818540256e+005,-1.20271536785324e+001,-1.88434983742592e+000

1.78765942091554e+005,-1.20272301364292e+001,-1.91047126627239e+000

1.81261421647326e+005,-1.20273082635648e+001,-1.93695064429391e+000

1.83791736799524e+005,-1.20273880838332e+001,-1.96379275190986e+000

1.86357373834951e+005,-1.20274696208094e+001,-1.99100243106459e+000

1.88958825828723e+005,-1.20275528977063e+001,-2.01858458607497e+000

1.91596592739027e+005,-1.20276379373304e+001,-2.04654418450003e+000

1.94271181503206e+005,-1.20277247620350e+001,-2.07488625802846e+000

1.96983106135185e+005,-1.20278133936722e+001,-2.10361590339202e+000

1.99732887824256e+005,-1.20279038535430e+001,-2.13273828329826e+000

2.02521055035243e+005,-1.20279961623455e+001,-2.16225862739023e+000

2.05348143610063e+005,-1.20280903401217e+001,-2.19218223323022e+000

2.08214696870707e+005,-1.20281864062029e+001,-2.22251446730759e+000

2.11121265723661e+005,-1.20282843791523e+001,-2.25326076607548e+000

2.14068408765776e+005,-1.20283842767074e+001,-2.28442663701556e+000

2.17056692391625e+005,-1.20284861157201e+001,-2.31601765972991e+000

2.20086690902357e+005,-1.20285899120950e+001,-2.34803948706313e+000

2.23158986616063e+005,-1.20286956807275e+001,-2.38049784625685e+000

2.26274169979693e+005,-1.20288034354387e+001,-2.41339854013543e+000

2.29432839682530e+005,-1.20289131889109e+001,-2.44674744832206e+000

2.32635602771247e+005,-1.20290249526205e+001,-2.48055052849368e+000

2.35883074766574e+005,-1.20291387367705e+001,-2.51481381766670e+000

2.39175879781588e+005,-1.20292545502217e+001,-2.54954343352008e+000

2.42514650641661e+005,-1.20293724004232e+001,-2.58474557575673e+000

2.45900029006080e+005,-1.20294922933421e+001,-2.62042652749954e+000

2.49332665491357e+005,-1.20296142333923e+001,-2.65659265673055e+000

2.52813219796278e+005,-1.20297382233635e+001,-2.69325041776648e+000

2.56342360828676e+005,-1.20298642643491e+001,-2.73040635277527e+000

2.59920766833993e+005,-1.20299923556741e+001,-2.76806709333701e+000

2.63549125525621e+005,-1.20301224948237e+001,-2.80623936204333e+000

2.67228134217075e+005,-1.20302546773713e+001,-2.84492997414162e+000

2.70958499956006e+005,-1.20303888969072e+001,-2.88414583922419e+000

2.74740939660078e+005,-1.20305251449678e+001,-2.92389396295806e+000

2.78576180254757e+005,-1.20306634109656e+001,-2.96418144886426e+000

2.82464958813007e+005,-1.20308036821205e+001,-3.00501550013821e+000

2.86408022696948e+005,-1.20309459433918e+001,-3.04640342151865e+000

2.90406129701488e+005,-1.20310901774122e+001,-3.08835262120123e+000

2.94460048199957e+005,-1.20312363644230e+001,-3.13087061279805e+000

2.98570557291775e+005,-1.20313844822116e+001,-3.17396501734513e+000

3.02738446952187e+005,-1.20315345060509e+001,-3.21764356535402e+000

3.06964518184081e+005,-1.20316864086411e+001,-3.26191409891217e+000

3.11249583171928e+005,-1.20318401600550e+001,-3.30678457382646e+000

3.15594465437872e+005,-1.20319957276842e+001,-3.35226306181568e+000

3.19999999999997e+005,-1.20321530761911e+001,-3.39835775274513e+000

3.24467033532806e+005,-1.20323121674617e+001,-3.44507695690896e+000

3.28996424529938e+005,-1.20324729605640e+001,-3.49242910735446e+000

3.33589043469155e+005,-1.20326354117091e+001,-3.54042276225114e+000

3.38245772979638e+005,-1.20327994742168e+001,-3.58906660730139e+000

3.42967508011610e+005,-1.20329650984854e+001,-3.63836945819311e+000

3.47755156008335e+005,-1.20331322319659e+001,-3.68834026309314e+000

3.52609637080511e+005,-1.20333008191409e+001,-3.73898810517861e+000

3.57531884183106e+005,-1.20334708015087e+001,-3.79032220520765e+000

3.62522843294651e+005,-1.20336421175720e+001,-3.84235192412491e+000

3.67583473599047e+005,-1.20338147028320e+001,-3.89508676570332e+000

3.72714747669902e+005,-1.20339884897873e+001,-3.94853637921803e+000

3.77917651657445e+005,-1.20341634079395e+001,-4.00271056215236e+000

3.83193185478053e+005,-1.20343393838027e+001,-4.05761926293345e+000

3.88542363006410e+005,-1.20345163409197e+001,-4.11327258369539e+000

3.93966212270369e+005,-1.20346941998835e+001,-4.16968078306830e+000

3.99465775648511e+005,-1.20348728783642e+001,-4.22685427899189e+000

4.05042110070485e+005,-1.20350522911422e+001,-4.28480365155031e+000

4.10696287220124e+005,-1.20352323501461e+001,-4.34353964582676e+000

4.16429393741414e+005,-1.20354129644973e+001,-4.40307317477682e+000

4.22242531447321e+005,-1.20355940405587e+001,-4.46341532211696e+000

4.28136817531551e+005,-1.20357754819903e+001,-4.52457734522694e+000

4.34113384783250e+005,-1.20359571898088e+001,-4.58657067806379e+000

4.40173381804713e+005,-1.20361390624529e+001,-4.64940693408657e+000

4.46317973232124e+005,-1.20363209958535e+001,-4.71309790918760e+000

4.52548339959385e+005,-1.20365028835081e+001,-4.77765558463202e+000

4.58865679365059e+005,-1.20366846165603e+001,-4.84309212999957e+000

4.65271205542494e+005,-1.20368660838827e+001,-4.90941990613061e+000

4.71766149533147e+005,-1.20370471721646e+001,-4.97665146807326e+000

4.78351759563174e+005,-1.20372277660021e+001,-5.04479956803001e+000

4.85029301283321e+005,-1.20374077479924e+001,-5.11387715830512e+000

4.91800058012158e+005,-1.20375869988301e+001,-5.18389739424630e+000

4.98665330982714e+005,-1.20377653974071e+001,-5.25487363718631e+000

5.05626439592555e+005,-1.20379428209129e+001,-5.32681945738028e+000

5.12684721657352e+005,-1.20381191449382e+001,-5.39974863693669e+000

5.19841533667984e+005,-1.20382942435786e+001,-5.47367517274593e+000

5.27098251051240e+005,-1.20384679895399e+001,-5.54861327940321e+000

5.34456268434150e+005,-1.20386402542425e+001,-5.62457739212636e+000

5.41916999912011e+005,-1.20388109079276e+001,-5.70158216967009e+000

