Freq.,VOut,OutRef

1.00000000000000e+004,-8.96193725641437e+000,-1.26591736156006e-001

1.01395947979003e+004,-8.96193732799773e+000,-1.28358867849671e-001

1.02811382665607e+004,-8.96193740158983e+000,-1.30150666801232e-001

1.04246576084112e+004,-8.96193747724657e+000,-1.31967477313401e-001

1.05701804056138e+004,-8.96193755502592e+000,-1.33809648489987e-001

1.07177346253629e+004,-8.96193763498744e+000,-1.35677534307022e-001

1.08673486252606e+004,-8.96193771719180e+000,-1.37571493682465e-001

1.10190511587661e+004,-8.96193780170218e+000,-1.39491890538535e-001

1.11728713807222e+004,-8.96193788858296e+000,-1.41439093878065e-001

1.13288388529580e+004,-8.96193797790049e+000,-1.43413477852542e-001

1.14869835499703e+004,-8.96193806972298e+000,-1.45415421833407e-001

1.16473358646846e+004,-8.96193816412038e+000,-1.47445310486829e-001

1.18099266142953e+004,-8.96193826116467e+000,-1.49503533845645e-001

1.19747870461893e+004,-8.96193836093009e+000,-1.51590487383556e-001

1.21419488439505e+004,-8.96193846349265e+000,-1.53706572093604e-001

1.23114441334492e+004,-8.96193856893057e+000,-1.55852194563120e-001

1.24833054890161e+004,-8.96193867732417e+000,-1.58027767053118e-001

1.26575659397028e+004,-8.96193878875594e+000,-1.60233707576406e-001

1.28342589756290e+004,-8.96193890331091e+000,-1.62470439976801e-001

1.30134185544193e+004,-8.96193902107635e+000,-1.64738394011865e-001

1.31950791077289e+004,-8.96193914214204e+000,-1.67038005434691e-001

1.33792755478611e+004,-8.96193926659993e+000,-1.69369716079666e-001

1.35660432744767e+004,-8.96193939454490e+000,-1.71733973942418e-001

1.37554181813974e+004,-8.96193952607426e+000,-1.74131233270414e-001

1.39474366635040e+004,-8.96193966128809e+000,-1.76561954647072e-001

1.41421356237309e+004,-8.96193980028897e+000,-1.79026605083205e-001

1.43395524801583e+004,-8.96193994318309e+000,-1.81525658099620e-001

1.45397251732031e+004,-8.96194009007844e+000,-1.84059593829515e-001

1.47426921729110e+004,-8.96194024108717e+000,-1.86628899096696e-001

1.49484924863494e+004,-8.96194039632351e+000,-1.89234067522125e-001

1.51571656651040e+004,-8.96194055590569e+000,-1.91875599606697e-001

1.53687518128801e+004,-8.96194071995462e+000,-1.94554002837001e-001

1.55832915932100e+004,-8.96194088859457e+000,-1.97269791777159e-001

1.58008262372675e+004,-8.96194106195393e+000,-2.00023488165032e-001

1.60213975517924e+004,-8.96194124016366e+000,-2.02815621021468e-001

1.62450479271247e+004,-8.96194142335905e+000,-2.05646726740815e-001

1.64718203453514e+004,-8.96194161167880e+000,-2.08517349200732e-001

1.67017583885674e+004,-8.96194180526557e+000,-2.11428039864003e-001

1.69349062472505e+004,-8.96194200426567e+000,-2.14379357885224e-001

1.71713087287550e+004,-8.96194220882994e+000,-2.17371870214081e-001

1.74110112659224e+004,-8.96194241911274e+000,-2.20406151710561e-001

1.76540599258131e+004,-8.96194263527311e+000,-2.23482785249364e-001

1.79005014185594e+004,-8.96194285747456e+000,-2.26602361831424e-001

1.81503831063432e+004,-8.96194308588457e+000,-2.29765480702483e-001

1.84037530124975e+004,-8.96194332067562e+000,-2.32972749462257e-001

1.86606598307361e+004,-8.96194356202487e+000,-2.36224784182109e-001

1.89211529345119e+004,-8.96194381011426e+000,-2.39522209524373e-001

1.91852823865052e+004,-8.96194406513060e+000,-2.42865658860961e-001

1.94530989482457e+004,-8.96194432726599e+000,-2.46255774394293e-001

1.97246540898671e+004,-8.96194459671773e+000,-2.49693207279465e-001

1.99999999999999e+004,-8.96194487368829e+000,-2.53178617751403e-001

2.02791895958005e+004,-8.96194515838617e+000,-2.56712675246053e-001

2.05622765331213e+004,-8.96194545102494e+000,-2.60296058535207e-001

2.08493152168224e+004,-8.96194575182432e+000,-2.63929455850121e-001

2.11403608112276e+004,-8.96194606101014e+000,-2.67613565015321e-001

2.14354692507258e+004,-8.96194637881400e+000,-2.71349093583757e-001

2.17346972505211e+004,-8.96194670547407e+000,-2.75136758968841e-001

2.20381023175322e+004,-8.96194704123474e+000,-2.78977288584109e-001

2.23457427614443e+004,-8.96194738634721e+000,-2.82871419979806e-001

2.26576777059159e+004,-8.96194774106937e+000,-2.86819900985899e-001

2.29739670999406e+004,-8.96194810566617e+000,-2.90823489852649e-001

2.32946717293690e+004,-8.96194848040954e+000,-2.94882955397787e-001

2.36198532285905e+004,-8.96194886557904e+000,-2.98999077150182e-001

2.39495740923785e+004,-8.96194926146142e+000,-3.03172645502386e-001

2.42838976879009e+004,-8.96194966835144e+000,-3.07404461857567e-001

2.46228882668982e+004,-8.96195008655139e+000,-3.11695338785935e-001

2.49666109780322e+004,-8.96195051637199e+000,-3.16046100176631e-001

2.53151318794055e+004,-8.96195095813226e+000,-3.20457581395765e-001

2.56685179512580e+004,-8.96195141215959e+000,-3.24930629447009e-001

2.60268371088386e+004,-8.96195187879026e+000,-3.29466103130960e-001

2.63901582154578e+004,-8.96195235836935e+000,-3.34064873210781e-001

2.67585510957221e+004,-8.96195285125129e+000,-3.38727822575948e-001

2.71320865489533e+004,-8.96195335779985e+000,-3.43455846411631e-001

2.75108363627948e+004,-8.96195387838839e+000,-3.48249852369364e-001

2.78948733270080e+004,-8.96195441340033e+000,-3.53110760738570e-001

2.82842712474618e+004,-8.96195496322893e+000,-3.58039504623528e-001

2.86791049603164e+004,-8.96195552827812e+000,-3.63037030118649e-001

2.90794503464061e+004,-8.96195610896236e+000,-3.68104296489599e-001

2.94853843458219e+004,-8.96195670570686e+000,-3.73242276356404e-001

2.98969849726987e+004,-8.96195731894831e+000,-3.78451955875805e-001

3.03143313302078e+004,-8.96195794913436e+000,-3.83734334932929e-001

3.07375036257601e+004,-8.96195859672483e+000,-3.89090427325439e-001

3.11665831864199e+004,-8.96195926219118e+000,-3.94521260961533e-001

3.16016524745350e+004,-8.96195994601719e+000,-4.00027878051817e-001

3.20427951035848e+004,-8.96196064869934e+000,-4.05611335307517e-001

3.24900958542493e+004,-8.96196137074671e+000,-4.11272704142469e-001

3.29436406907028e+004,-8.96196211268181e+000,-4.17013070873079e-001

3.34035167771346e+004,-8.96196287504025e+000,-4.22833536929040e-001

3.38698124945009e+004,-8.96196365837156e+000,-4.28735219057520e-001

3.43426174575100e+004,-8.96196446323927e+000,-4.34719249537367e-001

3.48220225318448e+004,-8.96196529022145e+000,-4.40786776391464e-001

3.53081198516260e+004,-8.96196613991069e+000,-4.46938963605840e-001

3.58010028371187e+004,-8.96196701291453e+000,-4.53176991350365e-001

3.63007662126863e+004,-8.96196790985615e+000,-4.59502056198407e-001

3.68075060249948e+004,-8.96196883137411e+000,-4.65915371357257e-001

3.73213196614721e+004,-8.96196977812316e+000,-4.72418166894824e-001

3.78423058690237e+004,-8.96197075077431e+000,-4.79011689972597e-001

3.83705647730104e+004,-8.96197175001547e+000,-4.85697205080889e-001

3.89061978964912e+004,-8.96197277655127e+000,-4.92475994278842e-001

3.94493081797342e+004,-8.96197383110423e+000,-4.99349357432554e-001

3.99999999999998e+004,-8.96197491441416e+000,-5.06318612465052e-001

4.05583791916010e+004,-8.96197602723915e+000,-5.13385095601572e-001

4.11245530662425e+004,-8.96197717035597e+000,-5.20550161620030e-001

4.16986304336447e+004,-8.96197834456011e+000,-5.27815184108824e-001

4.22807216224550e+004,-8.96197955066599e+000,-5.35181555725725e-001

4.28709385014515e+004,-8.96198078950812e+000,-5.42650688454396e-001

4.34693945010421e+004,-8.96198206194043e+000,-5.50224013877018e-001

4.40762046350642e+004,-8.96198336883757e+000,-5.57902983436502e-001

4.46914855228886e+004,-8.96198471109452e+000,-5.65689068713862e-001

4.53153554118317e+004,-8.96198608962752e+000,-5.73583761701098e-001

4.59479341998812e+004,-8.96198750537407e+000,-5.81588575082152e-001

4.65893434587380e+004,-8.96198895929352e+000,-5.89705042515659e-001

4.72397064571810e+004,-8.96199045236708e+000,-5.97934718923978e-001

4.78991481847569e+004,-8.96199198559876e+000,-6.06279180780082e-001

4.85677953758016e+004,-8.96199356001500e+000,-6.14740026407027e-001

4.92457765337964e+004,-8.96199517666571e+000,-6.23318876272358e-001

4.99332219560642e+004,-8.96199683662406e+000,-6.32017373293651e-001

5.06302637588109e+004,-8.96199854098696e+000,-6.40837183144019e-001

5.13370359025159e+004,-8.96200029087564e+000,-6.49779994561230e-001

5.20536742176771e+004,-8.96200208743557e+000,-6.58847519664413e-001

5.27803164309155e+004,-8.96200393183699e+000,-6.68041494271674e-001

5.35171021914442e+004,-8.96200582527520e+000,-6.77363678222202e-001

5.42641730979066e+004,-8.96200776897073e+000,-6.86815855704581e-001

5.50216727255895e+004,-8.96200976416942e+000,-6.96399835588440e-001

5.57897466540159e+004,-8.96201181214304e+000,-7.06117451758266e-001

5.65685424949235e+004,-8.96201391418943e+000,-7.15970563453148e-001

5.73582099206328e+004,-8.96201607163226e+000,-7.25961055614806e-001

5.81589006928121e+004,-8.96201828582175e+000,-7.36090839231517e-001

5.89707686916437e+004,-8.96202055813462e+000,-7.46361851693683e-001

5.97939699453972e+004,-8.96202288997382e+000,-7.56776057153616e-001

6.06286626604156e+004,-8.96202528276942e+000,-7.67335446883521e-001

6.14750072515201e+004,-8.96202773797777e+000,-7.78042039646657e-001

6.23331663728396e+004,-8.96203025708230e+000,-7.88897882066052e-001

6.32033049490698e+004,-8.96203284159302e+000,-7.99905049003068e-001

6.40855902071694e+004,-8.96203549304635e+000,-8.11065643939387e-001

6.49801917084985e+004,-8.96203821300563e+000,-8.22381799359375e-001

6.58872813814055e+004,-8.96204100306033e+000,-8.33855677145944e-001

6.68070335542691e+004,-8.96204386482602e+000,-8.45489468974474e-001

6.77396249890018e+004,-8.96204679994444e+000,-8.57285396712375e-001

6.86852349150199e+004,-8.96204981008270e+000,-8.69245712828595e-001

6.96440450636895e+004,-8.96205289693312e+000,-8.81372700803034e-001

7.06162397032520e+004,-8.96205606221270e+000,-8.93668675543771e-001

7.16020056742374e+004,-8.96205930766279e+000,-9.06135983807732e-001

7.26015324253724e+004,-8.96206263504832e+000,-9.18777004629082e-001

7.36150120499896e+004,-8.96206604615677e+000,-9.31594149752971e-001

7.46426393229441e+004,-8.96206954279818e+000,-9.44589864070140e-001

7.56846117380472e+004,-8.96207312680360e+000,-9.57766626062617e-001

7.67411295460207e+004,-8.96207680002427e+000,-9.71126948253445e-001

7.78123957929823e+004,-8.96208056433079e+000,-9.84673377659123e-001

7.88986163594682e+004,-8.96208442161156e+000,-9.98408496251862e-001

7.99999999999995e+004,-8.96208837377161e+000,-1.01233492142504e+000

8.11167583832018e+004,-8.96209242273124e+000,-1.02645530646496e+000

8.22491061324848e+004,-8.96209657042428e+000,-1.04077234102856e+000

8.33972608672892e+004,-8.96210081879641e+000,-1.05528875162813e+000

8.45614432449099e+004,-8.96210516980329e+000,-1.07000730211970e+000

8.57418770029029e+004,-8.96210962540846e+000,-1.08493079420038e+000

8.69387890020841e+004,-8.96211418758119e+000,-1.10006206790892e+000

8.81524092701283e+004,-8.96211885829380e+000,-1.11540400213648e+000

8.93829710457770e+004,-8.96212363951958e+000,-1.13095951513756e+000

9.06307108236633e+004,-8.96212853322935e+000,-1.14673156505530e+000

9.18958683997622e+004,-8.96213354138887e+000,-1.16272315044569e+000

9.31786869174758e+004,-8.96213866595544e+000,-1.17893731081340e+000

9.44794129143618e+004,-8.96214390887430e+000,-1.19537712715246e+000

9.57982963695136e+004,-8.96214927207508e+000,-1.21204572249309e+000

9.71355907516031e+004,-8.96215475746765e+000,-1.22894626245614e+000

9.84915530675926e+004,-8.96216036693776e+000,-1.24608195581529e+000

9.98664439121282e+004,-8.96216610234258e+000,-1.26345605506438e+000

1.01260527517622e+005,-8.96217196550560e+000,-1.28107185699364e+000

1.02674071805032e+005,-8.96217795821165e+000,-1.29893270327107e+000

1.04107348435354e+005,-8.96218408220092e+000,-1.31704198103440e+000

1.05560632861831e+005,-8.96219033916336e+000,-1.33540312348669e+000

1.07034204382888e+005,-8.96219673073221e+000,-1.35401961050189e+000

1.08528346195813e+005,-8.96220325847713e+000,-1.37289496923866e+000

1.10043345451179e+005,-8.96220992389727e+000,-1.39203277475878e+000

1.11579493308032e+005,-8.96221672841352e+000,-1.41143665065717e+000

1.13137084989847e+005,-8.96222367336039e+000,-1.43111026969778e+000

1.14716419841265e+005,-8.96223075997762e+000,-1.45105735445865e+000

1.16317801385624e+005,-8.96223798940096e+000,-1.47128167798463e+000

1.17941537383287e+005,-8.96224536265278e+000,-1.49178706444845e+000

1.19587939890794e+005,-8.96225288063178e+000,-1.51257738982155e+000

1.21257325320831e+005,-8.96226054410223e+000,-1.53365658255370e+000

1.22950014503040e+005,-8.96226835368282e+000,-1.55502862425958e+000

1.24666332745679e+005,-8.96227630983459e+000,-1.57669755041688e+000

1.26406609898139e+005,-8.96228441284836e+000,-1.59866745107297e+000

1.28171180414339e+005,-8.96229266283148e+000,-1.62094247156021e+000

1.29960383416997e+005,-8.96230105969359e+000,-1.64352681322355e+000

1.31774562762811e+005,-8.96230960313235e+000,-1.66642473415407e+000

1.33614067108538e+005,-8.96231829261740e+000,-1.68964054993728e+000

1.35479249978003e+005,-8.96232712737438e+000,-1.71317863440852e+000

1.37370469830040e+005,-8.96233610636765e+000,-1.73704342042042e+000

1.39288090127379e+005,-8.96234522828239e+000,-1.76123940062061e+000

1.41232479406504e+005,-8.96235449150551e+000,-1.78577112824257e+000

1.43204011348474e+005,-8.96236389410601e+000,-1.81064321790503e+000

1.45203064850745e+005,-8.96237343381396e+000,-1.83586034642592e+000

1.47230024099979e+005,-8.96238310799887e+000,-1.86142725364648e+000

1.49285278645888e+005,-8.96239291364703e+000,-1.88734874326800e+000

1.51369223476094e+005,-8.96240284733721e+000,-1.91362968370321e+000

1.53482259092041e+005,-8.96241290521600e+000,-1.94027500893851e+000

1.55624791585964e+005,-8.96242308297162e+000,-1.96728971941095e+000

1.57797232718936e+005,-8.96243337580664e+000,-1.99467888289848e+000

1.59999999999999e+005,-8.96244377840953e+000,-2.02244763542466e+000

1.62233516766403e+005,-8.96245428492506e+000,-2.05060118217799e+000

1.64498212264969e+005,-8.96246488892307e+000,-2.07914479844707e+000

1.66794521734578e+005,-8.96247558336665e+000,-2.10808383056938e+000

1.69122886489819e+005,-8.96248636057806e+000,-2.13742369689876e+000

1.71483754005805e+005,-8.96249721220407e+000,-2.16716988878744e+000

1.73877578004168e+005,-8.96250812917977e+000,-2.19732797158447e+000

1.76304818540256e+005,-8.96251910169044e+000,-2.22790358565449e+000

1.78765942091554e+005,-8.96253011913252e+000,-2.25890244741251e+000

1.81261421647326e+005,-8.96254117007311e+000,-2.29033035037606e+000

1.83791736799524e+005,-8.96255224220741e+000,-2.32219316624024e+000

1.86357373834951e+005,-8.96256332231527e+000,-2.35449684596922e+000

1.88958825828723e+005,-8.96257439621595e+000,-2.38724742090905e+000

1.91596592739027e+005,-8.96258544872106e+000,-2.42045100392274e+000

1.94271181503206e+005,-8.96259646358643e+000,-2.45411379054489e+000

1.96983106135185e+005,-8.96260742346180e+000,-2.48824206016060e+000

1.99732887824256e+005,-8.96261830983939e+000,-2.52284217720628e+000

2.02521055035243e+005,-8.96262910300045e+000,-2.55792059239413e+000

2.05348143610063e+005,-8.96263978196063e+000,-2.59348384396128e+000

2.08214696870707e+005,-8.96265032441320e+000,-2.62953855894435e+000

2.11121265723661e+005,-8.96266070667082e+000,-2.66609145448015e+000

2.14068408765776e+005,-8.96267090360614e+000,-2.70314933913048e+000

2.17056692391625e+005,-8.96268088858977e+000,-2.74071911423881e+000

2.20086690902357e+005,-8.96269063342779e+000,-2.77880777531042e+000

2.23158986616063e+005,-8.96270010829667e+000,-2.81742241342500e+000

2.26274169979693e+005,-8.96270928167725e+000,-2.85657021667699e+000

2.29432839682530e+005,-8.96271812028676e+000,-2.89625847164760e+000

2.32635602771247e+005,-8.96272658900974e+000,-2.93649456490620e+000

2.35883074766574e+005,-8.96273465082697e+000,-2.97728598454649e+000

2.39175879781588e+005,-8.96274226674322e+000,-3.01864032175412e+000

2.42514650641661e+005,-8.96274939571364e+000,-3.06056527240661e+000

2.45900029006080e+005,-8.96275599456854e+000,-3.10306863871092e+000

2.49332665491357e+005,-8.96276201793711e+000,-3.14615833087324e+000

2.52813219796278e+005,-8.96276741816952e+000,-3.18984236880663e+000

2.56342360828676e+005,-8.96277214525844e+000,-3.23412888387345e+000

2.59920766833993e+005,-8.96277614675861e+000,-3.27902612066844e+000

2.63549125525621e+005,-8.96277936770605e+000,-3.32454243883559e+000

2.67228134217075e+005,-8.96278175053593e+000,-3.37068631492772e+000

2.70958499956006e+005,-8.96278323499958e+000,-3.41746634430341e+000

2.74740939660078e+005,-8.96278375808065e+000,-3.46489124306429e+000

2.78576180254757e+005,-8.96278325391091e+000,-3.51296985003320e+000

2.82464958813007e+005,-8.96278165368469e+000,-3.56171112877359e+000

2.86408022696948e+005,-8.96277888557340e+000,-3.61112416965095e+000

2.90406129701488e+005,-8.96277487463933e+000,-3.66121819193498e+000

2.94460048199957e+005,-8.96276954274914e+000,-3.71200254594699e+000

2.98570557291775e+005,-8.96276280848718e+000,-3.76348671524689e+000

3.02738446952187e+005,-8.96275458706849e+000,-3.81568031886675e+000

3.06964518184081e+005,-8.96274479025181e+000,-3.86859311358602e+000

3.11249583171928e+005,-8.96273332625283e+000,-3.92223499625106e+000

3.15594465437872e+005,-8.96272009965739e+000,-3.97661600613826e+000

3.19999999999997e+005,-8.96270501133498e+000,-4.03174632736205e+000

3.24467033532806e+005,-8.96268795835266e+000,-4.08763629132666e+000

3.28996424529938e+005,-8.96266883388926e+000,-4.14429637922166e+000

3.33589043469155e+005,-8.96264752715043e+000,-4.20173722456214e+000

3.38245772979638e+005,-8.96262392328398e+000,-4.25996961577229e+000

3.42967508011610e+005,-8.96259790329609e+000,-4.31900449881314e+000

3.47755156008335e+005,-8.96256934396826e+000,-4.37885297985392e+000

3.52609637080511e+005,-8.96253811777508e+000,-4.43952632798596e+000

3.57531884183106e+005,-8.96250409280295e+000,-4.50103597798056e+000

3.62522843294651e+005,-8.96246713266963e+000,-4.56339353308874e+000

3.67583473599047e+005,-8.96242709644481e+000,-4.62661076788274e+000

3.72714747669902e+005,-8.96238383857169e+000,-4.69069963114014e+000

3.77917651657445e+005,-8.96233720878960e+000,-4.75567224876821e+000

3.83193185478053e+005,-8.96228705205745e+000,-4.82154092676930e+000

3.88542363006410e+005,-8.96223320847835e+000,-4.88831815424622e+000

3.93966212270369e+005,-8.96217551322514e+000,-4.95601660644695e+000

3.99465775648511e+005,-8.96211379646673e+000,-5.02464914784794e+000

4.05042110070485e+005,-8.96204788329541e+000,-5.09422883527633e+000

4.10696287220124e+005,-8.96197759365479e+000,-5.16476892106957e+000

4.16429393741414e+005,-8.96190274226863e+000,-5.23628285627103e+000

4.22242531447321e+005,-8.96182313856995e+000,-5.30878429386438e+000

4.28136817531551e+005,-8.96173858663077e+000,-5.38228709204195e+000

4.34113384783250e+005,-8.96164888509210e+000,-5.45680531750908e+000

4.40173381804713e+005,-8.96155382709398e+000,-5.53235324882421e+000

4.46317973232124e+005,-8.96145320020544e+000,-5.60894537977298e+000

4.52548339959385e+005,-8.96134678635445e+000,-5.68659642277597e+000

4.58865679365059e+005,-8.96123436175698e+000,-5.76532131233262e+000

4.65271205542494e+005,-8.96111569684564e+000,-5.84513520849646e+000

4.71766149533147e+005,-8.96099055619737e+000,-5.92605350038563e+000

4.78351759563174e+005,-8.96085869845968e+000,-6.00809180972746e+000

4.85029301283321e+005,-8.96071987627566e+000,-6.09126599443536e+000

4.91800058012158e+005,-8.96057383620699e+000,-6.17559215222171e+000

4.98665330982714e+005,-8.96042031865494e+000,-6.26108662424448e+000

5.05626439592555e+005,-8.96025905777900e+000,-6.34776599878880e+000

5.12684721657352e+005,-8.96008978141266e+000,-6.43564711498430e+000

5.19841533667984e+005,-8.95991221097624e+000,-6.52474706655877e+000

5.27098251051240e+005,-8.95972606138623e+000,-6.61508320562990e+000

5.34456268434150e+005,-8.95953104096077e+000,-6.70667314653531e+000

5.41916999912011e+005,-8.95932685132134e+000,-6.79953476970090e+000

