Freq.,VOut,OutRef

1.00000000000000e+004,-1.84463615320026e+001,-2.20162526828026e-001

1.01395947979003e+004,-1.84463625042158e+001,-2.23235805992036e-001

1.02811382665607e+004,-1.84463635037496e+001,-2.26351983343761e-001

1.04246576084112e+004,-1.84463645313716e+001,-2.29511657583557e-001

1.05701804056138e+004,-1.84463655878706e+001,-2.32715435765146e-001

1.07177346253629e+004,-1.84463666740580e+001,-2.35963933408026e-001

1.08673486252606e+004,-1.84463677907672e+001,-2.39257774620921e-001

1.10190511587661e+004,-1.84463689388559e+001,-2.42597592214287e-001

1.11728713807222e+004,-1.84463701192050e+001,-2.45984027830336e-001

1.13288388529580e+004,-1.84463713327209e+001,-2.49417732056889e-001

1.14869835499703e+004,-1.84463725803346e+001,-2.52899364559812e-001

1.16473358646846e+004,-1.84463738630041e+001,-2.56429594202381e-001

1.18099266142953e+004,-1.84463751817136e+001,-2.60009099179402e-001

1.19747870461893e+004,-1.84463765374752e+001,-2.63638567144227e-001

1.21419488439505e+004,-1.84463779313293e+001,-2.67318695339687e-001

1.23114441334492e+004,-1.84463793643456e+001,-2.71050190733325e-001

1.24833054890161e+004,-1.84463808376235e+001,-2.74833770153328e-001

1.26575659397028e+004,-1.84463823522937e+001,-2.78670160421908e-001

1.28342589756290e+004,-1.84463839095182e+001,-2.82560098499786e-001

1.30134185544193e+004,-1.84463855104917e+001,-2.86504331622617e-001

1.31950791077289e+004,-1.84463871564425e+001,-2.90503617447267e-001

1.33792755478611e+004,-1.84463888486331e+001,-2.94558724194978e-001

1.35660432744767e+004,-1.84463905883617e+001,-2.98670430798973e-001

1.37554181813974e+004,-1.84463923769626e+001,-3.02839527052640e-001

1.39474366635040e+004,-1.84463942158078e+001,-3.07066813761501e-001

1.41421356237309e+004,-1.84463961063073e+001,-3.11353102897535e-001

1.43395524801583e+004,-1.84463980499111e+001,-3.15699217751525e-001

1.45397251732031e+004,-1.84464000481095e+001,-3.20105993092900e-001

1.47426921729110e+004,-1.84464021024347e+001,-3.24574275328500e-001

1.49484924863494e+004,-1.84464042144617e+001,-3.29104922663796e-001

1.51571656651040e+004,-1.84464063858099e+001,-3.33698805267636e-001

1.53687518128801e+004,-1.84464086181436e+001,-3.38356805439301e-001

1.55832915932100e+004,-1.84464109131740e+001,-3.43079817775467e-001

1.58008262372675e+004,-1.84464132726604e+001,-3.47868749340921e-001

1.60213975517924e+004,-1.84464156984108e+001,-3.52724519844399e-001

1.62450479271247e+004,-1.84464181922844e+001,-3.57648061811783e-001

1.64718203453514e+004,-1.84464207561922e+001,-3.62640320764247e-001

1.67017583885674e+004,-1.84464233920985e+001,-3.67702255400853e-001

1.69349062472505e+004,-1.84464261020229e+001,-3.72834837778456e-001

1.71713087287550e+004,-1.84464288880411e+001,-3.78039053500851e-001

1.74110112659224e+004,-1.84464317522875e+001,-3.83315901902425e-001

1.76540599258131e+004,-1.84464346969557e+001,-3.88666396242630e-001

1.79005014185594e+004,-1.84464377243007e+001,-3.94091563898223e-001

1.81503831063432e+004,-1.84464408366407e+001,-3.99592446557382e-001

1.84037530124975e+004,-1.84464440363585e+001,-4.05170100421202e-001

1.86606598307361e+004,-1.84464473259041e+001,-4.10825596400993e-001

1.89211529345119e+004,-1.84464507077953e+001,-4.16560020327222e-001

1.91852823865052e+004,-1.84464541846206e+001,-4.22374473153185e-001

1.94530989482457e+004,-1.84464577590408e+001,-4.28270071164042e-001

1.97246540898671e+004,-1.84464614337909e+001,-4.34247946192719e-001

1.99999999999999e+004,-1.84464652116827e+001,-4.40309245831663e-001

2.02791895958005e+004,-1.84464690956058e+001,-4.46455133655114e-001

2.05622765331213e+004,-1.84464730885313e+001,-4.52686789435781e-001

2.08493152168224e+004,-1.84464771935128e+001,-4.59005409373074e-001

2.11403608112276e+004,-1.84464814136892e+001,-4.65412206319257e-001

2.14354692507258e+004,-1.84464857522870e+001,-4.71908410009606e-001

2.17346972505211e+004,-1.84464902126228e+001,-4.78495267296560e-001

2.20381023175322e+004,-1.84464947981056e+001,-4.85174042387431e-001

2.23457427614443e+004,-1.84464995122396e+001,-4.91946017081580e-001

2.26576777059159e+004,-1.84465043586266e+001,-4.98812491017564e-001

2.29739670999406e+004,-1.84465093409689e+001,-5.05774781917210e-001

2.32946717293690e+004,-1.84465144630719e+001,-5.12834225836573e-001

2.36198532285905e+004,-1.84465197288470e+001,-5.19992177419108e-001

2.39495740923785e+004,-1.84465251423148e+001,-5.27250010152587e-001

2.42838976879009e+004,-1.84465307076076e+001,-5.34609116628493e-001

2.46228882668982e+004,-1.84465364289729e+001,-5.42070908808265e-001

2.49666109780322e+004,-1.84465423107763e+001,-5.49636818287215e-001

2.53151318794055e+004,-1.84465483575049e+001,-5.57308296569125e-001

2.56685179512580e+004,-1.84465545737709e+001,-5.65086815338057e-001

2.60268371088386e+004,-1.84465609643143e+001,-5.72973866737679e-001

2.63901582154578e+004,-1.84465675340073e+001,-5.80970963653653e-001

2.67585510957221e+004,-1.84465742878572e+001,-5.89079639999490e-001

2.71320865489533e+004,-1.84465812310107e+001,-5.97301451005036e-001

2.75108363627948e+004,-1.84465883687572e+001,-6.05637973512417e-001

2.78948733270080e+004,-1.84465957065331e+001,-6.14090806271850e-001

2.82842712474618e+004,-1.84466032499256e+001,-6.22661570242193e-001

2.86791049603164e+004,-1.84466110046771e+001,-6.31351908899527e-001

2.90794503464061e+004,-1.84466189766890e+001,-6.40163488543987e-001

2.94853843458219e+004,-1.84466271720266e+001,-6.49097998614288e-001

2.98969849726987e+004,-1.84466355969229e+001,-6.58157152007122e-001

3.03143313302078e+004,-1.84466442577842e+001,-6.67342685396683e-001

3.07375036257601e+004,-1.84466531611934e+001,-6.76656359563959e-001

3.11665831864199e+004,-1.84466623139162e+001,-6.86099959725247e-001

3.16016524745350e+004,-1.84466717229054e+001,-6.95675295867077e-001

3.20427951035848e+004,-1.84466813953058e+001,-7.05384203088843e-001

3.24900958542493e+004,-1.84466913384601e+001,-7.15228541943283e-001

3.29436406907028e+004,-1.84467015599134e+001,-7.25210198787453e-001

3.34035167771346e+004,-1.84467120674196e+001,-7.35331086134998e-001

3.38698124945009e+004,-1.84467228689463e+001,-7.45593143013148e-001

3.43426174575100e+004,-1.84467339726810e+001,-7.55998335328063e-001

3.48220225318448e+004,-1.84467453870370e+001,-7.66548656228638e-001

3.53081198516260e+004,-1.84467571206595e+001,-7.77246126480367e-001

3.58010028371187e+004,-1.84467691824317e+001,-7.88092794842438e-001

3.63007662126863e+004,-1.84467815814813e+001,-7.99090738449782e-001

3.68075060249948e+004,-1.84467943271870e+001,-8.10242063198669e-001

3.73213196614721e+004,-1.84468074291856e+001,-8.21548904139584e-001

3.78423058690237e+004,-1.84468208973786e+001,-8.33013425874025e-001

3.83705647730104e+004,-1.84468347419392e+001,-8.44637822955778e-001

3.89061978964912e+004,-1.84468489733198e+001,-8.56424320300214e-001

3.94493081797342e+004,-1.84468636022596e+001,-8.68375173593944e-001

3.99999999999998e+004,-1.84468786397919e+001,-8.80492669714866e-001

4.05583791916010e+004,-1.84468940972521e+001,-8.92779127154725e-001

4.11245530662425e+004,-1.84469099862858e+001,-9.05236896447293e-001

4.16986304336447e+004,-1.84469263188569e+001,-9.17868360602937e-001

4.22807216224550e+004,-1.84469431072563e+001,-9.30675935547976e-001

4.28709385014515e+004,-1.84469603641103e+001,-9.43662070569711e-001

4.34693945010421e+004,-1.84469781023895e+001,-9.56829248767709e-001

4.40762046350642e+004,-1.84469963354181e+001,-9.70179987510432e-001

4.46914855228886e+004,-1.84470150768829e+001,-9.83716838896792e-001

4.53153554118317e+004,-1.84470343408434e+001,-9.97442390224031e-001

4.59479341998812e+004,-1.84470541417405e+001,-1.01135926446439e+000

4.65893434587380e+004,-1.84470744944078e+001,-1.02547012074070e+000

4.72397064571810e+004,-1.84470954140811e+001,-1.03977765481640e+000

4.78991481847569e+004,-1.84471169164088e+001,-1.05428459958505e+000

4.85677953758016e+004,-1.84471390174632e+001,-1.06899372556902e+000

4.92457765337964e+004,-1.84471617337510e+001,-1.08390784142356e+000

4.99332219560642e+004,-1.84471850822248e+001,-1.09902979444829e+000

5.06302637588109e+004,-1.84472090802946e+001,-1.11436247110295e+000

5.13370359025159e+004,-1.84472337458396e+001,-1.12990879752950e+000

5.20536742176771e+004,-1.84472590972200e+001,-1.14567174008478e+000

5.27803164309155e+004,-1.84472851532902e+001,-1.16165430587221e+000

5.35171021914442e+004,-1.84473119334100e+001,-1.17785954328834e+000

5.42641730979066e+004,-1.84473394574590e+001,-1.19429054256852e+000

5.50216727255895e+004,-1.84473677458488e+001,-1.21095043634406e+000

5.57897466540159e+004,-1.84473968195370e+001,-1.22784240020520e+000

5.65685424949235e+004,-1.84474267000408e+001,-1.24496965326793e+000

5.73582099206328e+004,-1.84474574094513e+001,-1.26233545875163e+000

5.81589006928121e+004,-1.84474889704477e+001,-1.27994312456147e+000

5.89707686916437e+004,-1.84475214063121e+001,-1.29779600387682e+000

5.97939699453972e+004,-1.84475547409448e+001,-1.31589749574879e+000

6.06286626604156e+004,-1.84475889988792e+001,-1.33425104570383e+000

6.14750072515201e+004,-1.84476242052980e+001,-1.35286014635291e+000

6.23331663728396e+004,-1.84476603860489e+001,-1.37172833801105e+000

6.32033049490698e+004,-1.84476975676611e+001,-1.39085920932070e+000

6.40855902071694e+004,-1.84477357773621e+001,-1.41025639788433e+000

6.49801917084985e+004,-1.84477750430945e+001,-1.42992359090383e+000

6.58872813814055e+004,-1.84478153935334e+001,-1.44986452582747e+000

6.68070335542691e+004,-1.84478568581045e+001,-1.47008299100275e+000

6.77396249890018e+004,-1.84478994670019e+001,-1.49058282633908e+000

6.86852349150199e+004,-1.84479432512062e+001,-1.51136792397718e+000

6.96440450636895e+004,-1.84479882425041e+001,-1.53244222896292e+000

7.06162397032520e+004,-1.84480344735069e+001,-1.55380973993491e+000

7.16020056742374e+004,-1.84480819776697e+001,-1.57547450981451e+000

7.26015324253724e+004,-1.84481307893125e+001,-1.59744064650478e+000

7.36150120499896e+004,-1.84481809436391e+001,-1.61971231359861e+000

7.46426393229441e+004,-1.84482324767582e+001,-1.64229373109357e+000

7.56846117380472e+004,-1.84482854257043e+001,-1.66518917611526e+000

7.67411295460207e+004,-1.84483398284591e+001,-1.68840298364667e+000

7.78123957929823e+004,-1.84483957239729e+001,-1.71193954726859e+000

7.88986163594682e+004,-1.84484531521865e+001,-1.73580331990593e+000

7.99999999999995e+004,-1.84485121540541e+001,-1.75999881458172e+000

8.11167583832018e+004,-1.84485727715651e+001,-1.78453060518157e+000

8.22491061324848e+004,-1.84486350477679e+001,-1.80940332722437e+000

8.33972608672892e+004,-1.84486990267929e+001,-1.83462167864111e+000

8.45614432449099e+004,-1.84487647538763e+001,-1.86019042056351e+000

8.57418770029029e+004,-1.84488322753843e+001,-1.88611437812057e+000

8.69387890020841e+004,-1.84489016388369e+001,-1.91239844124208e+000

8.81524092701283e+004,-1.84489728929332e+001,-1.93904756547325e+000

8.93829710457770e+004,-1.84490460875764e+001,-1.96606677279462e+000

9.06307108236633e+004,-1.84491212738985e+001,-1.99346115245452e+000

9.18958683997622e+004,-1.84491985042865e+001,-2.02123586180738e+000

9.31786869174758e+004,-1.84492778324079e+001,-2.04939612716131e+000

9.44794129143618e+004,-1.84493593132374e+001,-2.07794724463542e+000

9.57982963695136e+004,-1.84494430030825e+001,-2.10689458102575e+000

9.71355907516031e+004,-1.84495289596108e+001,-2.13624357468045e+000

9.84915530675926e+004,-1.84496172418768e+001,-2.16599973638374e+000

9.98664439121282e+004,-1.84497079103489e+001,-2.19616865024860e+000

1.01260527517622e+005,-1.84498010269369e+001,-2.22675597462061e+000

1.02674071805032e+005,-1.84498966550192e+001,-2.25776744299023e+000

1.04107348435354e+005,-1.84499948594710e+001,-2.28920886491385e+000

1.05560632861831e+005,-1.84500957066917e+001,-2.32108612694617e+000

1.07034204382888e+005,-1.84501992646333e+001,-2.35340519358121e+000

1.08528346195813e+005,-1.84503056028282e+001,-2.38617210820469e+000

1.10043345451179e+005,-1.84504147924174e+001,-2.41939299405504e+000

1.11579493308032e+005,-1.84505269061791e+001,-2.45307405519591e+000

1.13137084989847e+005,-1.84506420185566e+001,-2.48722157749874e+000

1.14716419841265e+005,-1.84507602056868e+001,-2.52184192963615e+000

1.16317801385624e+005,-1.84508815454287e+001,-2.55694156408624e+000

1.17941537383287e+005,-1.84510061173913e+001,-2.59252701814752e+000

1.19587939890794e+005,-1.84511340029624e+001,-2.62860491496696e+000

1.21257325320831e+005,-1.84512652853361e+001,-2.66518196457683e+000

1.22950014503040e+005,-1.84514000495410e+001,-2.70226496494662e+000

1.24666332745679e+005,-1.84515383824684e+001,-2.73986080304392e+000

1.26406609898139e+005,-1.84516803728996e+001,-2.77797645591048e+000

1.28171180414339e+005,-1.84518261115335e+001,-2.81661899174924e+000

1.29960383416997e+005,-1.84519756910135e+001,-2.85579557102521e+000

1.31774562762811e+005,-1.84521292059551e+001,-2.89551344757989e+000

1.33614067108538e+005,-1.84522867529715e+001,-2.93577996975966e+000

1.35479249978003e+005,-1.84524484307008e+001,-2.97660258155666e+000

1.37370469830040e+005,-1.84526143398310e+001,-3.01798882376831e+000

1.39288090127379e+005,-1.84527845831259e+001,-3.05994633516701e+000

1.41232479406504e+005,-1.84529592654497e+001,-3.10248285368983e+000

1.43204011348474e+005,-1.84531384937919e+001,-3.14560621764097e+000

1.45203064850745e+005,-1.84533223772905e+001,-3.18932436691414e+000

1.47230024099979e+005,-1.84535110272558e+001,-3.23364534422904e+000

1.49285278645888e+005,-1.84537045571930e+001,-3.27857729638789e+000

1.51369223476094e+005,-1.84539030828242e+001,-3.32412847555020e+000

1.53482259092041e+005,-1.84541067221098e+001,-3.37030724052563e+000

1.55624791585964e+005,-1.84543155952690e+001,-3.41712205808824e+000

1.57797232718936e+005,-1.84545298248001e+001,-3.46458150431030e+000

1.59999999999999e+005,-1.84547495354998e+001,-3.51269426591802e+000

1.62233516766403e+005,-1.84549748544809e+001,-3.56146914167041e+000

1.64498212264969e+005,-1.84552059111906e+001,-3.61091504375952e+000

1.66794521734578e+005,-1.84554428374272e+001,-3.66104099923624e+000

1.69122886489819e+005,-1.84556857673561e+001,-3.71185615146052e+000

1.71483754005805e+005,-1.84559348375246e+001,-3.76336976157865e+000

1.73877578004168e+005,-1.84561901868767e+001,-3.81559121002517e+000

1.76304818540256e+005,-1.84564519567665e+001,-3.86852999805628e+000

1.78765942091554e+005,-1.84567202909705e+001,-3.92219574930964e+000

1.81261421647326e+005,-1.84569953357000e+001,-3.97659821139632e+000

1.83791736799524e+005,-1.84572772396118e+001,-4.03174725752372e+000

1.86357373834951e+005,-1.84575661538186e+001,-4.08765288815184e+000

1.88958825828723e+005,-1.84578622318990e+001,-4.14432523268248e+000

1.91596592739027e+005,-1.84581656299056e+001,-4.20177455118618e+000

1.94271181503206e+005,-1.84584765063740e+001,-4.26001123616398e+000

1.96983106135185e+005,-1.84587950223303e+001,-4.31904581434796e+000

1.99732887824256e+005,-1.84591213412986e+001,-4.37888894854265e+000

2.02521055035243e+005,-1.84594556293074e+001,-4.43955143950535e+000

2.05348143610063e+005,-1.84597980548969e+001,-4.50104422787156e+000

2.08214696870707e+005,-1.84601487891247e+001,-4.56337839612246e+000

2.11121265723661e+005,-1.84605080055731e+001,-4.62656517059943e+000

2.14068408765776e+005,-1.84608758803546e+001,-4.69061592356513e+000

2.17056692391625e+005,-1.84612525921193e+001,-4.75554217531354e+000

2.20086690902357e+005,-1.84616383220620e+001,-4.82135559633011e+000

2.23158986616063e+005,-1.84620332539299e+001,-4.88806800950453e+000

2.26274169979693e+005,-1.84624375740310e+001,-4.95569139239587e+000

2.29432839682530e+005,-1.84628514712440e+001,-5.02423787955382e+000

2.32635602771247e+005,-1.84632751370293e+001,-5.09371976489556e+000

2.35883074766574e+005,-1.84637087654410e+001,-5.16414950414147e+000

2.39175879781588e+005,-1.84641525531416e+001,-5.23553971730961e+000

2.42514650641661e+005,-1.84646066994179e+001,-5.30790319127216e+000

2.45900029006080e+005,-1.84650714062002e+001,-5.38125288237308e+000

2.49332665491357e+005,-1.84655468780833e+001,-5.45560191911024e+000

2.52813219796278e+005,-1.84660333223513e+001,-5.53096360488229e+000

2.56342360828676e+005,-1.84665309490060e+001,-5.60735142080133e+000

2.59920766833993e+005,-1.84670399707978e+001,-5.68477902857373e+000

2.63549125525621e+005,-1.84675606032626e+001,-5.76326027344779e+000

2.67228134217075e+005,-1.84680930647625e+001,-5.84280918723168e+000

2.70958499956006e+005,-1.84686375765315e+001,-5.92343999138055e+000

2.74740939660078e+005,-1.84691943627266e+001,-6.00516710015507e+000

2.78576180254757e+005,-1.84697636504861e+001,-6.08800512384965e+000

2.82464958813007e+005,-1.84703456699932e+001,-6.17196887209327e+000

2.86408022696948e+005,-1.84709406545469e+001,-6.25707335722127e+000

2.90406129701488e+005,-1.84715488406410e+001,-6.34333379771936e+000

2.94460048199957e+005,-1.84721704680506e+001,-6.43076562173792e+000

2.98570557291775e+005,-1.84728057799275e+001,-6.51938447067942e+000

3.02738446952187e+005,-1.84734550229047e+001,-6.60920620285402e+000

3.06964518184081e+005,-1.84741184472107e+001,-6.70024689720727e+000

3.11249583171928e+005,-1.84747963067940e+001,-6.79252285711558e+000

3.15594465437872e+005,-1.84754888594583e+001,-6.88605061424956e+000

3.19999999999997e+005,-1.84761963670096e+001,-6.98084693250390e+000

3.24467033532806e+005,-1.84769190954144e+001,-7.07692881199227e+000

3.28996424529938e+005,-1.84776573149719e+001,-7.17431349310452e+000

3.33589043469155e+005,-1.84784113004973e+001,-7.27301846062494e+000

3.38245772979638e+005,-1.84791813315206e+001,-7.37306144790963e+000

3.42967508011610e+005,-1.84799676924982e+001,-7.47446044111897e+000

3.47755156008335e+005,-1.84807706730401e+001,-7.57723368350359e+000

3.52609637080511e+005,-1.84815905681515e+001,-7.68139967974036e+000

3.57531884183106e+005,-1.84824276784907e+001,-7.78697720031584e+000

3.62522843294651e+005,-1.84832823106427e+001,-7.89398528595180e+000

3.67583473599047e+005,-1.84841547774095e+001,-8.00244325207225e+000

3.72714747669902e+005,-1.84850453981173e+001,-8.11237069330503e+000

3.77917651657445e+005,-1.84859544989407e+001,-8.22378748801526e+000

3.83193185478053e+005,-1.84868824132456e+001,-8.33671380286693e+000

3.88542363006410e+005,-1.84878294819487e+001,-8.45117009740753e+000

3.93966212270369e+005,-1.84887960538962e+001,-8.56717712867033e+000

3.99465775648511e+005,-1.84897824862605e+001,-8.68475595579158e+000

4.05042110070485e+005,-1.84907891449558e+001,-8.80392794463602e+000

4.10696287220124e+005,-1.84918164050728e+001,-8.92471477242702e+000

4.16429393741414e+005,-1.84928646513312e+001,-9.04713843237524e+000

4.22242531447321e+005,-1.84939342785528e+001,-9.17122123830193e+000

4.28136817531551e+005,-1.84950256921524e+001,-9.29698582925087e+000

4.34113384783250e+005,-1.84961393086481e+001,-9.42445517408409e+000

4.40173381804713e+005,-1.84972755561905e+001,-9.55365257605741e+000

4.46317973232124e+005,-1.84984348751108e+001,-9.68460167736802e+000

4.52548339959385e+005,-1.84996177184875e+001,-9.81732646367274e+000

4.58865679365059e+005,-1.85008245527312e+001,-9.95185126856894e+000

4.65271205542494e+005,-1.85020558581885e+001,-1.00882007780353e+001

4.71766149533147e+005,-1.85033121297627e+001,-1.02264000348261e+001

4.78351759563174e+005,-1.85045938775528e+001,-1.03664744428172e+001

4.85029301283321e+005,-1.85059016275096e+001,-1.05084497712952e+001

4.91800058012158e+005,-1.85072359221087e+001,-1.06523521591904e+001

4.98665330982714e+005,-1.85085973210398e+001,-1.07982081192450e+001

5.05626439592555e+005,-1.85099864019120e+001,-1.09460445421168e+001

5.12684721657352e+005,-1.85114037609744e+001,-1.10958887004112e+001

5.19841533667984e+005,-1.85128500138524e+001,-1.12477682526421e+001

5.27098251051240e+005,-1.85143257962977e+001,-1.14017112471142e+001

5.34456268434150e+005,-1.85158317649525e+001,-1.15577461257278e+001

5.41916999912011e+005,-1.85173685981272e+001,-1.17159017277018e+001

