Freq.,VOut,OutRef

1.00000000000000e+004,-1.97382528219691e+001,-2.35687107077826e-001

1.01395947979003e+004,-1.97382539157851e+001,-2.38977100827308e-001

1.02811382665607e+004,-1.97382550403407e+001,-2.42313017966562e-001

1.04246576084112e+004,-1.97382561964996e+001,-2.45695499425797e-001

1.05701804056138e+004,-1.97382573851492e+001,-2.49125195077343e-001

1.07177346253629e+004,-1.97382586072025e+001,-2.52602763858247e-001

1.08673486252606e+004,-1.97382598635979e+001,-2.56128873897651e-001

1.10190511587661e+004,-1.97382611552998e+001,-2.59704202645905e-001

1.11728713807222e+004,-1.97382624833001e+001,-2.63329437002846e-001

1.13288388529580e+004,-1.97382638486182e+001,-2.67005273450103e-001

1.14869835499703e+004,-1.97382652523023e+001,-2.70732418184630e-001

1.16473358646846e+004,-1.97382666954301e+001,-2.74511587251786e-001

1.18099266142953e+004,-1.97382681791093e+001,-2.78343506688184e-001

1.19747870461893e+004,-1.97382697044788e+001,-2.82228912653854e-001

1.21419488439505e+004,-1.97382712727094e+001,-2.86168551578707e-001

1.23114441334492e+004,-1.97382728850050e+001,-2.90163180301013e-001

1.24833054890161e+004,-1.97382745426029e+001,-2.94213566217398e-001

1.26575659397028e+004,-1.97382762467751e+001,-2.98320487424823e-001

1.28342589756290e+004,-1.97382779988298e+001,-3.02484732872870e-001

1.30134185544193e+004,-1.97382798001113e+001,-3.06707102512524e-001

1.31950791077289e+004,-1.97382816520019e+001,-3.10988407452206e-001

1.33792755478611e+004,-1.97382835559226e+001,-3.15329470109778e-001

1.35660432744767e+004,-1.97382855133343e+001,-3.19731124372519e-001

1.37554181813974e+004,-1.97382875257387e+001,-3.24194215754180e-001

1.39474366635040e+004,-1.97382895946799e+001,-3.28719601559622e-001

1.41421356237309e+004,-1.97382917217449e+001,-3.33308151047598e-001

1.43395524801583e+004,-1.97382939085656e+001,-3.37960745594863e-001

1.45397251732031e+004,-1.97382961568192e+001,-3.42678278868850e-001

1.47426921729110e+004,-1.97382984682303e+001,-3.47461656995944e-001

1.49484924863494e+004,-1.97383008445717e+001,-3.52311798734942e-001

1.51571656651040e+004,-1.97383032876657e+001,-3.57229635652864e-001

1.53687518128801e+004,-1.97383057993860e+001,-3.62216112303114e-001

1.55832915932100e+004,-1.97383083816584e+001,-3.67272186408066e-001

1.58008262372675e+004,-1.97383110364632e+001,-3.72398829036630e-001

1.60213975517924e+004,-1.97383137658356e+001,-3.77597024796755e-001

1.62450479271247e+004,-1.97383165718680e+001,-3.82867772018999e-001

1.64718203453514e+004,-1.97383194567116e+001,-3.88212082946547e-001

1.67017583885674e+004,-1.97383224225777e+001,-3.93630983932728e-001

1.69349062472505e+004,-1.97383254717393e+001,-3.99125515633757e-001

1.71713087287550e+004,-1.97383286065335e+001,-4.04696733207317e-001

1.74110112659224e+004,-1.97383318293623e+001,-4.10345706516614e-001

1.76540599258131e+004,-1.97383351426954e+001,-4.16073520330889e-001

1.79005014185594e+004,-1.97383385490716e+001,-4.21881274535121e-001

1.81503831063432e+004,-1.97383420511002e+001,-4.27770084340309e-001

1.84037530124975e+004,-1.97383456514642e+001,-4.33741080492162e-001

1.86606598307361e+004,-1.97383493529210e+001,-4.39795409492707e-001

1.89211529345119e+004,-1.97383531583059e+001,-4.45934233812593e-001

1.91852823865052e+004,-1.97383570705326e+001,-4.52158732118034e-001

1.94530989482457e+004,-1.97383610925971e+001,-4.58470099491745e-001

1.97246540898671e+004,-1.97383652275789e+001,-4.64869547661233e-001

1.99999999999999e+004,-1.97383694786432e+001,-4.71358305232928e-001

2.02791895958005e+004,-1.97383738490443e+001,-4.77937617920437e-001

2.05622765331213e+004,-1.97383783421268e+001,-4.84608748787364e-001

2.08493152168224e+004,-1.97383829613295e+001,-4.91372978482639e-001

2.11403608112276e+004,-1.97383877101865e+001,-4.98231605488853e-001

2.14354692507258e+004,-1.97383925923313e+001,-5.05185946364947e-001

2.17346972505211e+004,-1.97383976114983e+001,-5.12237336000965e-001

2.20381023175322e+004,-1.97384027715267e+001,-5.19387127867192e-001

2.23457427614443e+004,-1.97384080763625e+001,-5.26636694274639e-001

2.26576777059159e+004,-1.97384135300619e+001,-5.33987426635745e-001

2.29739670999406e+004,-1.97384191367944e+001,-5.41440735726252e-001

2.32946717293690e+004,-1.97384249008457e+001,-5.48998051955564e-001

2.36198532285905e+004,-1.97384308266214e+001,-5.56660825636032e-001

2.39495740923785e+004,-1.97384369186495e+001,-5.64430527260230e-001

2.42838976879009e+004,-1.97384431815844e+001,-5.72308647779174e-001

2.46228882668982e+004,-1.97384496202104e+001,-5.80296698883766e-001

2.49666109780322e+004,-1.97384562394450e+001,-5.88396213293447e-001

2.53151318794055e+004,-1.97384630443428e+001,-5.96608745044318e-001

2.56685179512580e+004,-1.97384700400990e+001,-6.04935869785385e-001

2.60268371088386e+004,-1.97384772320537e+001,-6.13379185075495e-001

2.63901582154578e+004,-1.97384846256955e+001,-6.21940310686719e-001

2.67585510957221e+004,-1.97384922266660e+001,-6.30620888909510e-001

2.71320865489533e+004,-1.97385000407635e+001,-6.39422584864748e-001

2.75108363627948e+004,-1.97385080739477e+001,-6.48347086816618e-001

2.78948733270080e+004,-1.97385163323440e+001,-6.57396106493161e-001

2.82842712474618e+004,-1.97385248222483e+001,-6.66571379408123e-001

2.86791049603164e+004,-1.97385335501311e+001,-6.75874665189802e-001

2.90794503464061e+004,-1.97385425226430e+001,-6.85307747911179e-001

2.94853843458219e+004,-1.97385517466191e+001,-6.94872436428029e-001

2.98969849726987e+004,-1.97385612290842e+001,-7.04570564719080e-001

3.03143313302078e+004,-1.97385709772585e+001,-7.14403992231031e-001

3.07375036257601e+004,-1.97385809985620e+001,-7.24374604228314e-001

3.11665831864199e+004,-1.97385913006207e+001,-7.34484312149354e-001

3.16016524745350e+004,-1.97386018912720e+001,-7.44735053963360e-001

3.20427951035848e+004,-1.97386127785707e+001,-7.55128794536761e-001

3.24900958542493e+004,-1.97386239707942e+001,-7.65667526001500e-001

3.29436406907028e+004,-1.97386354764497e+001,-7.76353268127602e-001

3.34035167771346e+004,-1.97386473042793e+001,-7.87188068704129e-001

3.38698124945009e+004,-1.97386594632675e+001,-7.98174003919650e-001

3.43426174575100e+004,-1.97386719626467e+001,-8.09313178755785e-001

3.48220225318448e+004,-1.97386848119049e+001,-8.20607727376834e-001

3.53081198516260e+004,-1.97386980207921e+001,-8.32059813530590e-001

3.58010028371187e+004,-1.97387115993274e+001,-8.43671630953528e-001

3.63007662126863e+004,-1.97387255578066e+001,-8.55445403778305e-001

3.68075060249948e+004,-1.97387399068094e+001,-8.67383386951210e-001

3.73213196614721e+004,-1.97387546572071e+001,-8.79487866650698e-001

3.78423058690237e+004,-1.97387698201709e+001,-8.91761160713795e-001

3.83705647730104e+004,-1.97387854071792e+001,-9.04205619067997e-001

3.89061978964912e+004,-1.97388014300268e+001,-9.16823624167805e-001

3.94493081797342e+004,-1.97388179008324e+001,-9.29617591437605e-001

3.99999999999998e+004,-1.97388348320485e+001,-9.42589969719529e-001

4.05583791916010e+004,-1.97388522364690e+001,-9.55743241728989e-001

4.11245530662425e+004,-1.97388701272397e+001,-9.69079924512580e-001

4.16986304336447e+004,-1.97388885178667e+001,-9.82602569916433e-001

4.22807216224550e+004,-1.97389074222266e+001,-9.96313765055586e-001

4.28709385014515e+004,-1.97389268545761e+001,-1.01021613279464e+000

4.34693945010421e+004,-1.97389468295622e+001,-1.02431233222954e+000

4.40762046350642e+004,-1.97389673622330e+001,-1.03860505917830e+000

4.46914855228886e+004,-1.97389884680475e+001,-1.05309704667882e+000

4.53153554118317e+004,-1.97390101628873e+001,-1.06779106548954e+000

4.59479341998812e+004,-1.97390324630673e+001,-1.08268992459988e+000

4.65893434587380e+004,-1.97390553853477e+001,-1.09779647174485e+000

4.72397064571810e+004,-1.97390789469450e+001,-1.11311359392831e+000

4.78991481847569e+004,-1.97391031655446e+001,-1.12864421794998e+000

4.85677953758016e+004,-1.97391280593132e+001,-1.14439131094102e+000

4.92457765337964e+004,-1.97391536469107e+001,-1.16035788090606e+000

4.99332219560642e+004,-1.97391799475041e+001,-1.17654697727199e+000

5.06302637588109e+004,-1.97392069807802e+001,-1.19296169144200e+000

5.13370359025159e+004,-1.97392347669588e+001,-1.20960515735974e+000

5.20536742176771e+004,-1.97392633268078e+001,-1.22648055207628e+000

5.27803164309155e+004,-1.97392926816560e+001,-1.24359109632803e+000

5.35171021914442e+004,-1.97393228534086e+001,-1.26094005511795e+000

5.42641730979066e+004,-1.97393538645619e+001,-1.27853073830795e+000

5.50216727255895e+004,-1.97393857382184e+001,-1.29636650121490e+000

5.57897466540159e+004,-1.97394184981024e+001,-1.31445074521522e+000

5.65685424949235e+004,-1.97394521685760e+001,-1.33278691835834e+000

5.73582099206328e+004,-1.97394867746558e+001,-1.35137851598412e+000

5.81589006928121e+004,-1.97395223420288e+001,-1.37022908135139e+000

5.89707686916437e+004,-1.97395588970705e+001,-1.38934220627072e+000

5.97939699453972e+004,-1.97395964668615e+001,-1.40872153174699e+000

6.06286626604156e+004,-1.97396350792056e+001,-1.42837074862989e+000

6.14750072515201e+004,-1.97396747626486e+001,-1.44829359826859e+000

6.23331663728396e+004,-1.97397155464961e+001,-1.46849387317959e+000

6.32033049490698e+004,-1.97397574608332e+001,-1.48897541771668e+000

6.40855902071694e+004,-1.97398005365438e+001,-1.50974212875336e+000

6.49801917084985e+004,-1.97398448053303e+001,-1.53079795637068e+000

6.58872813814055e+004,-1.97398902997344e+001,-1.55214690455381e+000

6.68070335542691e+004,-1.97399370531572e+001,-1.57379303189690e+000

6.77396249890018e+004,-1.97399850998812e+001,-1.59574045231484e+000

6.86852349150199e+004,-1.97400344750912e+001,-1.61799333576501e+000

6.96440450636895e+004,-1.97400852148968e+001,-1.64055590897607e+000

7.06162397032520e+004,-1.97401373563547e+001,-1.66343245618540e+000

7.16020056742374e+004,-1.97401909374919e+001,-1.68662731988449e+000

7.26015324253724e+004,-1.97402459973290e+001,-1.71014490157357e+000

7.36150120499896e+004,-1.97403025759042e+001,-1.73398966252391e+000

7.46426393229441e+004,-1.97403607142974e+001,-1.75816612454885e+000

7.56846117380472e+004,-1.97404204546553e+001,-1.78267887078430e+000

7.67411295460207e+004,-1.97404818402166e+001,-1.80753254647640e+000

7.78123957929823e+004,-1.97405449153379e+001,-1.83273185977905e+000

7.88986163594682e+004,-1.97406097255197e+001,-1.85828158255940e+000

7.99999999999995e+004,-1.97406763174331e+001,-1.88418655121367e+000

8.11167583832018e+004,-1.97407447389474e+001,-1.91045166749037e+000

8.22491061324848e+004,-1.97408150391574e+001,-1.93708189932215e+000

8.33972608672892e+004,-1.97408872684115e+001,-1.96408228166918e+000

8.45614432449099e+004,-1.97409614783406e+001,-1.99145791736889e+000

8.57418770029029e+004,-1.97410377218870e+001,-2.01921397799678e+000

8.69387890020841e+004,-1.97411160533341e+001,-2.04735570473516e+000

8.81524092701283e+004,-1.97411965283362e+001,-2.07588840925242e+000

8.93829710457770e+004,-1.97412792039492e+001,-2.10481747459102e+000

9.06307108236633e+004,-1.97413641386618e+001,-2.13414835606468e+000

9.18958683997622e+004,-1.97414513924263e+001,-2.16388658216615e+000

9.31786869174758e+004,-1.97415410266908e+001,-2.19403775548471e+000

9.44794129143618e+004,-1.97416331044320e+001,-2.22460755363091e+000

9.57982963695136e+004,-1.97417276901872e+001,-2.25560173017508e+000

9.71355907516031e+004,-1.97418248500880e+001,-2.28702611559220e+000

9.84915530675926e+004,-1.97419246518937e+001,-2.31888661821982e+000

9.98664439121282e+004,-1.97420271650254e+001,-2.35118922522357e+000

1.01260527517622e+005,-1.97421324606009e+001,-2.38394000357470e+000

1.02674071805032e+005,-1.97422406114686e+001,-2.41714510103729e+000

1.04107348435354e+005,-1.97423516922438e+001,-2.45081074716572e+000

1.05560632861831e+005,-1.97424657793437e+001,-2.48494325431354e+000

1.07034204382888e+005,-1.97425829510234e+001,-2.51954901865263e+000

1.08528346195813e+005,-1.97427032874126e+001,-2.55463452120377e+000

1.10043345451179e+005,-1.97428268705517e+001,-2.59020632887714e+000

1.11579493308032e+005,-1.97429537844294e+001,-2.62627109552557e+000

1.13137084989847e+005,-1.97430841150195e+001,-2.66283556300771e+000

1.14716419841265e+005,-1.97432179503186e+001,-2.69990656226503e+000

1.16317801385624e+005,-1.97433553803841e+001,-2.73749101440830e+000

1.17941537383287e+005,-1.97434964973718e+001,-2.77559593181726e+000

1.19587939890794e+005,-1.97436413955746e+001,-2.81422841925229e+000

1.21257325320831e+005,-1.97437901714609e+001,-2.85339567497938e+000

1.22950014503040e+005,-1.97439429237129e+001,-2.89310499190689e+000

1.24666332745679e+005,-1.97440997532658e+001,-2.93336375873533e+000

1.26406609898139e+005,-1.97442607633467e+001,-2.97417946112193e+000

1.28171180414339e+005,-1.97444260595135e+001,-3.01555968285650e+000

1.29960383416997e+005,-1.97445957496937e+001,-3.05751210705383e+000

1.31774562762811e+005,-1.97447699442243e+001,-3.10004451735896e+000

1.33614067108538e+005,-1.97449487558904e+001,-3.14316479916707e+000

1.35479249978003e+005,-1.97451322999648e+001,-3.18688094085923e+000

1.37370469830040e+005,-1.97453206942468e+001,-3.23120103505366e+000

1.39288090127379e+005,-1.97455140591018e+001,-3.27613327987189e+000

1.41232479406504e+005,-1.97457125174997e+001,-3.32168598022351e+000

1.43204011348474e+005,-1.97459161950547e+001,-3.36786754910552e+000

1.45203064850745e+005,-1.97461252200637e+001,-3.41468650892067e+000

1.47230024099979e+005,-1.97463397235449e+001,-3.46215149281366e+000

1.49285278645888e+005,-1.97465598392766e+001,-3.51027124602562e+000

1.51369223476094e+005,-1.97467857038354e+001,-3.55905462726854e+000

1.53482259092041e+005,-1.97470174566346e+001,-3.60851061011866e+000

1.55624791585964e+005,-1.97472552399619e+001,-3.65864828443127e+000

1.57797232718936e+005,-1.97474991990171e+001,-3.70947685777718e+000

1.59999999999999e+005,-1.97477494819497e+001,-3.76100565689997e+000

1.62233516766403e+005,-1.97480062398961e+001,-3.81324412919780e+000

1.64498212264969e+005,-1.97482696270163e+001,-3.86620184422781e+000

1.66794521734578e+005,-1.97485398005308e+001,-3.91988849523625e+000

1.69122886489819e+005,-1.97488169207571e+001,-3.97431390071220e+000

1.71483754005805e+005,-1.97491011511452e+001,-4.02948800597110e+000

1.73877578004168e+005,-1.97493926583146e+001,-4.08542088476217e+000

1.76304818540256e+005,-1.97496916120889e+001,-4.14212274090741e+000

1.78765942091554e+005,-1.97499981855320e+001,-4.19960390996776e+000

1.81261421647326e+005,-1.97503125549829e+001,-4.25787486094262e+000

1.83791736799524e+005,-1.97506349000913e+001,-4.31694619799833e+000

1.86357373834951e+005,-1.97509654038524e+001,-4.37682866223254e+000

1.88958825828723e+005,-1.97513042526420e+001,-4.43753313347090e+000

1.91596592739027e+005,-1.97516516362515e+001,-4.49907063210095e+000

1.94271181503206e+005,-1.97520077479235e+001,-4.56145232094064e+000

1.96983106135185e+005,-1.97523727843864e+001,-4.62468950714772e+000

1.99732887824256e+005,-1.97527469458907e+001,-4.68879364416721e+000

2.02521055035243e+005,-1.97531304362446e+001,-4.75377633371980e+000

2.05348143610063e+005,-1.97535234628509e+001,-4.81964932783297e+000

2.08214696870707e+005,-1.97539262367438e+001,-4.88642453091556e+000

2.11121265723661e+005,-1.97543389726270e+001,-4.95411400187902e+000

2.14068408765776e+005,-1.97547618889127e+001,-5.02272995630260e+000

2.17056692391625e+005,-1.97551952077612e+001,-5.09228476864972e+000

2.20086690902357e+005,-1.97556391551227e+001,-5.16279097453129e+000

2.23158986616063e+005,-1.97560939607798e+001,-5.23426127302287e+000

2.26274169979693e+005,-1.97565598583921e+001,-5.30670852903192e+000

2.29432839682530e+005,-1.97570370855427e+001,-5.38014577572034e+000

2.32635602771247e+005,-1.97575258837869e+001,-5.45458621698239e+000

2.35883074766574e+005,-1.97580264987036e+001,-5.53004322997969e+000

2.39175879781588e+005,-1.97585391799495e+001,-5.60653036773286e+000

2.42514650641661e+005,-1.97590641813156e+001,-5.68406136177491e+000

2.45900029006080e+005,-1.97596017607886e+001,-5.76265012486384e+000

2.49332665491357e+005,-1.97601521806149e+001,-5.84231075375743e+000

2.52813219796278e+005,-1.97607157073691e+001,-5.92305753205187e+000

2.56342360828676e+005,-1.97612926120277e+001,-6.00490493308311e+000

2.59920766833993e+005,-1.97618831700465e+001,-6.08786762289518e+000

2.63549125525621e+005,-1.97624876614445e+001,-6.17196046327247e+000

2.67228134217075e+005,-1.97631063708931e+001,-6.25719851483990e+000

2.70958499956006e+005,-1.97637395878120e+001,-6.34359704023010e+000

2.74740939660078e+005,-1.97643876064713e+001,-6.43117150731816e+000

2.78576180254757e+005,-1.97650507261013e+001,-6.51993759252430e+000

2.82464958813007e+005,-1.97657292510102e+001,-6.60991118418576e+000

2.86408022696948e+005,-1.97664234907097e+001,-6.70110838599543e+000

2.90406129701488e+005,-1.97671337600497e+001,-6.79354552051013e+000

2.94460048199957e+005,-1.97678603793625e+001,-6.88723913272566e+000

2.98570557291775e+005,-1.97686036746167e+001,-6.98220599371976e+000

3.02738446952187e+005,-1.97693639775820e+001,-7.07846310436096e+000

3.06964518184081e+005,-1.97701416260049e+001,-7.17602769908361e+000

3.11249583171928e+005,-1.97709369637959e+001,-7.27491724972685e+000

3.15594465437872e+005,-1.97717503412297e+001,-7.37514946943690e+000

3.19999999999997e+005,-1.97725821151573e+001,-7.47674231663075e+000

3.24467033532806e+005,-1.97734326492325e+001,-7.57971399901911e+000

3.28996424529938e+005,-1.97743023141518e+001,-7.68408297768691e+000

3.33589043469155e+005,-1.97751914879094e+001,-7.78986797122893e+000

3.38245772979638e+005,-1.97761005560670e+001,-7.89708795993807e+000

3.42967508011610e+005,-1.97770299120399e+001,-8.00576219004295e+000

3.47755156008335e+005,-1.97779799573982e+001,-8.11591017799254e+000

3.52609637080511e+005,-1.97789511021869e+001,-8.22755171478329e+000

3.57531884183106e+005,-1.97799437652610e+001,-8.34070687032718e+000

3.62522843294651e+005,-1.97809583746404e+001,-8.45539599785463e+000

3.67583473599047e+005,-1.97819953678817e+001,-8.57163973834955e+000

3.72714747669902e+005,-1.97830551924695e+001,-8.68945902501272e+000

3.77917651657445e+005,-1.97841383062266e+001,-8.80887508774738e+000

3.83193185478053e+005,-1.97852451777436e+001,-8.92990945766480e+000

3.88542363006410e+005,-1.97863762868286e+001,-9.05258397160232e+000

3.93966212270369e+005,-1.97875321249767e+001,-9.17692077665136e+000

3.99465775648511e+005,-1.97887131958604e+001,-9.30294233468814e+000

4.05042110070485e+005,-1.97899200158400e+001,-9.43067142690402e+000

4.10696287220124e+005,-1.97911531144957e+001,-9.56013115832840e+000

4.16429393741414e+005,-1.97924130351794e+001,-9.69134496233887e+000

4.22242531447321e+005,-1.97937003355891e+001,-9.82433660515454e+000

4.28136817531551e+005,-1.97950155883630e+001,-9.95913019030498e+000

4.34113384783250e+005,-1.97963593816959e+001,-1.00957501630703e+001

4.40173381804713e+005,-1.97977323199756e+001,-1.02342213148873e+001

4.46317973232124e+005,-1.97991350244412e+001,-1.03745687877141e+001

4.52548339959385e+005,-1.98005681338618e+001,-1.05168180783495e+001

4.58865679365059e+005,-1.98020323052362e+001,-1.06609950427013e+001

4.65271205542494e+005,-1.98035282145126e+001,-1.08071258999968e+001

4.71766149533147e+005,-1.98050565573292e+001,-1.09552372369312e+001

4.78351759563174e+005,-1.98066180497741e+001,-1.11053560117496e+001

4.85029301283321e+005,-1.98082134291656e+001,-1.12575095582549e+001

4.91800058012158e+005,-1.98098434548507e+001,-1.14117255897391e+001

4.98665330982714e+005,-1.98115089090234e+001,-1.15680322028313e+001

5.05626439592555e+005,-1.98132105975612e+001,-1.17264578812598e+001

5.12684721657352e+005,-1.98149493508787e+001,-1.18870314995222e+001

5.19841533667984e+005,-1.98167260248001e+001,-1.20497823264597e+001

5.27098251051240e+005,-1.98185415014476e+001,-1.22147400287319e+001

5.34456268434150e+005,-1.98203966901467e+001,-1.23819346741884e+001

5.41916999912011e+005,-1.98222925283473e+001,-1.25513967351328e+001

