Freq.,VOut,OutRef

1.00000000000000e+004,-1.76318219862074e+001,-2.54765550541722e-001

1.01395947979003e+004,-1.76318230546115e+001,-2.58321866729096e-001

1.02811382665607e+004,-1.76318241530404e+001,-2.61927823913401e-001

1.04246576084112e+004,-1.76318252823374e+001,-2.65584114916489e-001

1.05701804056138e+004,-1.76318264433693e+001,-2.69291442226757e-001

1.07177346253629e+004,-1.76318276370281e+001,-2.73050518128234e-001

1.08673486252606e+004,-1.76318288642299e+001,-2.76862064846663e-001

1.10190511587661e+004,-1.76318301259169e+001,-2.80726814678997e-001

1.11728713807222e+004,-1.76318314230578e+001,-2.84645510140580e-001

1.13288388529580e+004,-1.76318327566481e+001,-2.88618904103105e-001

1.14869835499703e+004,-1.76318341277117e+001,-2.92647759940565e-001

1.16473358646846e+004,-1.76318355373010e+001,-2.96732851674769e-001

1.18099266142953e+004,-1.76318369864980e+001,-3.00874964124457e-001

1.19747870461893e+004,-1.76318384764150e+001,-3.05074893054860e-001

1.21419488439505e+004,-1.76318400081954e+001,-3.09333445332193e-001

1.23114441334492e+004,-1.76318415830149e+001,-3.13651439075269e-001

1.24833054890161e+004,-1.76318432020821e+001,-3.18029703813040e-001

1.26575659397028e+004,-1.76318448666393e+001,-3.22469080645739e-001

1.28342589756290e+004,-1.76318465779639e+001,-3.26970422402961e-001

1.30134185544193e+004,-1.76318483373691e+001,-3.31534593808064e-001

1.31950791077289e+004,-1.76318501462047e+001,-3.36162471645025e-001

1.33792755478611e+004,-1.76318520058586e+001,-3.40854944924367e-001

1.35660432744767e+004,-1.76318539177573e+001,-3.45612915054644e-001

1.37554181813974e+004,-1.76318558833677e+001,-3.50437296012771e-001

1.39474366635040e+004,-1.76318579041975e+001,-3.55329014523466e-001

1.41421356237309e+004,-1.76318599817969e+001,-3.60289010230388e-001

1.43395524801583e+004,-1.76318621177593e+001,-3.65318235882218e-001

1.45397251732031e+004,-1.76318643137229e+001,-3.70417657509961e-001

1.47426921729110e+004,-1.76318665713717e+001,-3.75588254615444e-001

1.49484924863494e+004,-1.76318688924372e+001,-3.80831020354569e-001

1.51571656651040e+004,-1.76318712786990e+001,-3.86146961732302e-001

1.53687518128801e+004,-1.76318737319867e+001,-3.91537099790991e-001

1.55832915932100e+004,-1.76318762541813e+001,-3.97002469806510e-001

1.58008262372675e+004,-1.76318788472163e+001,-4.02544121488720e-001

1.60213975517924e+004,-1.76318815130794e+001,-4.08163119178380e-001

1.62450479271247e+004,-1.76318842538140e+001,-4.13860542052786e-001

1.64718203453514e+004,-1.76318870715206e+001,-4.19637484332479e-001

1.67017583885674e+004,-1.76318899683588e+001,-4.25495055486793e-001

1.69349062472505e+004,-1.76318929465483e+001,-4.31434380450548e-001

1.71713087287550e+004,-1.76318960083711e+001,-4.37456599835742e-001

1.74110112659224e+004,-1.76318991561731e+001,-4.43562870149625e-001

1.76540599258131e+004,-1.76319023923658e+001,-4.49754364016769e-001

1.79005014185594e+004,-1.76319057194281e+001,-4.56032270401348e-001

1.81503831063432e+004,-1.76319091399082e+001,-4.62397794835887e-001

1.84037530124975e+004,-1.76319126564259e+001,-4.68852159648805e-001

1.86606598307361e+004,-1.76319162716739e+001,-4.75396604199636e-001

1.89211529345119e+004,-1.76319199884205e+001,-4.82032385113890e-001

1.91852823865052e+004,-1.76319238095111e+001,-4.88760776524685e-001

1.94530989482457e+004,-1.76319277378709e+001,-4.95583070313109e-001

1.97246540898671e+004,-1.76319317765067e+001,-5.02500576356149e-001

1.99999999999999e+004,-1.76319359285094e+001,-5.09514622776342e-001

2.02791895958005e+004,-1.76319401970562e+001,-5.16626556193358e-001

2.05622765331213e+004,-1.76319445854131e+001,-5.23837741981863e-001

2.08493152168224e+004,-1.76319490969375e+001,-5.31149564530076e-001

2.11403608112276e+004,-1.76319537350801e+001,-5.38563427505659e-001

2.14354692507258e+004,-1.76319585033883e+001,-5.46080754119727e-001

2.17346972505211e+004,-1.76319634055087e+001,-5.53702987400052e-001

2.20381023175322e+004,-1.76319684451892e+001,-5.61431590464927e-001

2.23457427614443e+004,-1.76319736262825e+001,-5.69268046800552e-001

2.26576777059159e+004,-1.76319789527489e+001,-5.77213860543147e-001

2.29739670999406e+004,-1.76319844286591e+001,-5.85270556766529e-001

2.32946717293690e+004,-1.76319900581971e+001,-5.93439681769088e-001

2.36198532285905e+004,-1.76319958456639e+001,-6.01722803369781e-001

2.39495740923785e+004,-1.76320017954801e+001,-6.10121511204584e-001

2.42838976879009e+004,-1.76320079121896e+001,-6.18637417027880e-001

2.46228882668982e+004,-1.76320142004628e+001,-6.27272155019676e-001

2.49666109780322e+004,-1.76320206651005e+001,-6.36027382093206e-001

2.53151318794055e+004,-1.76320273110367e+001,-6.44904778212056e-001

2.56685179512580e+004,-1.76320341433432e+001,-6.53906046705269e-001

2.60268371088386e+004,-1.76320411672326e+001,-6.63032914592891e-001

2.63901582154578e+004,-1.76320483880626e+001,-6.72287132911119e-001

2.67585510957221e+004,-1.76320558113401e+001,-6.81670477043960e-001

2.71320865489533e+004,-1.76320634427250e+001,-6.91184747060093e-001

2.75108363627948e+004,-1.76320712880344e+001,-7.00831768052273e-001

2.78948733270080e+004,-1.76320793532473e+001,-7.10613390483367e-001

2.82842712474618e+004,-1.76320876445085e+001,-7.20531490534326e-001

2.86791049603164e+004,-1.76320961681339e+001,-7.30587970459868e-001

2.90794503464061e+004,-1.76321049306140e+001,-7.40784758948252e-001

2.94853843458219e+004,-1.76321139386201e+001,-7.51123811482508e-001

2.98969849726987e+004,-1.76321231990083e+001,-7.61607110711623e-001

3.03143313302078e+004,-1.76321327188246e+001,-7.72236666823781e-001

3.07375036257601e+004,-1.76321425053107e+001,-7.83014517924449e-001

3.11665831864199e+004,-1.76321525659088e+001,-7.93942730419619e-001

3.16016524745350e+004,-1.76321629082670e+001,-8.05023399406567e-001

3.20427951035848e+004,-1.76321735402453e+001,-8.16258649066431e-001

3.24900958542493e+004,-1.76321844699213e+001,-8.27650633062715e-001

3.29436406907028e+004,-1.76321957055959e+001,-8.39201534948580e-001

3.34035167771346e+004,-1.76322072557996e+001,-8.50913568573290e-001

3.38698124945009e+004,-1.76322191292985e+001,-8.62788978500381e-001

3.43426174575100e+004,-1.76322313351009e+001,-8.74830040426482e-001

3.48220225318448e+004,-1.76322438824639e+001,-8.87039061610113e-001

3.53081198516260e+004,-1.76322567808998e+001,-8.99418381300313e-001

3.58010028371187e+004,-1.76322700401835e+001,-9.11970371177226e-001

3.63007662126863e+004,-1.76322836703592e+001,-9.24697435793567e-001

3.68075060249948e+004,-1.76322976817477e+001,-9.37602013025892e-001

3.73213196614721e+004,-1.76323120849541e+001,-9.50686574527737e-001

3.78423058690237e+004,-1.76323268908754e+001,-9.63953626191090e-001

3.83705647730104e+004,-1.76323421107080e+001,-9.77405708614329e-001

3.89061978964912e+004,-1.76323577559564e+001,-9.91045397574507e-001

3.94493081797342e+004,-1.76323738384406e+001,-1.00487530450730e+000

3.99999999999998e+004,-1.76323903703055e+001,-1.01889807699177e+000

4.05583791916010e+004,-1.76324073640289e+001,-1.03311639924260e+000

4.11245530662425e+004,-1.76324248324305e+001,-1.04753299260845e+000

4.16986304336447e+004,-1.76324427886814e+001,-1.06215061607583e+000

4.22807216224550e+004,-1.76324612463130e+001,-1.07697206678127e+000

4.28709385014515e+004,-1.76324802192269e+001,-1.09200018052727e+000

4.34693945010421e+004,-1.76324997217046e+001,-1.10723783230838e+000

4.40762046350642e+004,-1.76325197684176e+001,-1.12268793684091e+000

4.46914855228886e+004,-1.76325403744376e+001,-1.13835344910146e+000

4.53153554118317e+004,-1.76325615552474e+001,-1.15423736487044e+000

4.59479341998812e+004,-1.76325833267513e+001,-1.17034272128429e+000

4.65893434587380e+004,-1.76326057052867e+001,-1.18667259739422e+000

4.72397064571810e+004,-1.76326287076348e+001,-1.20323011473127e+000

4.78991481847569e+004,-1.76326523510330e+001,-1.22001843787886e+000

4.85677953758016e+004,-1.76326766531864e+001,-1.23704077505289e+000

4.92457765337964e+004,-1.76327016322801e+001,-1.25430037868833e+000

4.99332219560642e+004,-1.76327273069916e+001,-1.27180054603529e+000

5.06302637588109e+004,-1.76327536965039e+001,-1.28954461975812e+000

5.13370359025159e+004,-1.76327808205184e+001,-1.30753598854733e+000

5.20536742176771e+004,-1.76328086992682e+001,-1.32577808773531e+000

5.27803164309155e+004,-1.76328373535322e+001,-1.34427439992082e+000

5.35171021914442e+004,-1.76328668046488e+001,-1.36302845560143e+000

5.42641730979066e+004,-1.76328970745306e+001,-1.38204383381387e+000

5.50216727255895e+004,-1.76329281856788e+001,-1.40132416278068e+000

5.57897466540159e+004,-1.76329601611985e+001,-1.42087312056719e+000

5.65685424949235e+004,-1.76329930248139e+001,-1.44069443574504e+000

5.73582099206328e+004,-1.76330268008842e+001,-1.46079188806346e+000

5.81589006928121e+004,-1.76330615144197e+001,-1.48116930912887e+000

5.89707686916437e+004,-1.76330971910981e+001,-1.50183058309432e+000

5.97939699453972e+004,-1.76331338572814e+001,-1.52277964735474e+000

6.06286626604156e+004,-1.76331715400331e+001,-1.54402049325149e+000

6.14750072515201e+004,-1.76332102671357e+001,-1.56555716678657e+000

6.23331663728396e+004,-1.76332500671087e+001,-1.58739376934360e+000

6.32033049490698e+004,-1.76332909692270e+001,-1.60953445841701e+000

6.40855902071694e+004,-1.76333330035395e+001,-1.63198344835239e+000

6.49801917084985e+004,-1.76333762008880e+001,-1.65474501109306e+000

6.58872813814055e+004,-1.76334205929270e+001,-1.67782347693668e+000

6.68070335542691e+004,-1.76334662121437e+001,-1.70122323529946e+000

6.77396249890018e+004,-1.76335130918778e+001,-1.72494873549136e+000

6.86852349150199e+004,-1.76335612663427e+001,-1.74900448749821e+000

6.96440450636895e+004,-1.76336107706464e+001,-1.77339506277320e+000

7.06162397032520e+004,-1.76336616408130e+001,-1.79812509503966e+000

7.16020056742374e+004,-1.76337139138048e+001,-1.82319928109928e+000

7.26015324253724e+004,-1.76337676275446e+001,-1.84862238165288e+000

7.36150120499896e+004,-1.76338228209383e+001,-1.87439922212922e+000

7.46426393229441e+004,-1.76338795338987e+001,-1.90053469352225e+000

7.56846117380472e+004,-1.76339378073683e+001,-1.92703375324067e+000

7.67411295460207e+004,-1.76339976833441e+001,-1.95390142596293e+000

7.78123957929823e+004,-1.76340592049018e+001,-1.98114280450617e+000

7.88986163594682e+004,-1.76341224162206e+001,-2.00876305070126e+000

7.99999999999995e+004,-1.76341873626089e+001,-2.03676739628019e+000

8.11167583832018e+004,-1.76342540905297e+001,-2.06516114377136e+000

8.22491061324848e+004,-1.76343226476270e+001,-2.09394966740715e+000

8.33972608672892e+004,-1.76343930827524e+001,-2.12313841403835e+000

8.45614432449099e+004,-1.76344654459923e+001,-2.15273290406112e+000

8.57418770029029e+004,-1.76345397886949e+001,-2.18273873235353e+000

8.69387890020841e+004,-1.76346161634985e+001,-2.21316156922229e+000

8.81524092701283e+004,-1.76346946243597e+001,-2.24400716135914e+000

8.93829710457770e+004,-1.76347752265820e+001,-2.27528133280917e+000

9.06307108236633e+004,-1.76348580268449e+001,-2.30698998594751e+000

9.18958683997622e+004,-1.76349430832332e+001,-2.33913910246900e+000

9.31786869174758e+004,-1.76350304552672e+001,-2.37173474438695e+000

9.44794129143618e+004,-1.76351202039328e+001,-2.40478305504354e+000

9.57982963695136e+004,-1.76352123917117e+001,-2.43829026013062e+000

9.71355907516031e+004,-1.76353070826130e+001,-2.47226266872189e+000

9.84915530675926e+004,-1.76354043422039e+001,-2.50670667431591e+000

9.98664439121282e+004,-1.76355042376417e+001,-2.54162875589111e+000

1.01260527517622e+005,-1.76356068377055e+001,-2.57703547897169e+000

1.02674071805032e+005,-1.76357122128283e+001,-2.61293349670510e+000

1.04107348435354e+005,-1.76358204351301e+001,-2.64932955095050e+000

1.05560632861831e+005,-1.76359315784500e+001,-2.68623047338101e+000

1.07034204382888e+005,-1.76360457183797e+001,-2.72364318659627e+000

1.08528346195813e+005,-1.76361629322965e+001,-2.76157470524768e+000

1.10043345451179e+005,-1.76362832993970e+001,-2.80003213717637e+000

1.11579493308032e+005,-1.76364069007306e+001,-2.83902268456259e+000

1.13137084989847e+005,-1.76365338192336e+001,-2.87855364508946e+000

1.14716419841265e+005,-1.76366641397628e+001,-2.91863241311897e+000

1.16317801385624e+005,-1.76367979491303e+001,-2.95926648087977e+000

1.17941537383287e+005,-1.76369353361369e+001,-3.00046343967175e+000

1.19587939890794e+005,-1.76370763916073e+001,-3.04223098108065e+000

1.21257325320831e+005,-1.76372212084236e+001,-3.08457689820886e+000

1.22950014503040e+005,-1.76373698815607e+001,-3.12750908691939e+000

1.24666332745679e+005,-1.76375225081196e+001,-3.17103554709585e+000

1.26406609898139e+005,-1.76376791873626e+001,-3.21516438391552e+000

1.28171180414339e+005,-1.76378400207471e+001,-3.25990380913849e+000

1.29960383416997e+005,-1.76380051119602e+001,-3.30526214241268e+000

1.31774562762811e+005,-1.76381745669524e+001,-3.35124781259416e+000

1.33614067108538e+005,-1.76383484939717e+001,-3.39786935908469e+000

1.35479249978003e+005,-1.76385270035973e+001,-3.44513543318496e+000

1.37370469830040e+005,-1.76387102087731e+001,-3.49305479946641e+000

1.39288090127379e+005,-1.76388982248411e+001,-3.54163633715968e+000

1.41232479406504e+005,-1.76390911695742e+001,-3.59088904156195e+000

1.43204011348474e+005,-1.76392891632087e+001,-3.64082202546337e+000

1.45203064850745e+005,-1.76394923284771e+001,-3.69144452059231e+000

1.47230024099979e+005,-1.76397007906395e+001,-3.74276587908081e+000

1.49285278645888e+005,-1.76399146775155e+001,-3.79479557495089e+000

1.51369223476094e+005,-1.76401341195153e+001,-3.84754320562222e+000

1.53482259092041e+005,-1.76403592496699e+001,-3.90101849344167e+000

1.55624791585964e+005,-1.76405902036619e+001,-3.95523128723548e+000

1.57797232718936e+005,-1.76408271198543e+001,-4.01019156388618e+000

1.59999999999999e+005,-1.76410701393206e+001,-4.06590942993174e+000

1.62233516766403e+005,-1.76413194058727e+001,-4.12239512319238e+000

1.64498212264969e+005,-1.76415750660889e+001,-4.17965901442231e+000

1.66794521734578e+005,-1.76418372693418e+001,-4.23771160898826e+000

1.69122886489819e+005,-1.76421061678248e+001,-4.29656354857771e+000

1.71483754005805e+005,-1.76423819165785e+001,-4.35622561293440e+000

1.73877578004168e+005,-1.76426646735164e+001,-4.41670872162545e+000

1.76304818540256e+005,-1.76429545994502e+001,-4.47802393583880e+000

1.78765942091554e+005,-1.76432518581143e+001,-4.54018246021475e+000

1.81261421647326e+005,-1.76435566161898e+001,-4.60319564470888e+000

1.83791736799524e+005,-1.76438690433285e+001,-4.66707498649200e+000

1.86357373834951e+005,-1.76441893121756e+001,-4.73183213188535e+000

1.88958825828723e+005,-1.76445175983928e+001,-4.79747887833334e+000

1.91596592739027e+005,-1.76448540806804e+001,-4.86402717641551e+000

1.94271181503206e+005,-1.76451989407999e+001,-4.93148913189831e+000

1.96983106135185e+005,-1.76455523635954e+001,-4.99987700782935e+000

1.99732887824256e+005,-1.76459145370155e+001,-5.06920322667411e+000

2.02521055035243e+005,-1.76462856521355e+001,-5.13948037249792e+000

2.05348143610063e+005,-1.76466659031787e+001,-5.21072119319343e+000

2.08214696870707e+005,-1.76470554875390e+001,-5.28293860275648e+000

2.11121265723661e+005,-1.76474546058027e+001,-5.35614568361075e+000

2.14068408765776e+005,-1.76478634617723e+001,-5.43035568898405e+000

2.17056692391625e+005,-1.76482822624893e+001,-5.50558204533597e+000

2.20086690902357e+005,-1.76487112182595e+001,-5.58183835484040e+000

2.23158986616063e+005,-1.76491505426778e+001,-5.65913839792318e+000

2.26274169979693e+005,-1.76496004526556e+001,-5.73749613585774e+000

2.29432839682530e+005,-1.76500611684492e+001,-5.81692571341847e+000

2.32635602771247e+005,-1.76505329136895e+001,-5.89744146159456e+000

2.35883074766574e+005,-1.76510159154147e+001,-5.97905790036712e+000

2.39175879781588e+005,-1.76515104041048e+001,-6.06178974154752e+000

2.42514650641661e+005,-1.76520166137186e+001,-6.14565189168150e+000

2.45900029006080e+005,-1.76525347817341e+001,-6.23065945502004e+000

2.49332665491357e+005,-1.76530651491919e+001,-6.31682773655685e+000

2.52813219796278e+005,-1.76536079607428e+001,-6.40417224513404e+000

2.56342360828676e+005,-1.76541634646987e+001,-6.49270869661915e+000

2.59920766833993e+005,-1.76547319130888e+001,-6.58245301715162e+000

2.63549125525621e+005,-1.76553135617205e+001,-6.67342134646280e+000

2.67228134217075e+005,-1.76559086702452e+001,-6.76563004126693e+000

2.70958499956006e+005,-1.76565175022305e+001,-6.85909567872664e+000

2.74740939660078e+005,-1.76571403252388e+001,-6.95383505999275e+000

2.78576180254757e+005,-1.76577774109123e+001,-7.04986521381738e+000

2.82464958813007e+005,-1.76584290350654e+001,-7.14720340024359e+000

2.86408022696948e+005,-1.76590954777853e+001,-7.24586711436825e+000

2.90406129701488e+005,-1.76597770235409e+001,-7.34587409018117e+000

2.94460048199957e+005,-1.76604739613004e+001,-7.44724230447794e+000

2.98570557291775e+005,-1.76611865846588e+001,-7.54998998084715e+000

3.02738446952187e+005,-1.76619151919753e+001,-7.65413559373129e+000

3.06964518184081e+005,-1.76626600865214e+001,-7.75969787256085e+000

3.11249583171928e+005,-1.76634215766402e+001,-7.86669580595840e+000

3.15594465437872e+005,-1.76641999759180e+001,-7.97514864601475e+000

3.19999999999997e+005,-1.76649956033679e+001,-8.08507591263238e+000

3.24467033532806e+005,-1.76658087836265e+001,-8.19649739793661e+000

3.28996424529938e+005,-1.76666398471643e+001,-8.30943317075133e+000

3.33589043469155e+005,-1.76674891305107e+001,-8.42390358113657e+000

3.38245772979638e+005,-1.76683569764929e+001,-8.53992926498782e+000

3.42967508011610e+005,-1.76692437344908e+001,-8.65753114869049e+000

3.47755156008335e+005,-1.76701497607079e+001,-8.77673045382920e+000

3.52609637080511e+005,-1.76710754184576e+001,-8.89754870194937e+000

3.57531884183106e+005,-1.76720210784682e+001,-9.02000771936331e+000

3.62522843294651e+005,-1.76729871192029e+001,-9.14412964200245e+000

3.67583473599047e+005,-1.76739739271997e+001,-9.26993692030787e+000

3.72714747669902e+005,-1.76749818974287e+001,-9.39745232415572e+000

3.77917651657445e+005,-1.76760114336676e+001,-9.52669894781481e+000

3.83193185478053e+005,-1.76770629488972e+001,-9.65770021492970e+000

3.88542363006410e+005,-1.76781368657155e+001,-9.79047988352509e+000

3.93966212270369e+005,-1.76792336167717e+001,-9.92506205102746e+000

3.99465775648511e+005,-1.76803536452198e+001,-1.00614711592974e+001

4.05042110070485e+005,-1.76814974051928e+001,-1.01997319996687e+001

4.10696287220124e+005,-1.76826653622964e+001,-1.03398697179875e+001

4.16429393741414e+005,-1.76838579941237e+001,-1.04819098196481e+001

4.22242531447321e+005,-1.76850757907897e+001,-1.06258781746169e+001

4.28136817531551e+005,-1.76863192554868e+001,-1.07718010224426e+001

4.34113384783250e+005,-1.76875889050602e+001,-1.09197049772432e+001

4.40173381804713e+005,-1.76888852706040e+001,-1.10696170326675e+001

4.46317973232124e+005,-1.76902088980771e+001,-1.12215645668240e+001

4.52548339959385e+005,-1.76915603489395e+001,-1.13755753471707e+001

4.58865679365059e+005,-1.76929402008085e+001,-1.15316775353636e+001

4.65271205542494e+005,-1.76943490481335e+001,-1.16898996920540e+001

4.71766149533147e+005,-1.76957875028917e+001,-1.18502707816337e+001

4.78351759563174e+005,-1.76972561953008e+001,-1.20128201769205e+001

4.85029301283321e+005,-1.76987557745522e+001,-1.21775776637789e+001

4.91800058012158e+005,-1.77002869095603e+001,-1.23445734456726e+001

4.98665330982714e+005,-1.77018502897312e+001,-1.25138381481440e+001

5.05626439592555e+005,-1.77034466257474e+001,-1.26854028232138e+001

5.12684721657352e+005,-1.77050766503696e+001,-1.28592989537013e+001

5.19841533667984e+005,-1.77067411192543e+001,-1.30355584574558e+001

5.27098251051240e+005,-1.77084408117878e+001,-1.32142136914998e+001

5.34456268434150e+005,-1.77101765319335e+001,-1.33952974560788e+001

5.41916999912011e+005,-1.77119491090952e+001,-1.35788429986136e+001

