Freq.,VOut,OutRef

1.00000000000000e+004,-1.67034162446034e+001,-2.08884423704185e-001

1.01395947979003e+004,-1.67034170995087e+001,-2.11800265747568e-001

1.02811382665607e+004,-1.67034179784363e+001,-2.14756808210028e-001

1.04246576084112e+004,-1.67034188820610e+001,-2.17754619111968e-001

1.05701804056138e+004,-1.67034198110765e+001,-2.20794274394981e-001

1.07177346253629e+004,-1.67034207661957e+001,-2.23876358038392e-001

1.08673486252606e+004,-1.67034217481517e+001,-2.27001462164904e-001

1.10190511587661e+004,-1.67034227576980e+001,-2.30170187156767e-001

1.11728713807222e+004,-1.67034237956095e+001,-2.33383141770107e-001

1.13288388529580e+004,-1.67034248626828e+001,-2.36640943251537e-001

1.14869835499703e+004,-1.67034259597365e+001,-2.39944217458609e-001

1.16473358646846e+004,-1.67034270876123e+001,-2.43293598976380e-001

1.18099266142953e+004,-1.67034282471760e+001,-2.46689731239103e-001

1.19747870461893e+004,-1.67034294393170e+001,-2.50133266656510e-001

1.21419488439505e+004,-1.67034306649497e+001,-2.53624866737760e-001

1.23114441334492e+004,-1.67034319250145e+001,-2.57165202214244e-001

1.24833054890161e+004,-1.67034332204781e+001,-2.60754953172389e-001

1.26575659397028e+004,-1.67034345523341e+001,-2.64394809182511e-001

1.28342589756290e+004,-1.67034359216039e+001,-2.68085469431178e-001

1.30134185544193e+004,-1.67034373293379e+001,-2.71827642852538e-001

1.31950791077289e+004,-1.67034387766154e+001,-2.75622048268082e-001

1.33792755478611e+004,-1.67034402645466e+001,-2.79469414519289e-001

1.35660432744767e+004,-1.67034417942720e+001,-2.83370480613768e-001

1.37554181813974e+004,-1.67034433669648e+001,-2.87325995857783e-001

1.39474366635040e+004,-1.67034449838307e+001,-2.91336720007304e-001

1.41421356237309e+004,-1.67034466461092e+001,-2.95403423409783e-001

1.43395524801583e+004,-1.67034483550745e+001,-2.99526887150512e-001

1.45397251732031e+004,-1.67034501120365e+001,-3.03707903205572e-001

1.47426921729110e+004,-1.67034519183419e+001,-3.07947274589156e-001

1.49484924863494e+004,-1.67034537753748e+001,-3.12245815509584e-001

1.51571656651040e+004,-1.67034556845584e+001,-3.16604351524227e-001

1.53687518128801e+004,-1.67034576473554e+001,-3.21023719695980e-001

1.55832915932100e+004,-1.67034596652699e+001,-3.25504768754878e-001

1.58008262372675e+004,-1.67034617398476e+001,-3.30048359260011e-001

1.60213975517924e+004,-1.67034638726776e+001,-3.34655363763365e-001

1.62450479271247e+004,-1.67034660653936e+001,-3.39326666975185e-001

1.64718203453514e+004,-1.67034683196749e+001,-3.44063165934637e-001

1.67017583885674e+004,-1.67034706372477e+001,-3.48865770181033e-001

1.69349062472505e+004,-1.67034730198864e+001,-3.53735401926203e-001

1.71713087287550e+004,-1.67034754694155e+001,-3.58672996229966e-001

1.74110112659224e+004,-1.67034779877098e+001,-3.63679501180664e-001

1.76540599258131e+004,-1.67034805766971e+001,-3.68755878073751e-001

1.79005014185594e+004,-1.67034832383587e+001,-3.73903101596648e-001

1.81503831063432e+004,-1.67034859747313e+001,-3.79122160013669e-001

1.84037530124975e+004,-1.67034887879086e+001,-3.84414055353690e-001

1.86606598307361e+004,-1.67034916800428e+001,-3.89779803602838e-001

1.89211529345119e+004,-1.67034946533463e+001,-3.95220434894842e-001

1.91852823865052e+004,-1.67034977100927e+001,-4.00736993712539e-001

1.94530989482457e+004,-1.67035008526200e+001,-4.06330539079371e-001

1.97246540898671e+004,-1.67035040833306e+001,-4.12002144768801e-001

1.99999999999999e+004,-1.67035074046944e+001,-4.17752899502609e-001

2.02791895958005e+004,-1.67035108192501e+001,-4.23583907158833e-001

2.05622765331213e+004,-1.67035143296071e+001,-4.29496286986042e-001

2.08493152168224e+004,-1.67035179384477e+001,-4.35491173810526e-001

2.11403608112276e+004,-1.67035216485289e+001,-4.41569718254416e-001

2.14354692507258e+004,-1.67035254626847e+001,-4.47733086955507e-001

2.17346972505211e+004,-1.67035293838278e+001,-4.53982462786150e-001

2.20381023175322e+004,-1.67035334149523e+001,-4.60319045079310e-001

2.23457427614443e+004,-1.67035375591355e+001,-4.66744049856579e-001

2.26576777059159e+004,-1.67035418195407e+001,-4.73258710057133e-001

2.29739670999406e+004,-1.67035461994186e+001,-4.79864275773948e-001

2.32946717293690e+004,-1.67035507021112e+001,-4.86562014488475e-001

2.36198532285905e+004,-1.67035553310528e+001,-4.93353211311495e-001

2.39495740923785e+004,-1.67035600897736e+001,-5.00239169228165e-001

2.42838976879009e+004,-1.67035649819019e+001,-5.07221209342041e-001

2.46228882668982e+004,-1.67035700111666e+001,-5.14300671127372e-001

2.49666109780322e+004,-1.67035751814006e+001,-5.21478912680830e-001

2.53151318794055e+004,-1.67035804965428e+001,-5.28757310980556e-001

2.56685179512580e+004,-1.67035859606420e+001,-5.36137262142711e-001

2.60268371088386e+004,-1.67035915778591e+001,-5.43620181689833e-001

2.63901582154578e+004,-1.67035973524704e+001,-5.51207504814159e-001

2.67585510957221e+004,-1.67036032888709e+001,-5.58900686650853e-001

2.71320865489533e+004,-1.67036093915774e+001,-5.66701202552804e-001

2.75108363627948e+004,-1.67036156652322e+001,-5.74610548365895e-001

2.78948733270080e+004,-1.67036221146059e+001,-5.82630240714206e-001

2.82842712474618e+004,-1.67036287446011e+001,-5.90761817284770e-001

2.86791049603164e+004,-1.67036355602563e+001,-5.99006837116116e-001

2.90794503464061e+004,-1.67036425667497e+001,-6.07366880891733e-001

2.94853843458219e+004,-1.67036497694023e+001,-6.15843551238355e-001

2.98969849726987e+004,-1.67036571736823e+001,-6.24438473026575e-001

3.03143313302078e+004,-1.67036647852092e+001,-6.33153293675484e-001

3.07375036257601e+004,-1.67036726097573e+001,-6.41989683463598e-001

3.11665831864199e+004,-1.67036806532607e+001,-6.50949335839805e-001

3.16016524745350e+004,-1.67036889218170e+001,-6.60033967742237e-001

3.20427951035848e+004,-1.67036974216920e+001,-6.69245319919769e-001

3.24900958542493e+004,-1.67037061593243e+001,-6.78585157257794e-001

3.29436406907028e+004,-1.67037151413295e+001,-6.88055269109096e-001

3.34035167771346e+004,-1.67037243745060e+001,-6.97657469625213e-001

3.38698124945009e+004,-1.67037338658384e+001,-7.07393598100502e-001

3.43426174575100e+004,-1.67037436225040e+001,-7.17265519310810e-001

3.48220225318448e+004,-1.67037536518769e+001,-7.27275123863713e-001

3.53081198516260e+004,-1.67037639615342e+001,-7.37424328549134e-001

3.58010028371187e+004,-1.67037745592603e+001,-7.47715076699024e-001

3.63007662126863e+004,-1.67037854530537e+001,-7.58149338544885e-001

3.68075060249948e+004,-1.67037966511315e+001,-7.68729111588057e-001

3.73213196614721e+004,-1.67038081619364e+001,-7.79456420967532e-001

3.78423058690237e+004,-1.67038199941418e+001,-7.90333319836734e-001

3.83705647730104e+004,-1.67038321566582e+001,-8.01361889745463e-001

3.89061978964912e+004,-1.67038446586398e+001,-8.12544241022550e-001

3.94493081797342e+004,-1.67038575094905e+001,-8.23882513169075e-001

3.99999999999998e+004,-1.67038707188710e+001,-8.35378875250667e-001

4.05583791916010e+004,-1.67038842967049e+001,-8.47035526301634e-001

4.11245530662425e+004,-1.67038982531863e+001,-8.58854695727879e-001

4.16986304336447e+004,-1.67039125987867e+001,-8.70838643716820e-001

4.22807216224550e+004,-1.67039273442618e+001,-8.82989661657313e-001

4.28709385014515e+004,-1.67039425006599e+001,-8.95310072555170e-001

4.34693945010421e+004,-1.67039580793286e+001,-9.07802231464673e-001

4.40762046350642e+004,-1.67039740919232e+001,-9.20468525917574e-001

4.46914855228886e+004,-1.67039905504145e+001,-9.33311376360318e-001

4.53153554118317e+004,-1.67040074670970e+001,-9.46333236597954e-001

4.59479341998812e+004,-1.67040248545974e+001,-9.59536594241909e-001

4.65893434587380e+004,-1.67040427258830e+001,-9.72923971162674e-001

4.72397064571810e+004,-1.67040610942706e+001,-9.86497923950600e-001

4.78991481847569e+004,-1.67040799734356e+001,-1.00026104438000e+000

4.85677953758016e+004,-1.67040993774208e+001,-1.01421595988061e+000

4.92457765337964e+004,-1.67041193206461e+001,-1.02836533401386e+000

4.99332219560642e+004,-1.67041398179183e+001,-1.04271186695507e+000

5.06302637588109e+004,-1.67041608844407e+001,-1.05725829598107e+000

5.13370359025159e+004,-1.67041825358230e+001,-1.07200739596630e+000

5.20536742176771e+004,-1.67042047880918e+001,-1.08696197988177e+000

5.27803164309155e+004,-1.67042276577011e+001,-1.10212489930052e+000

5.35171021914442e+004,-1.67042511615431e+001,-1.11749904491167e+000

5.42641730979066e+004,-1.67042753169589e+001,-1.13308734703701e+000

5.50216727255895e+004,-1.67043001417499e+001,-1.14889277615775e+000

5.57897466540159e+004,-1.67043256541892e+001,-1.16491834344335e+000

5.65685424949235e+004,-1.67043518730334e+001,-1.18116710129021e+000

5.73582099206328e+004,-1.67043788175343e+001,-1.19764214386371e+000

5.81589006928121e+004,-1.67044065074512e+001,-1.21434660764976e+000

5.89707686916437e+004,-1.67044349630633e+001,-1.23128367200982e+000

5.97939699453972e+004,-1.67044642051825e+001,-1.24845655974462e+000

6.06286626604156e+004,-1.67044942551659e+001,-1.26586853766251e+000

6.14750072515201e+004,-1.67045251349297e+001,-1.28352291715617e+000

6.23331663728396e+004,-1.67045568669617e+001,-1.30142305478549e+000

6.32033049490698e+004,-1.67045894743359e+001,-1.31957235286585e+000

6.40855902071694e+004,-1.67046229807259e+001,-1.33797426006389e+000

6.49801917084985e+004,-1.67046574104191e+001,-1.35663227200245e+000

6.58872813814055e+004,-1.67046927883316e+001,-1.37554993186729e+000

6.68070335542691e+004,-1.67047291400222e+001,-1.39473083102533e+000

6.77396249890018e+004,-1.67047664917084e+001,-1.41417860964702e+000

6.86852349150199e+004,-1.67048048702803e+001,-1.43389695733809e+000

6.96440450636895e+004,-1.67048443033176e+001,-1.45388961377485e+000

7.06162397032520e+004,-1.67048848191041e+001,-1.47416036935028e+000

7.16020056742374e+004,-1.67049264466444e+001,-1.49471306582450e+000

7.26015324253724e+004,-1.67049692156800e+001,-1.51555159698392e+000

7.36150120499896e+004,-1.67050131567056e+001,-1.53667990930673e+000

7.46426393229441e+004,-1.67050583009863e+001,-1.55810200263582e+000

7.56846117380472e+004,-1.67051046805742e+001,-1.57982193085951e+000

7.67411295460207e+004,-1.67051523283260e+001,-1.60184380259987e+000

7.78123957929823e+004,-1.67052012779200e+001,-1.62417178190524e+000

7.88986163594682e+004,-1.67052515638744e+001,-1.64681008895629e+000

7.99999999999995e+004,-1.67053032215649e+001,-1.66976300077267e+000

8.11167583832018e+004,-1.67053562872426e+001,-1.69303485193338e+000

8.22491061324848e+004,-1.67054107980530e+001,-1.71663003529915e+000

8.33972608672892e+004,-1.67054667920542e+001,-1.74055300274766e+000

8.45614432449099e+004,-1.67055243082355e+001,-1.76480826591218e+000

8.57418770029029e+004,-1.67055833865366e+001,-1.78940039693068e+000

8.69387890020841e+004,-1.67056440678669e+001,-1.81433402920153e+000

8.81524092701283e+004,-1.67057063941244e+001,-1.83961385814711e+000

8.93829710457770e+004,-1.67057704082151e+001,-1.86524464198663e+000

9.06307108236633e+004,-1.67058361540731e+001,-1.89123120251407e+000

9.18958683997622e+004,-1.67059036766795e+001,-1.91757842588905e+000

9.31786869174758e+004,-1.67059730220832e+001,-1.94429126342891e+000

9.44794129143618e+004,-1.67060442374198e+001,-1.97137473241672e+000

9.57982963695136e+004,-1.67061173709323e+001,-1.99883391691143e+000

9.71355907516031e+004,-1.67061924719906e+001,-2.02667396857007e+000

9.84915530675926e+004,-1.67062695911121e+001,-2.05490010747643e+000

9.98664439121282e+004,-1.67063487799812e+001,-2.08351762298013e+000

1.01260527517622e+005,-1.67064300914698e+001,-2.11253187454214e+000

1.02674071805032e+005,-1.67065135796572e+001,-2.14194829259115e+000

1.04107348435354e+005,-1.67065992998501e+001,-2.17177237938758e+000

1.05560632861831e+005,-1.67066873086024e+001,-2.20200970989742e+000

1.07034204382888e+005,-1.67067776637355e+001,-2.23266593267469e+000

1.08528346195813e+005,-1.67068704243570e+001,-2.26374677075408e+000

1.10043345451179e+005,-1.67069656508814e+001,-2.29525802255114e+000

1.11579493308032e+005,-1.67070634050483e+001,-2.32720556277524e+000

1.13137084989847e+005,-1.67071637499424e+001,-2.35959534334851e+000

1.14716419841265e+005,-1.67072667500117e+001,-2.39243339433922e+000

1.16317801385624e+005,-1.67073724710865e+001,-2.42572582490049e+000

1.17941537383287e+005,-1.67074809803973e+001,-2.45947882422417e+000

1.19587939890794e+005,-1.67075923465924e+001,-2.49369866250194e+000

1.21257325320831e+005,-1.67077066397562e+001,-2.52839169189837e+000

1.22950014503040e+005,-1.67078239314253e+001,-2.56356434753714e+000

1.24666332745679e+005,-1.67079442946052e+001,-2.59922314849506e+000

1.26406609898139e+005,-1.67080678037867e+001,-2.63537469881081e+000

1.28171180414339e+005,-1.67081945349607e+001,-2.67202568850404e+000

1.29960383416997e+005,-1.67083245656332e+001,-2.70918289460936e+000

1.31774562762811e+005,-1.67084579748398e+001,-2.74685318221943e+000

1.33614067108538e+005,-1.67085948431582e+001,-2.78504350554462e+000

1.35479249978003e+005,-1.67087352527218e+001,-2.82376090898489e+000

1.37370469830040e+005,-1.67088792872306e+001,-2.86301252821619e+000

1.39288090127379e+005,-1.67090270319632e+001,-2.90280559128982e+000

1.41232479406504e+005,-1.67091785737858e+001,-2.94314741975025e+000

1.43204011348474e+005,-1.67093340011624e+001,-2.98404542976493e+000

1.45203064850745e+005,-1.67094934041619e+001,-3.02550713327323e+000

1.47230024099979e+005,-1.67096568744659e+001,-3.06754013914920e+000

1.49285278645888e+005,-1.67098245053744e+001,-3.11015215438561e+000

1.51369223476094e+005,-1.67099963918108e+001,-3.15335098529177e+000

1.53482259092041e+005,-1.67101726303256e+001,-3.19714453871385e+000

1.55624791585964e+005,-1.67103533190984e+001,-3.24154082327229e+000

1.57797232718936e+005,-1.67105385579397e+001,-3.28654795062139e+000

1.59999999999999e+005,-1.67107284482904e+001,-3.33217413672795e+000

1.62233516766403e+005,-1.67109230932205e+001,-3.37842770317481e+000

1.64498212264969e+005,-1.67111225974261e+001,-3.42531707848423e+000

1.66794521734578e+005,-1.67113270672251e+001,-3.47285079946766e+000

1.69122886489819e+005,-1.67115366105518e+001,-3.52103751259955e+000

1.71483754005805e+005,-1.67117513369493e+001,-3.56988597541625e+000

1.73877578004168e+005,-1.67119713575611e+001,-3.61940505794383e+000

1.76304818540256e+005,-1.67121967851208e+001,-3.66960374415226e+000

1.78765942091554e+005,-1.67124277339408e+001,-3.72049113344033e+000

1.81261421647326e+005,-1.67126643198986e+001,-3.77207644215035e+000

1.83791736799524e+005,-1.67129066604224e+001,-3.82436900511489e+000

1.86357373834951e+005,-1.67131548744749e+001,-3.87737827723755e+000

1.88958825828723e+005,-1.67134090825359e+001,-3.93111383510620e+000

1.91596592739027e+005,-1.67136694065825e+001,-3.98558537864496e+000

1.94271181503206e+005,-1.67139359700696e+001,-4.04080273280088e+000

1.96983106135185e+005,-1.67142088979072e+001,-4.09677584927118e+000

1.99732887824256e+005,-1.67144883164379e+001,-4.15351480827089e+000

2.02521055035243e+005,-1.67147743534122e+001,-4.21102982034081e+000

2.05348143610063e+005,-1.67150671379626e+001,-4.26933122820096e+000

2.08214696870707e+005,-1.67153668005781e+001,-4.32842950864770e+000

2.11121265723661e+005,-1.67156734730755e+001,-4.38833527449825e+000

2.14068408765776e+005,-1.67159872885721e+001,-4.44905927658380e+000

2.17056692391625e+005,-1.67163083814558e+001,-4.51061240579136e+000

2.20086690902357e+005,-1.67166368873561e+001,-4.57300569515951e+000

2.23158986616063e+005,-1.67169729431139e+001,-4.63625032202596e+000

2.26274169979693e+005,-1.67173166867517e+001,-4.70035761022954e+000

2.29432839682530e+005,-1.67176682574432e+001,-4.76533903237165e+000

2.32635602771247e+005,-1.67180277954836e+001,-4.83120621213354e+000

2.35883074766574e+005,-1.67183954422602e+001,-4.89797092665476e+000

2.39175879781588e+005,-1.67187713402236e+001,-4.96564510897366e+000

2.42514650641661e+005,-1.67191556328604e+001,-5.03424085052941e+000

2.45900029006080e+005,-1.67195484646664e+001,-5.10377040373125e+000

2.49332665491357e+005,-1.67199499811223e+001,-5.17424618459231e+000

2.52813219796278e+005,-1.67203603286704e+001,-5.24568077543135e+000

2.56342360828676e+005,-1.67207796546946e+001,-5.31808692764351e+000

2.59920766833993e+005,-1.67212081075018e+001,-5.39147756454224e+000

2.63549125525621e+005,-1.67216458363076e+001,-5.46586578427084e+000

2.67228134217075e+005,-1.67220929912247e+001,-5.54126486278794e+000

2.70958499956006e+005,-1.67225497232551e+001,-5.61768825692592e+000

2.74740939660078e+005,-1.67230161842872e+001,-5.69514960752301e+000

2.78576180254757e+005,-1.67234925270967e+001,-5.77366274263165e+000

2.82464958813007e+005,-1.67239789053539e+001,-5.85324168080029e+000

2.86408022696948e+005,-1.67244754736356e+001,-5.93390063443256e+000

2.90406129701488e+005,-1.67249823874435e+001,-6.01565401322209e+000

2.94460048199957e+005,-1.67254998032302e+001,-6.09851642766265e+000

2.98570557291775e+005,-1.67260278784306e+001,-6.18250269263537e+000

3.02738446952187e+005,-1.67265667715031e+001,-6.26762783107026e+000

3.06964518184081e+005,-1.67271166419771e+001,-6.35390707768401e+000

3.11249583171928e+005,-1.67276776505112e+001,-6.44135588279035e+000

3.15594465437872e+005,-1.67282499589589e+001,-6.52998991618601e+000

3.19999999999997e+005,-1.67288337304458e+001,-6.61982507110643e+000

3.24467033532806e+005,-1.67294291294559e+001,-6.71087746825367e+000

3.28996424529938e+005,-1.67300363219298e+001,-6.80316345989315e+000

3.33589043469155e+005,-1.67306554753736e+001,-6.89669963401667e+000

3.38245772979638e+005,-1.67312867589808e+001,-6.99150281857176e+000

3.42967508011610e+005,-1.67319303437653e+001,-7.08759008575287e+000

3.47755156008335e+005,-1.67325864027086e+001,-7.18497875635354e+000

3.52609637080511e+005,-1.67332551109196e+001,-7.28368640417519e+000

3.57531884183106e+005,-1.67339366458088e+001,-7.38373086049067e+000

3.62522843294651e+005,-1.67346311872768e+001,-7.48513021855939e+000

3.67583473599047e+005,-1.67353389179166e+001,-7.58790283818990e+000

3.72714747669902e+005,-1.67360600232324e+001,-7.69206735034642e+000

3.77917651657445e+005,-1.67367946918730e+001,-7.79764266179602e+000

3.83193185478053e+005,-1.67375431158803e+001,-7.90464795979313e+000

3.88542363006410e+005,-1.67383054909552e+001,-8.01310271679465e+000

3.93966212270369e+005,-1.67390820167387e+001,-8.12302669520491e+000

3.99465775648511e+005,-1.67398728971094e+001,-8.23443995214305e+000

4.05042110070485e+005,-1.67406783404981e+001,-8.34736284423096e+000

4.10696287220124e+005,-1.67414985602187e+001,-8.46181603239466e+000

4.16429393741414e+005,-1.67423337748155e+001,-8.57782048667719e+000

4.22242531447321e+005,-1.67431842084282e+001,-8.69539749105630e+000

4.28136817531551e+005,-1.67440500911720e+001,-8.81456864826291e+000

4.34113384783250e+005,-1.67449316595362e+001,-8.93535588459652e+000

4.40173381804713e+005,-1.67458291567978e+001,-9.05778145473214e+000

4.46317973232124e+005,-1.67467428334521e+001,-9.18186794651394e+000

4.52548339959385e+005,-1.67476729476593e+001,-9.30763828573264e+000

4.58865679365059e+005,-1.67486197657070e+001,-9.43511574087996e+000

4.65271205542494e+005,-1.67495835624878e+001,-9.56432392787893e+000

4.71766149533147e+005,-1.67505646219931e+001,-9.69528681478297e+000

4.78351759563174e+005,-1.67515632378207e+001,-9.82802872644227e+000

4.85029301283321e+005,-1.67525797136975e+001,-9.96257434913256e+000

4.91800058012158e+005,-1.67536143640153e+001,-1.00989487351428e+001

4.98665330982714e+005,-1.67546675143817e+001,-1.02371773073198e+001

5.05626439592555e+005,-1.67557395021822e+001,-1.03772858635644e+001

5.12684721657352e+005,-1.67568306771556e+001,-1.05193005812798e+001

5.19841533667984e+005,-1.67579414019815e+001,-1.06632480217668e+001

5.27098251051240e+005,-1.67590720528785e+001,-1.08091551345651e+001

5.34456268434150e+005,-1.67602230202136e+001,-1.09570492617385e+001

5.41916999912011e+005,-1.67613947091215e+001,-1.11069581421031e+001

