Freq.,VOut,OutRef

1.00000000000000e+004,-2.09192118899492e+001,-1.41486079181836e-001

1.01395947979003e+004,-2.09192129954968e+001,-1.43461034408717e-001

1.02811382665607e+004,-2.09192141321065e+001,-1.45463554023887e-001

1.04246576084112e+004,-2.09192153006503e+001,-1.47494022601770e-001

1.05701804056138e+004,-2.09192165020250e+001,-1.49552830075515e-001

1.07177346253629e+004,-2.09192177371524e+001,-1.51640371812791e-001

1.08673486252606e+004,-2.09192190069799e+001,-1.53757048691503e-001

1.10190511587661e+004,-2.09192203124819e+001,-1.55903267173461e-001

1.11728713807222e+004,-2.09192216546597e+001,-1.58079439386427e-001

1.13288388529580e+004,-2.09192230345431e+001,-1.60285983197921e-001

1.14869835499703e+004,-2.09192244531903e+001,-1.62523322298953e-001

1.16473358646846e+004,-2.09192259116898e+001,-1.64791886280868e-001

1.18099266142953e+004,-2.09192274111596e+001,-1.67092110723638e-001

1.19747870461893e+004,-2.09192289527501e+001,-1.69424437269727e-001

1.21419488439505e+004,-2.09192305376434e+001,-1.71789313716603e-001

1.23114441334492e+004,-2.09192321670546e+001,-1.74187194097906e-001

1.24833054890161e+004,-2.09192338422331e+001,-1.76618538769670e-001

1.26575659397028e+004,-2.09192355644633e+001,-1.79083814500617e-001

1.28342589756290e+004,-2.09192373350655e+001,-1.81583494557257e-001

1.30134185544193e+004,-2.09192391553969e+001,-1.84118058797416e-001

1.31950791077289e+004,-2.09192410268528e+001,-1.86687993760828e-001

1.33792755478611e+004,-2.09192429508674e+001,-1.89293792760692e-001

1.35660432744767e+004,-2.09192449289156e+001,-1.91935955974714e-001

1.37554181813974e+004,-2.09192469625127e+001,-1.94614990548375e-001

1.39474366635040e+004,-2.09192490532172e+001,-1.97331410681974e-001

1.41421356237309e+004,-2.09192512026307e+001,-2.00085737735085e-001

1.43395524801583e+004,-2.09192534124001e+001,-2.02878500320409e-001

1.45397251732031e+004,-2.09192556842180e+001,-2.05710234409816e-001

1.47426921729110e+004,-2.09192580198243e+001,-2.08581483430256e-001

1.49484924863494e+004,-2.09192604210079e+001,-2.11492798371034e-001

1.51571656651040e+004,-2.09192628896075e+001,-2.14444737886843e-001

1.53687518128801e+004,-2.09192654275132e+001,-2.17437868401887e-001

1.55832915932100e+004,-2.09192680366681e+001,-2.20472764220522e-001

1.58008262372675e+004,-2.09192707190697e+001,-2.23550007633022e-001

1.60213975517924e+004,-2.09192734767707e+001,-2.26670189030057e-001

1.62450479271247e+004,-2.09192763118821e+001,-2.29833907007577e-001

1.64718203453514e+004,-2.09192792265732e+001,-2.33041768487050e-001

1.67017583885674e+004,-2.09192822230741e+001,-2.36294388826115e-001

1.69349062472505e+004,-2.09192853036771e+001,-2.39592391936603e-001

1.71713087287550e+004,-2.09192884707389e+001,-2.42936410400163e-001

1.74110112659224e+004,-2.09192917266816e+001,-2.46327085591011e-001

1.76540599258131e+004,-2.09192950739948e+001,-2.49765067795808e-001

1.79005014185594e+004,-2.09192985152380e+001,-2.53251016333327e-001

1.81503831063432e+004,-2.09193020530419e+001,-2.56785599683461e-001

1.84037530124975e+004,-2.09193056901106e+001,-2.60369495609525e-001

1.86606598307361e+004,-2.09193094292237e+001,-2.64003391288486e-001

1.89211529345119e+004,-2.09193132732383e+001,-2.67687983437572e-001

1.91852823865052e+004,-2.09193172250908e+001,-2.71423978449593e-001

1.94530989482457e+004,-2.09193212878001e+001,-2.75212092520375e-001

1.97246540898671e+004,-2.09193254644686e+001,-2.79053051787861e-001

1.99999999999999e+004,-2.09193297582855e+001,-2.82947592464402e-001

2.02791895958005e+004,-2.09193341725287e+001,-2.86896460980235e-001

2.05622765331213e+004,-2.09193387105674e+001,-2.90900414116547e-001

2.08493152168224e+004,-2.09193433758646e+001,-2.94960219154685e-001

2.11403608112276e+004,-2.09193481719796e+001,-2.99076654013225e-001

2.14354692507258e+004,-2.09193531025707e+001,-3.03250507398473e-001

2.17346972505211e+004,-2.09193581713981e+001,-3.07482578949165e-001

2.20381023175322e+004,-2.09193633823265e+001,-3.11773679386369e-001

2.23457427614443e+004,-2.09193687393279e+001,-3.16124630665357e-001

2.26576777059159e+004,-2.09193742464846e+001,-3.20536266129414e-001

2.29739670999406e+004,-2.09193799079926e+001,-3.25009430663480e-001

2.32946717293690e+004,-2.09193857281643e+001,-3.29544980852006e-001

2.36198532285905e+004,-2.09193917114317e+001,-3.34143785140041e-001

2.39495740923785e+004,-2.09193978623498e+001,-3.38806723992336e-001

2.42838976879009e+004,-2.09194041855998e+001,-3.43534690059110e-001

2.46228882668982e+004,-2.09194106859931e+001,-3.48328588338459e-001

2.49666109780322e+004,-2.09194173684740e+001,-3.53189336348712e-001

2.53151318794055e+004,-2.09194242381243e+001,-3.58117864292386e-001

2.56685179512580e+004,-2.09194313001659e+001,-3.63115115234643e-001

2.60268371088386e+004,-2.09194385599657e+001,-3.68182045272547e-001

2.63901582154578e+004,-2.09194460230391e+001,-3.73319623713578e-001

2.67585510957221e+004,-2.09194536950537e+001,-3.78528833255973e-001

2.71320865489533e+004,-2.09194615818341e+001,-3.83810670165099e-001

2.75108363627948e+004,-2.09194696893658e+001,-3.89166144461129e-001

2.78948733270080e+004,-2.09194780237992e+001,-3.94596280103833e-001

2.82842712474618e+004,-2.09194865914550e+001,-4.00102115177718e-001

2.86791049603164e+004,-2.09194953988282e+001,-4.05684702084344e-001

2.90794503464061e+004,-2.09195044525926e+001,-4.11345107735957e-001

2.94853843458219e+004,-2.09195137596061e+001,-4.17084413747958e-001

2.98969849726987e+004,-2.09195233269154e+001,-4.22903716638196e-001

3.03143313302078e+004,-2.09195331617614e+001,-4.28804128026120e-001

3.07375036257601e+004,-2.09195432715840e+001,-4.34786774833360e-001

3.11665831864199e+004,-2.09195536640276e+001,-4.40852799492744e-001

3.16016524745350e+004,-2.09195643469469e+001,-4.47003360150836e-001

3.20427951035848e+004,-2.09195753284120e+001,-4.53239630880683e-001

3.24900958542493e+004,-2.09195866167146e+001,-4.59562801892752e-001

3.29436406907028e+004,-2.09195982203737e+001,-4.65974079750243e-001

3.34035167771346e+004,-2.09196101481418e+001,-4.72474687586398e-001

3.38698124945009e+004,-2.09196224090111e+001,-4.79065865324620e-001

3.43426174575100e+004,-2.09196350122197e+001,-4.85748869900563e-001

3.48220225318448e+004,-2.09196479672581e+001,-4.92524975489227e-001

3.53081198516260e+004,-2.09196612838766e+001,-4.99395473729019e-001

3.58010028371187e+004,-2.09196749720912e+001,-5.06361673956133e-001

3.63007662126863e+004,-2.09196890421913e+001,-5.13424903435729e-001

3.68075060249948e+004,-2.09197035047463e+001,-5.20586507599672e-001

3.73213196614721e+004,-2.09197183706139e+001,-5.27847850281701e-001

3.78423058690237e+004,-2.09197336509468e+001,-5.35210313963084e-001

3.83705647730104e+004,-2.09197493572007e+001,-5.42675300013688e-001

3.89061978964912e+004,-2.09197655011423e+001,-5.50244228940337e-001

3.94493081797342e+004,-2.09197820948579e+001,-5.57918540634226e-001

3.99999999999998e+004,-2.09197991507607e+001,-5.65699694627447e-001

4.05583791916010e+004,-2.09198166815999e+001,-5.73589170344130e-001

4.11245530662425e+004,-2.09198347004697e+001,-5.81588467360922e-001

4.16986304336447e+004,-2.09198532208177e+001,-5.89699105666559e-001

4.22807216224550e+004,-2.09198722564542e+001,-5.97922625925414e-001

4.28709385014515e+004,-2.09198918215615e+001,-6.06260589746296e-001

4.34693945010421e+004,-2.09199119307038e+001,-6.14714579948622e-001

4.40762046350642e+004,-2.09199325988365e+001,-6.23286200835419e-001

4.46914855228886e+004,-2.09199538413162e+001,-6.31977078471597e-001

4.53153554118317e+004,-2.09199756739117e+001,-6.40788860956077e-001

4.59479341998812e+004,-2.09199981128133e+001,-6.49723218707989e-001

4.65893434587380e+004,-2.09200211746443e+001,-6.58781844747088e-001

4.72397064571810e+004,-2.09200448764716e+001,-6.67966454981245e-001

4.78991481847569e+004,-2.09200692358172e+001,-6.77278788495823e-001

4.85677953758016e+004,-2.09200942706690e+001,-6.86720607845203e-001

4.92457765337964e+004,-2.09201199994930e+001,-6.96293699349912e-001

4.99332219560642e+004,-2.09201464412450e+001,-7.05999873391616e-001

5.06302637588109e+004,-2.09201736153825e+001,-7.15840964716876e-001

5.13370359025159e+004,-2.09202015418776e+001,-7.25818832738037e-001

5.20536742176771e+004,-2.09202302412291e+001,-7.35935361842342e-001

5.27803164309155e+004,-2.09202597344762e+001,-7.46192461698670e-001

5.35171021914442e+004,-2.09202900432105e+001,-7.56592067572207e-001

5.42641730979066e+004,-2.09203211895905e+001,-7.67136140637786e-001

5.50216727255895e+004,-2.09203531963549e+001,-7.77826668297796e-001

5.57897466540159e+004,-2.09203860868364e+001,-7.88665664502388e-001

5.65685424949235e+004,-2.09204198849762e+001,-7.99655170074992e-001

5.73582099206328e+004,-2.09204546153383e+001,-8.10797253034913e-001

5.81589006928121e+004,-2.09204903031242e+001,-8.22094008928883e-001

5.89707686916437e+004,-2.09205269741884e+001,-8.33547561160291e-001

5.97939699453972e+004,-2.09205646550531e+001,-8.45160061325591e-001

6.06286626604156e+004,-2.09206033729239e+001,-8.56933689548972e-001

6.14750072515201e+004,-2.09206431557062e+001,-8.68870654822782e-001

6.23331663728396e+004,-2.09206840320203e+001,-8.80973195349273e-001

6.32033049490698e+004,-2.09207260312187e+001,-8.93243578884616e-001

6.40855902071694e+004,-2.09207691834020e+001,-9.05684103087692e-001

6.49801917084985e+004,-2.09208135194363e+001,-9.18297095866335e-001

6.58872813814055e+004,-2.09208590709700e+001,-9.31084915732090e-001

6.68070335542691e+004,-2.09209058704514e+001,-9.44049952154684e-001

6.77396249890018e+004,-2.09209539511460e+001,-9.57194625916024e-001

6.86852349150199e+004,-2.09210033471547e+001,-9.70521389472318e-001

6.96440450636895e+004,-2.09210540934319e+001,-9.84032727312726e-001

7.06162397032520e+004,-2.09211062258035e+001,-9.97731156325827e-001

7.16020056742374e+004,-2.09211597809859e+001,-1.01161922616222e+000

7.26015324253724e+004,-2.09212147966043e+001,-1.02569951960525e+000

7.36150120499896e+004,-2.09212713112118e+001,-1.03997465293974e+000

7.46426393229441e+004,-2.09213293643090e+001,-1.05444727632290e+000

7.56846117380472e+004,-2.09213889963629e+001,-1.06912007416109e+000

7.67411295460207e+004,-2.09214502488263e+001,-1.08399576548303e+000

7.78123957929823e+004,-2.09215131641578e+001,-1.09907710431951e+000

7.88986163594682e+004,-2.09215777858416e+001,-1.11436688008258e+000

7.99999999999995e+004,-2.09216441584073e+001,-1.12986791794640e+000

8.11167583832018e+004,-2.09217123274499e+001,-1.14558307923156e+000

8.22491061324848e+004,-2.09217823396501e+001,-1.16151526178894e+000

8.33972608672892e+004,-2.09218542427945e+001,-1.17766740038640e+000

8.45614432449099e+004,-2.09219280857959e+001,-1.19404246709816e+000

8.57418770029029e+004,-2.09220039187137e+001,-1.21064347169138e+000

8.69387890020841e+004,-2.09220817927736e+001,-1.22747346202176e+000

8.81524092701283e+004,-2.09221617603888e+001,-1.24453552442112e+000

8.93829710457770e+004,-2.09222438751799e+001,-1.26183278409468e+000

9.06307108236633e+004,-2.09223281919948e+001,-1.27936840551451e+000

9.18958683997622e+004,-2.09224147669292e+001,-1.29714559281757e+000

9.31786869174758e+004,-2.09225036573464e+001,-1.31516759020140e+000

9.44794129143618e+004,-2.09225949218968e+001,-1.33343768232530e+000

9.57982963695136e+004,-2.09226886205383e+001,-1.35195919470838e+000

9.71355907516031e+004,-2.09227848145546e+001,-1.37073549413290e+000

9.84915530675926e+004,-2.09228835665750e+001,-1.38976998904583e+000

9.98664439121282e+004,-2.09229849405930e+001,-1.40906612996187e+000

1.01260527517622e+005,-2.09230890019844e+001,-1.42862740987072e+000

1.02674071805032e+005,-2.09231958175258e+001,-1.44845736464005e+000

1.04107348435354e+005,-2.09233054554114e+001,-1.46855957342534e+000

1.05560632861831e+005,-2.09234179852705e+001,-1.48893765907736e+000

1.07034204382888e+005,-2.09235334781840e+001,-1.50959528855230e+000

1.08528346195813e+005,-2.09236520066996e+001,-1.53053617332242e+000

1.10043345451179e+005,-2.09237736448477e+001,-1.55176406978890e+000

1.11579493308032e+005,-2.09238984681554e+001,-1.57328277969679e+000

1.13137084989847e+005,-2.09240265536600e+001,-1.59509615054903e+000

1.14716419841265e+005,-2.09241579799219e+001,-1.61720807602521e+000

1.16317801385624e+005,-2.09242928270365e+001,-1.63962249640071e+000

1.17941537383287e+005,-2.09244311766447e+001,-1.66234339896717e+000

1.19587939890794e+005,-2.09245731119428e+001,-1.68537481845731e+000

1.21257325320831e+005,-2.09247187176912e+001,-1.70872083746984e+000

1.22950014503040e+005,-2.09248680802214e+001,-1.73238558689860e+000

1.24666332745679e+005,-2.09250212874425e+001,-1.75637324636408e+000

1.26406609898139e+005,-2.09251784288455e+001,-1.78068804464763e+000

1.28171180414339e+005,-2.09253395955066e+001,-1.80533426013032e+000

1.29960383416997e+005,-2.09255048800887e+001,-1.83031622123599e+000

1.31774562762811e+005,-2.09256743768418e+001,-1.85563830687522e+000

1.33614067108538e+005,-2.09258481816008e+001,-1.88130494689864e+000

1.35479249978003e+005,-2.09260263917822e+001,-1.90732062255261e+000

1.37370469830040e+005,-2.09262091063785e+001,-1.93368986694099e+000

1.39288090127379e+005,-2.09263964259508e+001,-1.96041726549342e+000

1.41232479406504e+005,-2.09265884526195e+001,-1.98750745643989e+000

1.43204011348474e+005,-2.09267852900517e+001,-2.01496513129424e+000

1.45203064850745e+005,-2.09269870434482e+001,-2.04279503534318e+000

1.47230024099979e+005,-2.09271938195263e+001,-2.07100196814706e+000

1.49285278645888e+005,-2.09274057265012e+001,-2.09959078404806e+000

1.51369223476094e+005,-2.09276228740647e+001,-2.12856639269002e+000

1.53482259092041e+005,-2.09278453733604e+001,-2.15793375954922e+000

1.55624791585964e+005,-2.09280733369578e+001,-2.18769790647776e+000

1.57797232718936e+005,-2.09283068788215e+001,-2.21786391226055e+000

1.59999999999999e+005,-2.09285461142794e+001,-2.24843691318536e+000

1.62233516766403e+005,-2.09287911599866e+001,-2.27942210363139e+000

1.64498212264969e+005,-2.09290421338868e+001,-2.31082473667046e+000

1.66794521734578e+005,-2.09292991551704e+001,-2.34265012469062e+000

1.69122886489819e+005,-2.09295623442291e+001,-2.37490364003679e+000

1.71483754005805e+005,-2.09298318226079e+001,-2.40759071567165e+000

1.73877578004168e+005,-2.09301077129531e+001,-2.44071684586117e+000

1.76304818540256e+005,-2.09303901389571e+001,-2.47428758688227e+000

1.78765942091554e+005,-2.09306792252996e+001,-2.50830855775666e+000

1.81261421647326e+005,-2.09309750975860e+001,-2.54278544101149e+000

1.83791736799524e+005,-2.09312778822815e+001,-2.57772398346958e+000

1.86357373834951e+005,-2.09315877066419e+001,-2.61312999706977e+000

1.88958825828723e+005,-2.09319046986412e+001,-2.64900935972087e+000

1.91596592739027e+005,-2.09322289868955e+001,-2.68536801618939e+000

1.94271181503206e+005,-2.09325607005835e+001,-2.72221197902364e+000

1.96983106135185e+005,-2.09328999693632e+001,-2.75954732951835e+000

1.99732887824256e+005,-2.09332469232861e+001,-2.79738021871838e+000

2.02521055035243e+005,-2.09336016927071e+001,-2.83571686846696e+000

2.05348143610063e+005,-2.09339644081919e+001,-2.87456357249774e+000

2.08214696870707e+005,-2.09343352004211e+001,-2.91392669757545e+000

2.11121265723661e+005,-2.09347142000912e+001,-2.95381268468695e+000

2.14068408765776e+005,-2.09351015378131e+001,-2.99422805028330e+000

2.17056692391625e+005,-2.09354973440079e+001,-3.03517938757772e+000

2.20086690902357e+005,-2.09359017487998e+001,-3.07667336790049e+000

2.23158986616063e+005,-2.09363148819073e+001,-3.11871674211159e+000

2.26274169979693e+005,-2.09367368725329e+001,-3.16131634207818e+000

2.29432839682530e+005,-2.09371678492496e+001,-3.20447908221397e+000

2.32635602771247e+005,-2.09376079398875e+001,-3.24821196108649e+000

2.35883074766574e+005,-2.09380572714186e+001,-3.29252206309297e+000

2.39175879781588e+005,-2.09385159698412e+001,-3.33741656020707e+000

2.42514650641661e+005,-2.09389841600635e+001,-3.38290271380045e+000

2.45900029006080e+005,-2.09394619657879e+001,-3.42898787653801e+000

2.49332665491357e+005,-2.09399495093953e+001,-3.47567949435363e+000

2.52813219796278e+005,-2.09404469118307e+001,-3.52298510850277e+000

2.56342360828676e+005,-2.09409542924900e+001,-3.57091235769906e+000

2.59920766833993e+005,-2.09414717691088e+001,-3.61946898033265e+000

2.63549125525621e+005,-2.09419994576542e+001,-3.66866281677526e+000

2.67228134217075e+005,-2.09425374722191e+001,-3.71850181176936e+000

2.70958499956006e+005,-2.09430859249205e+001,-3.76899401690747e+000

2.74740939660078e+005,-2.09436449258022e+001,-3.82014759319894e+000

2.78576180254757e+005,-2.09442145827422e+001,-3.87197081372576e+000

2.82464958813007e+005,-2.09447950013662e+001,-3.92447206639135e+000

2.86408022696948e+005,-2.09453862849670e+001,-3.97765985675614e+000

2.90406129701488e+005,-2.09459885344311e+001,-4.03154281096768e+000

2.94460048199957e+005,-2.09466018481735e+001,-4.08612967877933e+000

2.98570557291775e+005,-2.09472263220801e+001,-4.14142933665972e+000

3.02738446952187e+005,-2.09478620494607e+001,-4.19745079099241e+000

3.06964518184081e+005,-2.09485091210103e+001,-4.25420318136399e+000

3.11249583171928e+005,-2.09491676247832e+001,-4.31169578393886e+000

3.15594465437872e+005,-2.09498376461770e+001,-4.36993801492041e+000

3.19999999999997e+005,-2.09505192679297e+001,-4.42893943409601e+000

3.24467033532806e+005,-2.09512125701300e+001,-4.48870974846272e+000

3.28996424529938e+005,-2.09519176302410e+001,-4.54925881593225e+000

3.33589043469155e+005,-2.09526345231389e+001,-4.61059664911161e+000

3.38245772979638e+005,-2.09533633211667e+001,-4.67273341915519e+000

3.42967508011610e+005,-2.09541040942039e+001,-4.73567945968711e+000

3.47755156008335e+005,-2.09548569097533e+001,-4.79944527078688e+000

3.52609637080511e+005,-2.09556218330447e+001,-4.86404152303532e+000

3.57531884183106e+005,-2.09563989271563e+001,-4.92947906161641e+000

3.62522843294651e+005,-2.09571882531556e+001,-4.99576891046958e+000

3.67583473599047e+005,-2.09579898702581e+001,-5.06292227648664e+000

3.72714747669902e+005,-2.09588038360062e+001,-5.13095055374878e+000

3.77917651657445e+005,-2.09596302064683e+001,-5.19986532779606e+000

3.83193185478053e+005,-2.09604690364571e+001,-5.26967837992656e+000

3.88542363006410e+005,-2.09613203797701e+001,-5.34040169151413e+000

3.93966212270369e+005,-2.09621842894495e+001,-5.41204744834292e+000

3.99465775648511e+005,-2.09630608180639e+001,-5.48462804494872e+000

4.05042110070485e+005,-2.09639500180115e+001,-5.55815608896168e+000

4.10696287220124e+005,-2.09648519418440e+001,-5.63264440544367e+000

4.16429393741414e+005,-2.09657666426118e+001,-5.70810604121220e+000

4.22242531447321e+005,-2.09666941742305e+001,-5.78455426914597e+000

4.28136817531551e+005,-2.09676345918688e+001,-5.86200259246192e+000

4.34113384783250e+005,-2.09685879523565e+001,-5.94046474896042e+000

4.40173381804713e+005,-2.09695543146130e+001,-6.01995471522923e+000

4.46317973232124e+005,-2.09705337400967e+001,-6.10048671080035e+000

4.52548339959385e+005,-2.09715262932731e+001,-6.18207520225294e+000

4.58865679365059e+005,-2.09725320421024e+001,-6.26473490725744e+000

4.65271205542494e+005,-2.09735510585460e+001,-6.34848079855229e+000

4.71766149533147e+005,-2.09745834190899e+001,-6.43332810784979e+000

4.78351759563174e+005,-2.09756292052864e+001,-6.51929232966411e+000

4.85029301283321e+005,-2.09766885043117e+001,-6.60638922505694e+000

4.91800058012158e+005,-2.09777614095387e+001,-6.69463482529666e+000

4.98665330982714e+005,-2.09788480211249e+001,-6.78404543542515e+000

5.05626439592555e+005,-2.09799484466146e+001,-6.87463763773006e+000

5.12684721657352e+005,-2.09810628015528e+001,-6.96642829511793e+000

5.19841533667984e+005,-2.09821912101119e+001,-7.05943455438580e+000

5.27098251051240e+005,-2.09833338057287e+001,-7.15367384938901e+000

5.34456268434150e+005,-2.09844907317516e+001,-7.24916390410324e+000

5.41916999912011e+005,-2.09856621420964e+001,-7.34592273557837e+000

