Freq.,VOut,OutRef

1.00000000000000e+004,-1.79876005572726e+001,-3.12242030346699e-001

1.01395947979003e+004,-1.79876020601149e+001,-3.16600664437702e-001

1.02811382665607e+004,-1.79876036051923e+001,-3.21020138454559e-001

1.04246576084112e+004,-1.79876051936914e+001,-3.25501301505916e-001

1.05701804056138e+004,-1.79876068268318e+001,-3.30045014547890e-001

1.07177346253629e+004,-1.79876085058677e+001,-3.34652150545519e-001

1.08673486252606e+004,-1.79876102320884e+001,-3.39323594641272e-001

1.10190511587661e+004,-1.79876120068194e+001,-3.44060244325177e-001

1.11728713807222e+004,-1.79876138314232e+001,-3.48863009607172e-001

1.13288388529580e+004,-1.79876157073007e+001,-3.53732813190036e-001

1.14869835499703e+004,-1.79876176358921e+001,-3.58670590648049e-001

1.16473358646846e+004,-1.79876196186781e+001,-3.63677290603691e-001

1.18099266142953e+004,-1.79876216571808e+001,-3.68753874911978e-001

1.19747870461893e+004,-1.79876237529650e+001,-3.73901318842916e-001

1.21419488439505e+004,-1.79876259076396e+001,-3.79120611270049e-001

1.23114441334492e+004,-1.79876281228584e+001,-3.84412754857034e-001

1.24833054890161e+004,-1.79876304003218e+001,-3.89778766252566e-001

1.26575659397028e+004,-1.79876327417778e+001,-3.95219676283969e-001

1.28342589756290e+004,-1.79876351490234e+001,-4.00736530153458e-001

1.30134185544193e+004,-1.79876376239061e+001,-4.06330387640537e-001

1.31950791077289e+004,-1.79876401683252e+001,-4.12002323301457e-001

1.33792755478611e+004,-1.79876427842332e+001,-4.17753426678368e-001

1.35660432744767e+004,-1.79876454736372e+001,-4.23584802507726e-001

1.37554181813974e+004,-1.79876482386012e+001,-4.29497570926811e-001

1.39474366635040e+004,-1.79876510812463e+001,-4.35492867694639e-001

1.41421356237309e+004,-1.79876540037536e+001,-4.41571844405199e-001

1.43395524801583e+004,-1.79876570083651e+001,-4.47735668707464e-001

1.45397251732031e+004,-1.79876600973857e+001,-4.53985524532449e-001

1.47426921729110e+004,-1.79876632731849e+001,-4.60322612314856e-001

1.49484924863494e+004,-1.79876665381988e+001,-4.66748149225884e-001

1.51571656651040e+004,-1.79876698949315e+001,-4.73263369404542e-001

1.53687518128801e+004,-1.79876733459574e+001,-4.79869524193797e-001

1.55832915932100e+004,-1.79876768939232e+001,-4.86567882379637e-001

1.58008262372675e+004,-1.79876805415494e+001,-4.93359730434529e-001

1.60213975517924e+004,-1.79876842916329e+001,-5.00246372762223e-001

1.62450479271247e+004,-1.79876881470492e+001,-5.07229131945298e-001

1.64718203453514e+004,-1.79876921107538e+001,-5.14309349001543e-001

1.67017583885674e+004,-1.79876961857855e+001,-5.21488383637320e-001

1.69349062472505e+004,-1.79877003752679e+001,-5.28767614507450e-001

1.71713087287550e+004,-1.79877046824122e+001,-5.36148439479306e-001

1.74110112659224e+004,-1.79877091105194e+001,-5.43632275898760e-001

1.76540599258131e+004,-1.79877136629831e+001,-5.51220560860407e-001

1.79005014185594e+004,-1.79877183432917e+001,-5.58914751483346e-001

1.81503831063432e+004,-1.79877231550314e+001,-5.66716325187031e-001

1.84037530124975e+004,-1.79877281018885e+001,-5.74626779974941e-001

1.86606598307361e+004,-1.79877331876528e+001,-5.82647634718327e-001

1.89211529345119e+004,-1.79877384162197e+001,-5.90780429447268e-001

1.91852823865052e+004,-1.79877437915942e+001,-5.99026725642858e-001

1.94530989482457e+004,-1.79877493178926e+001,-6.07388106535530e-001

1.97246540898671e+004,-1.79877549993469e+001,-6.15866177407335e-001

1.99999999999999e+004,-1.79877608403070e+001,-6.24462565895996e-001

2.02791895958005e+004,-1.79877668452448e+001,-6.33178922304643e-001

2.05622765331213e+004,-1.79877730187569e+001,-6.42016919918375e-001

2.08493152168224e+004,-1.79877793655685e+001,-6.50978255321109e-001

2.11403608112276e+004,-1.79877858905370e+001,-6.60064648716293e-001

2.14354692507258e+004,-1.79877925986551e+001,-6.69277844258999e-001

2.17346972505211e+004,-1.79877994950554e+001,-6.78619610381697e-001

2.20381023175322e+004,-1.79878065850135e+001,-6.88091740135620e-001

2.23457427614443e+004,-1.79878138739528e+001,-6.97696051527062e-001

2.26576777059159e+004,-1.79878213674475e+001,-7.07434387866650e-001

2.29739670999406e+004,-1.79878290712278e+001,-7.17308618116055e-001

2.32946717293690e+004,-1.79878369911838e+001,-7.27320637244546e-001

2.36198532285905e+004,-1.79878451333700e+001,-7.37472366587878e-001

2.39495740923785e+004,-1.79878535040094e+001,-7.47765754213924e-001

2.42838976879009e+004,-1.79878621094990e+001,-7.58202775290325e-001

2.46228882668982e+004,-1.79878709564140e+001,-7.68785432459464e-001

2.49666109780322e+004,-1.79878800515129e+001,-7.79515756219361e-001

2.53151318794055e+004,-1.79878894017427e+001,-7.90395805305694e-001

2.56685179512580e+004,-1.79878990142439e+001,-8.01427667083790e-001

2.60268371088386e+004,-1.79879088963557e+001,-8.12613457942473e-001

2.63901582154578e+004,-1.79879190556221e+001,-8.23955323694992e-001

2.67585510957221e+004,-1.79879294997967e+001,-8.35455439984391e-001

2.71320865489533e+004,-1.79879402368494e+001,-8.47116012694906e-001

2.75108363627948e+004,-1.79879512749717e+001,-8.58939278367596e-001

2.78948733270080e+004,-1.79879626225827e+001,-8.70927504625606e-001

2.82842712474618e+004,-1.79879742883361e+001,-8.83082990598414e-001

2.86791049603164e+004,-1.79879862811260e+001,-8.95408067358509e-001

2.90794503464061e+004,-1.79879986100936e+001,-9.07905098358960e-001

2.94853843458219e+004,-1.79880112846342e+001,-9.20576479879720e-001

2.98969849726987e+004,-1.79880243144043e+001,-9.33424641479100e-001

3.03143313302078e+004,-1.79880377093280e+001,-9.46452046450551e-001

3.07375036257601e+004,-1.79880514796053e+001,-9.59661192286124e-001

3.11665831864199e+004,-1.79880656357193e+001,-9.73054611146122e-001

3.16016524745350e+004,-1.79880801884434e+001,-9.86634870335687e-001

3.20427951035848e+004,-1.79880951488502e+001,-1.00040457278556e+000

3.24900958542493e+004,-1.79881105283188e+001,-1.01436635754171e+000

3.29436406907028e+004,-1.79881263385440e+001,-1.02852290025972e+000

3.34035167771346e+004,-1.79881425915441e+001,-1.04287691370627e+000

3.38698124945009e+004,-1.79881592996701e+001,-1.05743114826779e+000

3.43426174575100e+004,-1.79881764756150e+001,-1.07218839246516e+000

3.48220225318448e+004,-1.79881941324228e+001,-1.08715147347326e+000

3.53081198516260e+004,-1.79882122834979e+001,-1.10232325765335e+000

3.58010028371187e+004,-1.79882309426153e+001,-1.11770665108485e+000

3.63007662126863e+004,-1.79882501239304e+001,-1.13330460010891e+000

3.68075060249948e+004,-1.79882698419892e+001,-1.14912009187824e+000

3.73213196614721e+004,-1.79882901117394e+001,-1.16515615491260e+000

3.78423058690237e+004,-1.79883109485406e+001,-1.18141585966456e+000

3.83705647730104e+004,-1.79883323681757e+001,-1.19790231908744e+000

3.89061978964912e+004,-1.79883543868627e+001,-1.21461868921724e+000

3.94493081797342e+004,-1.79883770212657e+001,-1.23156816975559e+000

3.99999999999998e+004,-1.79884002885075e+001,-1.24875400466575e+000

4.05583791916010e+004,-1.79884242061817e+001,-1.26617948277267e+000

4.11245530662425e+004,-1.79884487923655e+001,-1.28384793837047e+000

4.16986304336447e+004,-1.79884740656323e+001,-1.30176275184267e+000

4.22807216224550e+004,-1.79885000450656e+001,-1.31992735028343e+000

4.28709385014515e+004,-1.79885267502720e+001,-1.33834520813100e+000

4.34693945010421e+004,-1.79885542013955e+001,-1.35701984781014e+000

4.40762046350642e+004,-1.79885824191321e+001,-1.37595484037812e+000

4.46914855228886e+004,-1.79886114247439e+001,-1.39515380618291e+000

4.53153554118317e+004,-1.79886412400745e+001,-1.41462041552966e+000

4.59479341998812e+004,-1.79886718875647e+001,-1.43435838935151e+000

4.65893434587380e+004,-1.79887033902677e+001,-1.45437149989484e+000

4.72397064571810e+004,-1.79887357718659e+001,-1.47466357140696e+000

4.78991481847569e+004,-1.79887690566871e+001,-1.49523848083810e+000

4.85677953758016e+004,-1.79888032697217e+001,-1.51610015854724e+000

4.92457765337964e+004,-1.79888384366405e+001,-1.53725258901994e+000

4.99332219560642e+004,-1.79888745838118e+001,-1.55869981159400e+000

5.06302637588109e+004,-1.79889117383203e+001,-1.58044592119415e+000

5.13370359025159e+004,-1.79889499279858e+001,-1.60249506907469e+000

5.20536742176771e+004,-1.79889891813819e+001,-1.62485146357419e+000

5.27803164309155e+004,-1.79890295278565e+001,-1.64751937087564e+000

5.35171021914442e+004,-1.79890709975511e+001,-1.67050311577922e+000

5.42641730979066e+004,-1.79891136214221e+001,-1.69380708248195e+000

5.50216727255895e+004,-1.79891574312612e+001,-1.71743571536821e+000

5.57897466540159e+004,-1.79892024597176e+001,-1.74139351980971e+000

5.65685424949235e+004,-1.79892487403199e+001,-1.76568506297492e+000

5.73582099206328e+004,-1.79892963074983e+001,-1.79031497464710e+000

5.81589006928121e+004,-1.79893451966086e+001,-1.81528794805405e+000

5.89707686916437e+004,-1.79893954439549e+001,-1.84060874070653e+000

5.97939699453972e+004,-1.79894470868144e+001,-1.86628217524680e+000

6.06286626604156e+004,-1.79895001634620e+001,-1.89231314030745e+000

6.14750072515201e+004,-1.79895547131957e+001,-1.91870659137934e+000

6.23331663728396e+004,-1.79896107763621e+001,-1.94546755169176e+000

6.32033049490698e+004,-1.79896683943833e+001,-1.97260111310049e+000

6.40855902071694e+004,-1.79897276097836e+001,-2.00011243698819e+000

6.49801917084985e+004,-1.79897884662175e+001,-2.02800675517329e+000

6.58872813814055e+004,-1.79898510084971e+001,-2.05628937083184e+000

6.68070335542691e+004,-1.79899152826221e+001,-2.08496565942653e+000

6.77396249890018e+004,-1.79899813358081e+001,-2.11404106965038e+000

6.86852349150199e+004,-1.79900492165174e+001,-2.14352112437759e+000

6.96440450636895e+004,-1.79901189744895e+001,-2.17341142162693e+000

7.06162397032520e+004,-1.79901906607721e+001,-2.20371763553669e+000

7.16020056742374e+004,-1.79902643277533e+001,-2.23444551734835e+000

7.26015324253724e+004,-1.79903400291944e+001,-2.26560089640356e+000

7.36150120499896e+004,-1.79904178202630e+001,-2.29718968114982e+000

7.46426393229441e+004,-1.79904977575665e+001,-2.32921786016090e+000

7.56846117380472e+004,-1.79905798991875e+001,-2.36169150316414e+000

7.67411295460207e+004,-1.79906643047182e+001,-2.39461676208267e+000

7.78123957929823e+004,-1.79907510352971e+001,-2.42799987208717e+000

7.88986163594682e+004,-1.79908401536449e+001,-2.46184715265921e+000

7.99999999999995e+004,-1.79909317241025e+001,-2.49616500866714e+000

8.11167583832018e+004,-1.79910258126681e+001,-2.53095993145249e+000

8.22491061324848e+004,-1.79911224870367e+001,-2.56623849992897e+000

8.33972608672892e+004,-1.79912218166389e+001,-2.60200738169291e+000

8.45614432449099e+004,-1.79913238726812e+001,-2.63827333414408e+000

8.57418770029029e+004,-1.79914287281865e+001,-2.67504320562253e+000

8.69387890020841e+004,-1.79915364580357e+001,-2.71232393655264e+000

8.81524092701283e+004,-1.79916471390097e+001,-2.75012256060258e+000

8.93829710457770e+004,-1.79917608498320e+001,-2.78844620585479e+000

9.06307108236633e+004,-1.79918776712124e+001,-2.82730209598881e+000

9.18958683997622e+004,-1.79919976858913e+001,-2.86669755147663e+000

9.31786869174758e+004,-1.79921209786839e+001,-2.90663999079077e+000

9.44794129143618e+004,-1.79922476365261e+001,-2.94713693162481e+000

9.57982963695136e+004,-1.79923777485208e+001,-2.98819599212641e+000

9.71355907516031e+004,-1.79925114059840e+001,-3.02982489214394e+000

9.84915530675926e+004,-1.79926487024931e+001,-3.07203145448469e+000

9.98664439121282e+004,-1.79927897339342e+001,-3.11482360618788e+000

1.01260527517622e+005,-1.79929345985512e+001,-3.15820937980995e+000

1.02674071805032e+005,-1.79930833969951e+001,-3.20219691472266e+000

1.04107348435354e+005,-1.79932362323736e+001,-3.24679445842612e+000

1.05560632861831e+005,-1.79933932103017e+001,-3.29201036787502e+000

1.07034204382888e+005,-1.79935544389532e+001,-3.33785311081687e+000

1.08528346195813e+005,-1.79937200291115e+001,-3.38433126714755e+000

1.10043345451179e+005,-1.79938900942223e+001,-3.43145353027909e+000

1.11579493308032e+005,-1.79940647504461e+001,-3.47922870852126e+000

1.13137084989847e+005,-1.79942441167112e+001,-3.52766572647910e+000

1.14716419841265e+005,-1.79944283147676e+001,-3.57677362646544e+000

1.16317801385624e+005,-1.79946174692408e+001,-3.62656156992715e+000

1.17941537383287e+005,-1.79948117076865e+001,-3.67703883888800e+000

1.19587939890794e+005,-1.79950111606452e+001,-3.72821483740628e+000

1.21257325320831e+005,-1.79952159616978e+001,-3.78009909304946e+000

1.22950014503040e+005,-1.79954262475213e+001,-3.83270125838352e+000

1.24666332745679e+005,-1.79956421579443e+001,-3.88603111248024e+000

1.26406609898139e+005,-1.79958638360036e+001,-3.94009856244131e+000

1.28171180414339e+005,-1.79960914280007e+001,-3.99491364493815e+000

1.29960383416997e+005,-1.79963250835583e+001,-4.05048652777228e+000

1.31774562762811e+005,-1.79965649556778e+001,-4.10682751145005e+000

1.33614067108538e+005,-1.79968112007957e+001,-4.16394703078053e+000

1.35479249978003e+005,-1.79970639788415e+001,-4.22185565648844e+000

1.37370469830040e+005,-1.79973234532949e+001,-4.28056409684854e+000

1.39288090127379e+005,-1.79975897912432e+001,-4.34008319934106e+000

1.41232479406504e+005,-1.79978631634389e+001,-4.40042395232541e+000

1.43204011348474e+005,-1.79981437443573e+001,-4.46159748673764e+000

1.45203064850745e+005,-1.79984317122541e+001,-4.52361507780796e+000

1.47230024099979e+005,-1.79987272492229e+001,-4.58648814680298e+000

1.49285278645888e+005,-1.79990305412526e+001,-4.65022826278965e+000

1.51369223476094e+005,-1.79993417782848e+001,-4.71484714442424e+000

1.53482259092041e+005,-1.79996611542715e+001,-4.78035666176582e+000

1.55624791585964e+005,-1.79999888672318e+001,-4.84676883811645e+000

1.57797232718936e+005,-1.80003251193090e+001,-4.91409585188769e+000

1.59999999999999e+005,-1.80006701168278e+001,-4.98235003849413e+000

1.62233516766403e+005,-1.80010240703509e+001,-5.05154389227657e+000

1.64498212264969e+005,-1.80013871947354e+001,-5.12169006845510e+000

1.66794521734578e+005,-1.80017597091894e+001,-5.19280138511171e+000

1.69122886489819e+005,-1.80021418373283e+001,-5.26489082520630e+000

1.71483754005805e+005,-1.80025338072310e+001,-5.33797153862467e+000

1.73877578004168e+005,-1.80029358514956e+001,-5.41205684426210e+000

1.76304818540256e+005,-1.80033482072954e+001,-5.48716023214106e+000

1.78765942091554e+005,-1.80037711164350e+001,-5.56329536556731e+000

1.81261421647326e+005,-1.80042048254058e+001,-5.64047608332357e+000

1.83791736799524e+005,-1.80046495854419e+001,-5.71871640190323e+000

1.86357373834951e+005,-1.80051056525765e+001,-5.79803051778478e+000

1.88958825828723e+005,-1.80055732876972e+001,-5.87843280975027e+000

1.91596592739027e+005,-1.80060527566030e+001,-5.95993784124635e+000

1.94271181503206e+005,-1.80065443300609e+001,-6.04256036279254e+000

1.96983106135185e+005,-1.80070482838630e+001,-6.12631531443638e+000

1.99732887824256e+005,-1.80075648988842e+001,-6.21121782825842e+000

2.02521055035243e+005,-1.80080944611410e+001,-6.29728323092703e+000

2.05348143610063e+005,-1.80086372618507e+001,-6.38452704630688e+000

2.08214696870707e+005,-1.80091935974919e+001,-6.47296499812104e+000

2.11121265723661e+005,-1.80097637698664e+001,-6.56261301267000e+000

2.14068408765776e+005,-1.80103480861622e+001,-6.65348722160757e+000

2.17056692391625e+005,-1.80109468590185e+001,-6.74560396477734e+000

2.20086690902357e+005,-1.80115604065925e+001,-6.83897979310989e+000

2.23158986616063e+005,-1.80121890526289e+001,-6.93363147158375e+000

2.26274169979693e+005,-1.80128331265307e+001,-7.02957598225124e+000

2.29432839682530e+005,-1.80134929634344e+001,-7.12683052733043e+000

2.32635602771247e+005,-1.80141689042873e+001,-7.22541253236615e+000

2.35883074766574e+005,-1.80148612959286e+001,-7.32533964946039e+000

2.39175879781588e+005,-1.80155704911746e+001,-7.42662976057520e+000

2.42514650641661e+005,-1.80162968489079e+001,-7.52930098090734e+000

2.45900029006080e+005,-1.80170407341717e+001,-7.63337166233835e+000

2.49332665491357e+005,-1.80178025182693e+001,-7.73886039696057e+000

2.52813219796278e+005,-1.80185825788688e+001,-7.84578602067988e+000

2.56342360828676e+005,-1.80193813001147e+001,-7.95416761689636e+000

2.59920766833993e+005,-1.80201990727459e+001,-8.06402452026492e+000

2.63549125525621e+005,-1.80210362942207e+001,-8.17537632053609e+000

2.67228134217075e+005,-1.80218933688505e+001,-8.28824286647606e+000

2.70958499956006e+005,-1.80227707079412e+001,-8.40264426987000e+000

2.74740939660078e+005,-1.80236687299438e+001,-8.51860090960568e+000

2.78576180254757e+005,-1.80245878606154e+001,-8.63613343583978e+000

2.82464958813007e+005,-1.80255285331897e+001,-8.75526277424421e+000

2.86408022696948e+005,-1.80264911885590e+001,-8.87601013033652e+000

2.90406129701488e+005,-1.80274762754684e+001,-8.99839699388820e+000

2.94460048199957e+005,-1.80284842507217e+001,-9.12244514341495e+000

2.98570557291775e+005,-1.80295155794009e+001,-9.24817665074574e+000

3.02738446952187e+005,-1.80305707350997e+001,-9.37561388566842e+000

3.06964518184081e+005,-1.80316502001720e+001,-9.50477952065216e+000

3.11249583171928e+005,-1.80327544659947e+001,-9.63569653564399e+000

3.15594465437872e+005,-1.80338840332479e+001,-9.76838822293654e+000

3.19999999999997e+005,-1.80350394122118e+001,-9.90287819210534e+000

3.24467033532806e+005,-1.80362211230803e+001,-1.00391903750126e+001

3.28996424529938e+005,-1.80374296962945e+001,-1.01773490308736e+001

3.33589043469155e+005,-1.80386656728940e+001,-1.03173787513834e+001

3.38245772979638e+005,-1.80399296048891e+001,-1.04593044658978e+001

3.42967508011610e+005,-1.80412220556524e+001,-1.06031514466677e+001

3.47755156008335e+005,-1.80425436003332e+001,-1.07489453141182e+001

3.52609637080511e+005,-1.80438948262920e+001,-1.08967120421712e+001

3.57531884183106e+005,-1.80452763335585e+001,-1.10464779636038e+001

3.62522843294651e+005,-1.80466887353130e+001,-1.11982697754384e+001

3.67583473599047e+005,-1.80481326583903e+001,-1.13521145443577e+001

3.72714747669902e+005,-1.80496087438086e+001,-1.15080397121392e+001

3.77917651657445e+005,-1.80511176473230e+001,-1.16660731011015e+001

3.83193185478053e+005,-1.80526600400032e+001,-1.18262429195584e+001

3.88542363006410e+005,-1.80542366088380e+001,-1.19885777672692e+001

3.93966212270369e+005,-1.80558480573643e+001,-1.21531066408840e+001

3.99465775648511e+005,-1.80574951063223e+001,-1.23198589393705e+001

4.05042110070485e+005,-1.80591784943380e+001,-1.24888644694191e+001

4.10696287220124e+005,-1.80608989786304e+001,-1.26601534508171e+001

4.16429393741414e+005,-1.80626573357466e+001,-1.28337565217823e+001

4.22242531447321e+005,-1.80644543623223e+001,-1.30097047442517e+001

4.28136817531551e+005,-1.80662908758696e+001,-1.31880296091129e+001

4.34113384783250e+005,-1.80681677155907e+001,-1.33687630413745e+001

4.40173381804713e+005,-1.80700857432177e+001,-1.35519374052625e+001

4.46317973232124e+005,-1.80720458438785e+001,-1.37375855092386e+001

4.52548339959385e+005,-1.80740489269882e+001,-1.39257406109294e+001

4.58865679365059e+005,-1.80760959271662e+001,-1.41164364219605e+001

4.65271205542494e+005,-1.80781878051772e+001,-1.43097071126853e+001

4.71766149533147e+005,-1.80803255488976e+001,-1.45055873168022e+001

4.78351759563174e+005,-1.80825101743049e+001,-1.47041121358516e+001

4.85029301283321e+005,-1.80847427264906e+001,-1.49053171435854e+001

4.91800058012158e+005,-1.80870242806954e+001,-1.51092383902012e+001

4.98665330982714e+005,-1.80893559433664e+001,-1.53159124064337e+001

5.05626439592555e+005,-1.80917388532348e+001,-1.55253762074976e+001

5.12684721657352e+005,-1.80941741824143e+001,-1.57376672968732e+001

5.19841533667984e+005,-1.80966631375186e+001,-1.59528236699297e+001

5.27098251051240e+005,-1.80992069607970e+001,-1.61708838173797e+001

5.34456268434150e+005,-1.81018069312876e+001,-1.63918867285574e+001

5.41916999912011e+005,-1.81044643659871e+001,-1.66158718945176e+001

