Freq.,VOut,OutRef

1.00000000000000e+004,-1.44082356307315e+001,-7.26644943701813e-002

1.01395947979003e+004,-1.44082358048162e+001,-7.36788327325308e-002

1.02811382665607e+004,-1.44082359837918e+001,-7.47073298736988e-002

1.04246576084112e+004,-1.44082361677953e+001,-7.57501834094614e-002

1.05701804056138e+004,-1.44082363569684e+001,-7.68075937054520e-002

1.07177346253629e+004,-1.44082365514556e+001,-7.78797639307462e-002

1.08673486252606e+004,-1.44082367514069e+001,-7.89669000808132e-002

1.10190511587661e+004,-1.44082369569748e+001,-8.00692110342361e-002

1.11728713807222e+004,-1.44082371683177e+001,-8.11869085739113e-002

1.13288388529580e+004,-1.44082373855971e+001,-8.23202074460745e-002

1.14869835499703e+004,-1.44082376089799e+001,-8.34693253859227e-002

1.16473358646846e+004,-1.44082378386374e+001,-8.46344831698462e-002

1.18099266142953e+004,-1.44082380747457e+001,-8.58159046524865e-002

1.19747870461893e+004,-1.44082383174855e+001,-8.70138168135415e-002

1.21419488439505e+004,-1.44082385670435e+001,-8.82284497929336e-002

1.23114441334492e+004,-1.44082388236105e+001,-8.94600369483039e-002

1.24833054890161e+004,-1.44082390873836e+001,-9.07088148861183e-002

1.26575659397028e+004,-1.44082393585646e+001,-9.19750235175432e-002

1.28342589756290e+004,-1.44082396373613e+001,-9.32589060988994e-002

1.30134185544193e+004,-1.44082399239876e+001,-9.45607092769948e-002

1.31950791077289e+004,-1.44082402186631e+001,-9.58806831410181e-002

1.33792755478611e+004,-1.44082405216135e+001,-9.72190812677640e-002

1.35660432744767e+004,-1.44082408330709e+001,-9.85761607700696e-002

1.37554181813974e+004,-1.44082411532739e+001,-9.99521823475432e-002

1.39474366635040e+004,-1.44082414824678e+001,-1.01347410333800e-001

1.41421356237309e+004,-1.44082418209045e+001,-1.02762112751098e-001

1.43395524801583e+004,-1.44082421688436e+001,-1.04196561356658e-001

1.45397251732031e+004,-1.44082425265512e+001,-1.05651031699031e-001

1.47426921729110e+004,-1.44082428943012e+001,-1.07125803168988e-001

1.49484924863494e+004,-1.44082432723752e+001,-1.08621159053004e-001

1.51571656651040e+004,-1.44082436610628e+001,-1.10137386585683e-001

1.53687518128801e+004,-1.44082440606611e+001,-1.11674777010689e-001

1.55832915932100e+004,-1.44082444714762e+001,-1.13233625627619e-001

1.58008262372675e+004,-1.44082448938223e+001,-1.14814231856575e-001

1.60213975517924e+004,-1.44082453280224e+001,-1.16416899292549e-001

1.62450479271247e+004,-1.44082457744089e+001,-1.18041935758564e-001

1.64718203453514e+004,-1.44082462333232e+001,-1.19689653372586e-001

1.67017583885674e+004,-1.44082467051163e+001,-1.21360368602489e-001

1.69349062472505e+004,-1.44082471901488e+001,-1.23054402328913e-001

1.71713087287550e+004,-1.44082476887913e+001,-1.24772079904647e-001

1.74110112659224e+004,-1.44082482014255e+001,-1.26513731214370e-001

1.76540599258131e+004,-1.44082487284429e+001,-1.28279690744393e-001

1.79005014185594e+004,-1.44082492702461e+001,-1.30070297642408e-001

1.81503831063432e+004,-1.44082498272492e+001,-1.31885895780887e-001

1.84037530124975e+004,-1.44082503998779e+001,-1.33726833824170e-001

1.86606598307361e+004,-1.44082509885692e+001,-1.35593465299524e-001

1.89211529345119e+004,-1.44082515937727e+001,-1.37486148656657e-001

1.91852823865052e+004,-1.44082522159507e+001,-1.39405247339137e-001

1.94530989482457e+004,-1.44082528555777e+001,-1.41351129858824e-001

1.97246540898671e+004,-1.44082535131423e+001,-1.43324169857380e-001

1.99999999999999e+004,-1.44082541891459e+001,-1.45324746184925e-001

2.02791895958005e+004,-1.44082548841044e+001,-1.47353242967311e-001

2.05622765331213e+004,-1.44082555985477e+001,-1.49410049683433e-001

2.08493152168224e+004,-1.44082563330206e+001,-1.51495561235663e-001

2.11403608112276e+004,-1.44082570880831e+001,-1.53610178027545e-001

2.14354692507258e+004,-1.44082578643105e+001,-1.55754306039870e-001

2.17346972505211e+004,-1.44082586622945e+001,-1.57928356906162e-001

2.20381023175322e+004,-1.44082594826428e+001,-1.60132747992798e-001

2.23457427614443e+004,-1.44082603259802e+001,-1.62367902478757e-001

2.26576777059159e+004,-1.44082611929489e+001,-1.64634249434425e-001

2.29739670999406e+004,-1.44082620842089e+001,-1.66932223904528e-001

2.32946717293690e+004,-1.44082630004381e+001,-1.69262266991288e-001

2.36198532285905e+004,-1.44082639423336e+001,-1.71624825936620e-001

2.39495740923785e+004,-1.44082649106120e+001,-1.74020354207261e-001

2.42838976879009e+004,-1.44082659060092e+001,-1.76449311584053e-001

2.46228882668982e+004,-1.44082669292819e+001,-1.78912164244044e-001

2.49666109780322e+004,-1.44082679812075e+001,-1.81409384854726e-001

2.53151318794055e+004,-1.44082690625851e+001,-1.83941452658932e-001

2.56685179512580e+004,-1.44082701742357e+001,-1.86508853568726e-001

2.60268371088386e+004,-1.44082713170031e+001,-1.89112080256755e-001

2.63901582154578e+004,-1.44082724917545e+001,-1.91751632248008e-001

2.67585510957221e+004,-1.44082736993808e+001,-1.94428016018888e-001

2.71320865489533e+004,-1.44082749407976e+001,-1.97141745087760e-001

2.75108363627948e+004,-1.44082762169459e+001,-1.99893340115435e-001

2.78948733270080e+004,-1.44082775287923e+001,-2.02683329005135e-001

2.82842712474618e+004,-1.44082788773306e+001,-2.05512246997151e-001

2.86791049603164e+004,-1.44082802635812e+001,-2.08380636775577e-001

2.90794503464061e+004,-1.44082816885932e+001,-2.11289048568401e-001

2.94853843458219e+004,-1.44082831534443e+001,-2.14238040251626e-001

2.98969849726987e+004,-1.44082846592417e+001,-2.17228177455613e-001

3.03143313302078e+004,-1.44082862071235e+001,-2.20260033667912e-001

3.07375036257601e+004,-1.44082877982584e+001,-2.23334190350030e-001

3.11665831864199e+004,-1.44082894338475e+001,-2.26451237037967e-001

3.16016524745350e+004,-1.44082911151248e+001,-2.29611771458347e-001

3.20427951035848e+004,-1.44082928433580e+001,-2.32816399640926e-001

3.24900958542493e+004,-1.44082946198498e+001,-2.36065736029895e-001

3.29436406907028e+004,-1.44082964459380e+001,-2.39360403604326e-001

3.34035167771346e+004,-1.44082983229974e+001,-2.42701033989794e-001

3.38698124945009e+004,-1.44083002524402e+001,-2.46088267581373e-001

3.43426174575100e+004,-1.44083022357171e+001,-2.49522753662539e-001

3.48220225318448e+004,-1.44083042743184e+001,-2.53005150527058e-001

3.53081198516260e+004,-1.44083063697748e+001,-2.56536125602335e-001

3.58010028371187e+004,-1.44083085236588e+001,-2.60116355576744e-001

3.63007662126863e+004,-1.44083107375859e+001,-2.63746526521440e-001

3.68075060249948e+004,-1.44083130132150e+001,-2.67427334024739e-001

3.73213196614721e+004,-1.44083153522501e+001,-2.71159483320571e-001

3.78423058690237e+004,-1.44083177564418e+001,-2.74943689416413e-001

3.83705647730104e+004,-1.44083202275875e+001,-2.78780677233281e-001

3.89061978964912e+004,-1.44083227675339e+001,-2.82671181736237e-001

3.94493081797342e+004,-1.44083253781766e+001,-2.86615948076025e-001

3.99999999999998e+004,-1.44083280614635e+001,-2.90615731721830e-001

4.05583791916010e+004,-1.44083308193942e+001,-2.94671298608789e-001

4.11245530662425e+004,-1.44083336540224e+001,-2.98783425276794e-001

4.16986304336447e+004,-1.44083365674570e+001,-3.02952899015867e-001

4.22807216224550e+004,-1.44083395618636e+001,-3.07180518012167e-001

4.28709385014515e+004,-1.44083426394656e+001,-3.11467091497658e-001

4.34693945010421e+004,-1.44083458025462e+001,-3.15813439898713e-001

4.40762046350642e+004,-1.44083490534496e+001,-3.20220394989332e-001

4.46914855228886e+004,-1.44083523945826e+001,-3.24688800043724e-001

4.53153554118317e+004,-1.44083558284161e+001,-3.29219509995685e-001

4.59479341998812e+004,-1.44083593574867e+001,-3.33813391592626e-001

4.65893434587380e+004,-1.44083629843988e+001,-3.38471323556772e-001

4.72397064571810e+004,-1.44083667118255e+001,-3.43194196751701e-001

4.78991481847569e+004,-1.44083705425108e+001,-3.47982914339907e-001

4.85677953758016e+004,-1.44083744792715e+001,-3.52838391952450e-001

4.92457765337964e+004,-1.44083785249984e+001,-3.57761557858907e-001

4.99332219560642e+004,-1.44083826826588e+001,-3.62753353134936e-001

5.06302637588109e+004,-1.44083869552979e+001,-3.67814731835794e-001

5.13370359025159e+004,-1.44083913460407e+001,-3.72946661173795e-001

5.20536742176771e+004,-1.44083958580944e+001,-3.78150121690725e-001

5.27803164309155e+004,-1.44084004947496e+001,-3.83426107441958e-001

5.35171021914442e+004,-1.44084052593833e+001,-3.88775626173950e-001

5.42641730979066e+004,-1.44084101554597e+001,-3.94199699512426e-001

5.50216727255895e+004,-1.44084151865336e+001,-3.99699363143520e-001

5.57897466540159e+004,-1.44084203562517e+001,-4.05275667005593e-001

5.65685424949235e+004,-1.44084256683546e+001,-4.10929675481177e-001

5.73582099206328e+004,-1.44084311266799e+001,-4.16662467584571e-001

5.81589006928121e+004,-1.44084367351636e+001,-4.22475137163599e-001

5.89707686916437e+004,-1.44084424978426e+001,-4.28368793094276e-001

5.97939699453972e+004,-1.44084484188572e+001,-4.34344559479971e-001

6.06286626604156e+004,-1.44084545024532e+001,-4.40403575858644e-001

6.14750072515201e+004,-1.44084607529846e+001,-4.46546997403754e-001

6.23331663728396e+004,-1.44084671749155e+001,-4.52775995133146e-001

6.32033049490698e+004,-1.44084737728230e+001,-4.59091756121420e-001

6.40855902071694e+004,-1.44084805513997e+001,-4.65495483709682e-001

6.49801917084985e+004,-1.44084875154557e+001,-4.71988397723344e-001

6.58872813814055e+004,-1.44084946699218e+001,-4.78571734688766e-001

6.68070335542691e+004,-1.44085020198518e+001,-4.85246748053552e-001

6.77396249890018e+004,-1.44085095704249e+001,-4.92014708411008e-001

6.86852349150199e+004,-1.44085173269486e+001,-4.98876903726463e-001

6.96440450636895e+004,-1.44085252948616e+001,-5.05834639561773e-001

7.06162397032520e+004,-1.44085334797358e+001,-5.12889239313378e-001

7.16020056742374e+004,-1.44085418872797e+001,-5.20042044439299e-001

7.26015324253724e+004,-1.44085505233408e+001,-5.27294414700865e-001

7.36150120499896e+004,-1.44085593939085e+001,-5.34647728399068e-001

7.46426393229441e+004,-1.44085685051168e+001,-5.42103382619563e-001

7.56846117380472e+004,-1.44085778632471e+001,-5.49662793476176e-001

7.67411295460207e+004,-1.44085874747311e+001,-5.57327396358759e-001

7.78123957929823e+004,-1.44085973461536e+001,-5.65098646185041e-001

7.88986163594682e+004,-1.44086074842551e+001,-5.72978017654416e-001

7.99999999999995e+004,-1.44086178959351e+001,-5.80967005502997e-001

8.11167583832018e+004,-1.44086285882546e+001,-5.89067124766504e-001

8.22491061324848e+004,-1.44086395684391e+001,-5.97279911039278e-001

8.33972608672892e+004,-1.44086508438811e+001,-6.05606920743149e-001

8.45614432449099e+004,-1.44086624221435e+001,-6.14049731394571e-001

8.57418770029029e+004,-1.44086743109619e+001,-6.22609941876243e-001

8.69387890020841e+004,-1.44086865182476e+001,-6.31289172714239e-001

8.81524092701283e+004,-1.44086990520903e+001,-6.40089066352884e-001

8.93829710457770e+004,-1.44087119207612e+001,-6.49011287438207e-001

9.06307108236633e+004,-1.44087251327149e+001,-6.58057523103419e-001

9.18958683997622e+004,-1.44087386965931e+001,-6.67229483253175e-001

9.31786869174758e+004,-1.44087526212261e+001,-6.76528900858536e-001

9.44794129143618e+004,-1.44087669156363e+001,-6.85957532248832e-001

9.57982963695136e+004,-1.44087815890403e+001,-6.95517157409511e-001

9.71355907516031e+004,-1.44087966508514e+001,-7.05209580284893e-001

9.84915530675926e+004,-1.44088121106817e+001,-7.15036629081122e-001

9.98664439121282e+004,-1.44088279783448e+001,-7.25000156575733e-001

1.01260527517622e+005,-1.44088442638580e+001,-7.35102040426553e-001

1.02674071805032e+005,-1.44088609774437e+001,-7.45344183491087e-001

1.04107348435354e+005,-1.44088781295323e+001,-7.55728514141160e-001

1.05560632861831e+005,-1.44088957307633e+001,-7.66256986588525e-001

1.07034204382888e+005,-1.44089137919877e+001,-7.76931581209348e-001

1.08528346195813e+005,-1.44089323242690e+001,-7.87754304874014e-001

1.10043345451179e+005,-1.44089513388851e+001,-7.98727191283541e-001

1.11579493308032e+005,-1.44089708473289e+001,-8.09852301305280e-001

1.13137084989847e+005,-1.44089908613106e+001,-8.21131723314551e-001

1.14716419841265e+005,-1.44090113927573e+001,-8.32567573542912e-001

1.16317801385624e+005,-1.44090324538144e+001,-8.44161996425816e-001

1.17941537383287e+005,-1.44090540568463e+001,-8.55917164958203e-001

1.19587939890794e+005,-1.44090762144362e+001,-8.67835281053668e-001

1.21257325320831e+005,-1.44090989393863e+001,-8.79918575906192e-001

1.22950014503040e+005,-1.44091222447177e+001,-8.92169310359448e-001

1.24666332745679e+005,-1.44091461436697e+001,-9.04589775278204e-001

1.26406609898139e+005,-1.44091706496997e+001,-9.17182291924330e-001

1.28171180414339e+005,-1.44091957764809e+001,-9.29949212341528e-001

1.29960383416997e+005,-1.44092215379021e+001,-9.42892919738730e-001

1.31774562762811e+005,-1.44092479480655e+001,-9.56015828884641e-001

1.33614067108538e+005,-1.44092750212845e+001,-9.69320386503523e-001

1.35479249978003e+005,-1.44093027720814e+001,-9.82809071679113e-001

1.37370469830040e+005,-1.44093312151848e+001,-9.96484396260317e-001

1.39288090127379e+005,-1.44093603655260e+001,-1.01034890527772e+000

1.41232479406504e+005,-1.44093902382357e+001,-1.02440517736079e+000

1.43204011348474e+005,-1.44094208486398e+001,-1.03865582516588e+000

1.45203064850745e+005,-1.44094522122547e+001,-1.05310349580583e+000

1.47230024099979e+005,-1.44094843447826e+001,-1.06775087128959e+000

1.49285278645888e+005,-1.44095172621057e+001,-1.08260066896710e+000

1.51369223476094e+005,-1.44095509802804e+001,-1.09765564198126e+000

1.53482259092041e+005,-1.44095855155308e+001,-1.11291857972468e+000

1.55624791585964e+005,-1.44096208842416e+001,-1.12839230830944e+000

1.57797232718936e+005,-1.44096571029500e+001,-1.14407969103750e+000

1.59999999999999e+005,-1.44096941883383e+001,-1.15998362888442e+000

1.62233516766403e+005,-1.44097321572244e+001,-1.17610706098788e+000

1.64498212264969e+005,-1.44097710265527e+001,-1.19245296514605e+000

1.66794521734578e+005,-1.44098108133840e+001,-1.20902435832444e+000

1.69122886489819e+005,-1.44098515348847e+001,-1.22582429717153e+000

1.71483754005805e+005,-1.44098932083156e+001,-1.24285587854398e+000

1.73877578004168e+005,-1.44099358510196e+001,-1.26012224004191e+000

1.76304818540256e+005,-1.44099794804094e+001,-1.27762656055224e+000

1.78765942091554e+005,-1.44100241139537e+001,-1.29537206080599e+000

1.81261421647326e+005,-1.44100697691635e+001,-1.31336200394198e+000

1.83791736799524e+005,-1.44101164635772e+001,-1.33159969608650e+000

1.86357373834951e+005,-1.44101642147447e+001,-1.35008848694013e+000

1.88958825828723e+005,-1.44102130402119e+001,-1.36883177037984e+000

1.91596592739027e+005,-1.44102629575032e+001,-1.38783298507159e+000

1.94271181503206e+005,-1.44103139841042e+001,-1.40709561509644e+000

1.96983106135185e+005,-1.44103661374432e+001,-1.42662319059093e+000

1.99732887824256e+005,-1.44104194348725e+001,-1.44641928839876e+000

2.02521055035243e+005,-1.44104738936480e+001,-1.46648753274079e+000

2.05348143610063e+005,-1.44105295309097e+001,-1.48683159589546e+000

2.08214696870707e+005,-1.44105863636598e+001,-1.50745519889789e+000

2.11121265723661e+005,-1.44106444087418e+001,-1.52836211225241e+000

2.14068408765776e+005,-1.44107036828175e+001,-1.54955615666298e+000

2.17056692391625e+005,-1.44107642023446e+001,-1.57104120378120e+000

2.20086690902357e+005,-1.44108259835530e+001,-1.59282117696770e+000

2.23158986616063e+005,-1.44108890424208e+001,-1.61490005207722e+000

2.26274169979693e+005,-1.44109533946500e+001,-1.63728185825684e+000

2.29432839682530e+005,-1.44110190556415e+001,-1.65997067876742e+000

2.32635602771247e+005,-1.44110860404698e+001,-1.68297065182055e+000

2.35883074766574e+005,-1.44111543638573e+001,-1.70628597144008e+000

2.39175879781588e+005,-1.44112240401484e+001,-1.72992088833965e+000

2.42514650641661e+005,-1.44112950832835e+001,-1.75387971082450e+000

2.45900029006080e+005,-1.44113675067724e+001,-1.77816680571441e+000

2.49332665491357e+005,-1.44114413236680e+001,-1.80278659928614e+000

2.52813219796278e+005,-1.44115165465402e+001,-1.82774357824336e+000

2.56342360828676e+005,-1.44115931874489e+001,-1.85304229070387e+000

2.59920766833993e+005,-1.44116712579185e+001,-1.87868734721496e+000

2.63549125525621e+005,-1.44117507689117e+001,-1.90468342179050e+000

2.67228134217075e+005,-1.44118317308035e+001,-1.93103525297208e+000

2.70958499956006e+005,-1.44119141533568e+001,-1.95774764491694e+000

2.74740939660078e+005,-1.44119980456974e+001,-1.98482546850648e+000

2.78576180254757e+005,-1.44120834162898e+001,-2.01227366248701e+000

2.82464958813007e+005,-1.44121702729145e+001,-2.04009723462822e+000

2.86408022696948e+005,-1.44122586226454e+001,-2.06830126291394e+000

2.90406129701488e+005,-1.44123484718287e+001,-2.09689089675461e+000

2.94460048199957e+005,-1.44124398260625e+001,-2.12587135822870e+000

2.98570557291775e+005,-1.44125326901778e+001,-2.15524794334850e+000

3.02738446952187e+005,-1.44126270682213e+001,-2.18502602335269e+000

3.06964518184081e+005,-1.44127229634390e+001,-2.21521104602605e+000

3.11249583171928e+005,-1.44128203782621e+001,-2.24580853704399e+000

3.15594465437872e+005,-1.44129193142936e+001,-2.27682410134475e+000

3.19999999999997e+005,-1.44130197722984e+001,-2.30826342452595e+000

3.24467033532806e+005,-1.44131217521937e+001,-2.34013227426798e+000

3.28996424529938e+005,-1.44132252530428e+001,-2.37243650178256e+000

3.33589043469155e+005,-1.44133302730503e+001,-2.40518204328681e+000

3.38245772979638e+005,-1.44134368095606e+001,-2.43837492150057e+000

3.42967508011610e+005,-1.44135448590576e+001,-2.47202124717024e+000

3.47755156008335e+005,-1.44136544171684e+001,-2.50612722061413e+000

3.52609637080511e+005,-1.44137654786685e+001,-2.54069913329378e+000

3.57531884183106e+005,-1.44138780374906e+001,-2.57574336940448e+000

3.62522843294651e+005,-1.44139920867360e+001,-2.61126640749078e+000

3.67583473599047e+005,-1.44141076186890e+001,-2.64727482208184e+000

3.72714747669902e+005,-1.44142246248343e+001,-2.68377528534707e+000

3.77917651657445e+005,-1.44143430958778e+001,-2.72077456877157e+000

3.83193185478053e+005,-1.44144630217701e+001,-2.75827954485205e+000

3.88542363006410e+005,-1.44145843917335e+001,-2.79629718880746e+000

3.93966212270369e+005,-1.44147071942928e+001,-2.83483458030987e+000

3.99465775648511e+005,-1.44148314173081e+001,-2.87389890523057e+000

4.05042110070485e+005,-1.44149570480125e+001,-2.91349745739906e+000

4.10696287220124e+005,-1.44150840730515e+001,-2.95363764038069e+000

4.16429393741414e+005,-1.44152124785272e+001,-2.99432696926359e+000

4.22242531447321e+005,-1.44153422500448e+001,-3.03557307245946e+000

4.28136817531551e+005,-1.44154733727624e+001,-3.07738369351724e+000

4.34113384783250e+005,-1.44156058314445e+001,-3.11976669294412e+000

4.40173381804713e+005,-1.44157396105184e+001,-3.16273005003846e+000

4.46317973232124e+005,-1.44158746941335e+001,-3.20628186473066e+000

4.52548339959385e+005,-1.44160110662236e+001,-3.25043035943171e+000

4.58865679365059e+005,-1.44161487105722e+001,-3.29518388088821e+000

4.65271205542494e+005,-1.44162876108808e+001,-3.34055090204479e+000

4.71766149533147e+005,-1.44164277508389e+001,-3.38654002391091e+000

4.78351759563174e+005,-1.44165691141976e+001,-3.43315997743359e+000

4.85029301283321e+005,-1.44167116848451e+001,-3.48041962537251e+000

4.91800058012158e+005,-1.44168554468842e+001,-3.52832796418120e+000

4.98665330982714e+005,-1.44170003847121e+001,-3.57689412589022e+000

5.05626439592555e+005,-1.44171464831019e+001,-3.62612737999316e+000

5.12684721657352e+005,-1.44172937272859e+001,-3.67603713533622e+000

5.19841533667984e+005,-1.44174421030404e+001,-3.72663294201049e+000

5.27098251051240e+005,-1.44175915967719e+001,-3.77792449324455e+000

5.34456268434150e+005,-1.44177421956040e+001,-3.82992162730339e+000

5.41916999912011e+005,-1.44178938874657e+001,-3.88263432938710e+000

