Freq.,VOut,OutRef

1.00000000000000e+004,-1.14400336557123e+001,-1.04334195358016e-001

1.01395947979003e+004,-1.14400341205968e+001,-1.05790584198682e-001

1.02811382665607e+004,-1.14400345985404e+001,-1.07267300828720e-001

1.04246576084112e+004,-1.14400350899101e+001,-1.08764628899892e-001

1.05701804056138e+004,-1.14400355950825e+001,-1.10282856020439e-001

1.07177346253629e+004,-1.14400361144451e+001,-1.11822273808923e-001

1.08673486252606e+004,-1.14400366483960e+001,-1.13383177949330e-001

1.10190511587661e+004,-1.14400371973447e+001,-1.14965868247097e-001

1.11728713807222e+004,-1.14400377617121e+001,-1.16570648687412e-001

1.13288388529580e+004,-1.14400383419307e+001,-1.18197827494506e-001

1.14869835499703e+004,-1.14400389384456e+001,-1.19847717186344e-001

1.16473358646846e+004,-1.14400395517135e+001,-1.21520634640608e-001

1.18099266142953e+004,-1.14400401822049e+001,-1.23216901148318e-001

1.19747870461893e+004,-1.14400408304030e+001,-1.24936842480246e-001

1.21419488439505e+004,-1.14400414968040e+001,-1.26680788950122e-001

1.23114441334492e+004,-1.14400421819191e+001,-1.28449075469452e-001

1.24833054890161e+004,-1.14400428862728e+001,-1.30242041622731e-001

1.26575659397028e+004,-1.14400436104049e+001,-1.32060031723302e-001

1.28342589756290e+004,-1.14400443548702e+001,-1.33903394883268e-001

1.30134185544193e+004,-1.14400451202387e+001,-1.35772485079840e-001

1.31950791077289e+004,-1.14400459070965e+001,-1.37667661222508e-001

1.33792755478611e+004,-1.14400467160466e+001,-1.39589287218894e-001

1.35660432744767e+004,-1.14400475477079e+001,-1.41537732051223e-001

1.37554181813974e+004,-1.14400484027174e+001,-1.43513369837113e-001

1.39474366635040e+004,-1.14400492817295e+001,-1.45516579909083e-001

1.41421356237309e+004,-1.14400501854170e+001,-1.47547746883312e-001

1.43395524801583e+004,-1.14400511144716e+001,-1.49607260730548e-001

1.45397251732031e+004,-1.14400520696042e+001,-1.51695516855696e-001

1.47426921729110e+004,-1.14400530515457e+001,-1.53812916169635e-001

1.49484924863494e+004,-1.14400540610472e+001,-1.55959865165977e-001

1.51571656651040e+004,-1.14400550988810e+001,-1.58136775998671e-001

1.53687518128801e+004,-1.14400561658407e+001,-1.60344066562522e-001

1.55832915932100e+004,-1.14400572627424e+001,-1.62582160567294e-001

1.58008262372675e+004,-1.14400583904245e+001,-1.64851487625791e-001

1.60213975517924e+004,-1.14400595497492e+001,-1.67152483328624e-001

1.62450479271247e+004,-1.14400607416029e+001,-1.69485589329362e-001

1.64718203453514e+004,-1.14400619668961e+001,-1.71851253431819e-001

1.67017583885674e+004,-1.14400632265653e+001,-1.74249929669041e-001

1.69349062472505e+004,-1.14400645215729e+001,-1.76682078394854e-001

1.71713087287550e+004,-1.14400658529075e+001,-1.79148166370634e-001

1.74110112659224e+004,-1.14400672215867e+001,-1.81648666846333e-001

1.76540599258131e+004,-1.14400686286547e+001,-1.84184059663826e-001

1.79005014185594e+004,-1.14400700751864e+001,-1.86754831334098e-001

1.81503831063432e+004,-1.14400715622855e+001,-1.89361475139728e-001

1.84037530124975e+004,-1.14400730910867e+001,-1.92004491223304e-001

1.86606598307361e+004,-1.14400746627567e+001,-1.94684386681597e-001

1.89211529345119e+004,-1.14400762784941e+001,-1.97401675664632e-001

1.91852823865052e+004,-1.14400779395313e+001,-2.00156879471700e-001

1.94530989482457e+004,-1.14400796471345e+001,-2.02950526649088e-001

1.97246540898671e+004,-1.14400814026057e+001,-2.05783153089587e-001

1.99999999999999e+004,-1.14400832072822e+001,-2.08655302138951e-001

2.02791895958005e+004,-1.14400850625394e+001,-2.11567524689477e-001

2.05622765331213e+004,-1.14400869697902e+001,-2.14520379291715e-001

2.08493152168224e+004,-1.14400889304872e+001,-2.17514432256405e-001

2.11403608112276e+004,-1.14400909461229e+001,-2.20550257762752e-001

2.14354692507258e+004,-1.14400930182313e+001,-2.23628437966108e-001

2.17346972505211e+004,-1.14400951483892e+001,-2.26749563105812e-001

2.20381023175322e+004,-1.14400973382169e+001,-2.29914231619237e-001

2.23457427614443e+004,-1.14400995893794e+001,-2.33123050254795e-001

2.26576777059159e+004,-1.14401019035882e+001,-2.36376634181312e-001

2.29739670999406e+004,-1.14401042826019e+001,-2.39675607109450e-001

2.32946717293690e+004,-1.14401067282278e+001,-2.43020601404931e-001

2.36198532285905e+004,-1.14401092423233e+001,-2.46412258210000e-001

2.39495740923785e+004,-1.14401118267970e+001,-2.49851227561169e-001

2.42838976879009e+004,-1.14401144836104e+001,-2.53338168512409e-001

2.46228882668982e+004,-1.14401172147789e+001,-2.56873749259613e-001

2.49666109780322e+004,-1.14401200223739e+001,-2.60458647262873e-001

2.53151318794055e+004,-1.14401229085235e+001,-2.64093549378099e-001

2.56685179512580e+004,-1.14401258754151e+001,-2.67779151978726e-001

2.60268371088386e+004,-1.14401289252957e+001,-2.71516161091834e-001

2.63901582154578e+004,-1.14401320604745e+001,-2.75305292527252e-001

2.67585510957221e+004,-1.14401352833243e+001,-2.79147272011348e-001

2.71320865489533e+004,-1.14401385962831e+001,-2.83042835322291e-001

2.75108363627948e+004,-1.14401420018560e+001,-2.86992728427383e-001

2.78948733270080e+004,-1.14401455026168e+001,-2.90997707621609e-001

2.82842712474618e+004,-1.14401491012102e+001,-2.95058539667613e-001

2.86791049603164e+004,-1.14401528003532e+001,-2.99176001939790e-001

2.90794503464061e+004,-1.14401566028374e+001,-3.03350882567610e-001

2.94853843458219e+004,-1.14401605115309e+001,-3.07583980580459e-001

2.98969849726987e+004,-1.14401645293802e+001,-3.11876106058251e-001

3.03143313302078e+004,-1.14401686594127e+001,-3.16228080279039e-001

3.07375036257601e+004,-1.14401729047383e+001,-3.20640735871774e-001

3.11665831864199e+004,-1.14401772685521e+001,-3.25114916968567e-001

3.16016524745350e+004,-1.14401817541359e+001,-3.29651479365011e-001

3.20427951035848e+004,-1.14401863648617e+001,-3.34251290670585e-001

3.24900958542493e+004,-1.14401911041927e+001,-3.38915230475278e-001

3.29436406907028e+004,-1.14401959756868e+001,-3.43644190506217e-001

3.34035167771346e+004,-1.14402009829986e+001,-3.48439074792754e-001

3.38698124945009e+004,-1.14402061298817e+001,-3.53300799834960e-001

3.43426174575100e+004,-1.14402114201920e+001,-3.58230294766627e-001

3.48220225318448e+004,-1.14402168578898e+001,-3.63228501528901e-001

3.53081198516260e+004,-1.14402224470424e+001,-3.68296375041320e-001

3.58010028371187e+004,-1.14402281918275e+001,-3.73434883374706e-001

3.63007662126863e+004,-1.14402340965356e+001,-3.78645007927897e-001

3.68075060249948e+004,-1.14402401655729e+001,-3.83927743607783e-001

3.73213196614721e+004,-1.14402464034647e+001,-3.89284099007521e-001

3.78423058690237e+004,-1.14402528148580e+001,-3.94715096591021e-001

3.83705647730104e+004,-1.14402594045248e+001,-4.00221772876833e-001

3.89061978964912e+004,-1.14402661773652e+001,-4.05805178627067e-001

3.94493081797342e+004,-1.14402731384110e+001,-4.11466379034401e-001

3.99999999999998e+004,-1.14402802928286e+001,-4.17206453915826e-001

4.05583791916010e+004,-1.14402876459228e+001,-4.23026497906142e-001

4.11245530662425e+004,-1.14402952031401e+001,-4.28927620654486e-001

4.16986304336447e+004,-1.14403029700722e+001,-4.34910947021279e-001

4.22807216224550e+004,-1.14403109524598e+001,-4.40977617283552e-001

4.28709385014515e+004,-1.14403191561963e+001,-4.47128787332812e-001

4.34693945010421e+004,-1.14403275873314e+001,-4.53365628885843e-001

4.40762046350642e+004,-1.14403362520754e+001,-4.59689329688414e-001

4.46914855228886e+004,-1.14403451568028e+001,-4.66101093730058e-001

4.53153554118317e+004,-1.14403543080567e+001,-4.72602141453324e-001

4.59479341998812e+004,-1.14403637125523e+001,-4.79193709971158e-001

4.65893434587380e+004,-1.14403733771818e+001,-4.85877053285406e-001

4.72397064571810e+004,-1.14403833090183e+001,-4.92653442505818e-001

4.78991481847569e+004,-1.14403935153205e+001,-4.99524166072227e-001

4.85677953758016e+004,-1.14404040035369e+001,-5.06490529980784e-001

4.92457765337964e+004,-1.14404147813100e+001,-5.13553858013505e-001

4.99332219560642e+004,-1.14404258564819e+001,-5.20715491965016e-001

5.06302637588109e+004,-1.14404372370984e+001,-5.27976791877281e-001

5.13370359025159e+004,-1.14404489314135e+001,-5.35339136275713e-001

5.20536742176771e+004,-1.14404609478953e+001,-5.42803922403975e-001

5.27803164309155e+004,-1.14404732952296e+001,-5.50372566469323e-001

5.35171021914442e+004,-1.14404859823262e+001,-5.58046503880775e-001

5.42641730979066e+004,-1.14404990183235e+001,-5.65827189496945e-001

5.50216727255895e+004,-1.14405124125937e+001,-5.73716097873820e-001

5.57897466540159e+004,-1.14405261747482e+001,-5.81714723515930e-001

5.65685424949235e+004,-1.14405403146429e+001,-5.89824581129809e-001

5.73582099206328e+004,-1.14405548423840e+001,-5.98047205877568e-001

5.81589006928121e+004,-1.14405697683331e+001,-6.06384153637932e-001

5.89707686916437e+004,-1.14405851031128e+001,-6.14837001267764e-001

5.97939699453972e+004,-1.14406008576130e+001,-6.23407346862635e-001

6.06286626604156e+004,-1.14406170429963e+001,-6.32096810026196e-001

6.14750072515201e+004,-1.14406336707035e+001,-6.40907032136972e-001

6.23331663728396e+004,-1.14406507524600e+001,-6.49839676622130e-001

6.32033049490698e+004,-1.14406683002816e+001,-6.58896429229530e-001

6.40855902071694e+004,-1.14406863264808e+001,-6.68078998304936e-001

6.49801917084985e+004,-1.14407048436721e+001,-6.77389115072455e-001

6.58872813814055e+004,-1.14407238647792e+001,-6.86828533915790e-001

6.68070335542691e+004,-1.14407434030403e+001,-6.96399032662384e-001

6.77396249890018e+004,-1.14407634720149e+001,-7.06102412871982e-001

6.86852349150199e+004,-1.14407840855896e+001,-7.15940500124639e-001

6.96440450636895e+004,-1.14408052579852e+001,-7.25915144314122e-001

7.06162397032520e+004,-1.14408270037621e+001,-7.36028219943144e-001

7.16020056742374e+004,-1.14408493378270e+001,-7.46281626420641e-001

7.26015324253724e+004,-1.14408722754396e+001,-7.56677288362313e-001

7.36150120499896e+004,-1.14408958322185e+001,-7.67217155891978e-001

7.46426393229441e+004,-1.14409200241478e+001,-7.77903204948727e-001

7.56846117380472e+004,-1.14409448675834e+001,-7.88737437594322e-001

7.67411295460207e+004,-1.14409703792594e+001,-7.99721882322642e-001

7.78123957929823e+004,-1.14409965762942e+001,-8.10858594374075e-001

7.88986163594682e+004,-1.14410234761969e+001,-8.22149656049536e-001

7.99999999999995e+004,-1.14410510968736e+001,-8.33597177030530e-001

8.11167583832018e+004,-1.14410794566332e+001,-8.45203294699138e-001

8.22491061324848e+004,-1.14411085741938e+001,-8.56970174459399e-001

8.33972608672892e+004,-1.14411384686884e+001,-8.68900010065825e-001

8.45614432449099e+004,-1.14411691596709e+001,-8.80995023949794e-001

8.57418770029029e+004,-1.14412006671218e+001,-8.93257467551548e-001

8.69387890020841e+004,-1.14412330114536e+001,-9.05689621651806e-001

8.81524092701283e+004,-1.14412662135165e+001,-9.18293796710248e-001

8.93829710457770e+004,-1.14413002946035e+001,-9.31072333201289e-001

9.06307108236633e+004,-1.14413352764551e+001,-9.44027601955936e-001

9.18958683997622e+004,-1.14413711812650e+001,-9.57162004506153e-001

9.31786869174758e+004,-1.14414080316835e+001,-9.70477973430113e-001

9.44794129143618e+004,-1.14414458508230e+001,-9.83977972700041e-001

9.57982963695136e+004,-1.14414846622611e+001,-9.97664498035037e-001

9.71355907516031e+004,-1.14415244900450e+001,-1.01154007725253e+000

9.84915530675926e+004,-1.14415653586941e+001,-1.02560727062806e+000

9.98664439121282e+004,-1.14416072932041e+001,-1.03986867125041e+000

1.01260527517622e+005,-1.14416503190483e+001,-1.05432690538674e+000

1.02674071805032e+005,-1.14416944621810e+001,-1.06898463284416e+000

1.04107348435354e+005,-1.14417397490384e+001,-1.08384454733981e+000

1.05560632861831e+005,-1.14417862065402e+001,-1.09890937686790e+000

1.07034204382888e+005,-1.14418338620904e+001,-1.11418188407521e+000

1.08528346195813e+005,-1.14418827435769e+001,-1.12966486663542e+000

1.10043345451179e+005,-1.14419328793718e+001,-1.14536115762828e+000

1.11579493308032e+005,-1.14419842983297e+001,-1.16127362592223e+000

1.13137084989847e+005,-1.14420370297861e+001,-1.17740517655887e+000

1.14716419841265e+005,-1.14420911035553e+001,-1.19375875114058e+000

1.16317801385624e+005,-1.14421465499263e+001,-1.21033732822515e+000

1.17941537383287e+005,-1.14422033996595e+001,-1.22714392371816e+000

1.19587939890794e+005,-1.14422616839815e+001,-1.24418159127320e+000

1.21257325320831e+005,-1.14423214345789e+001,-1.26145342269617e+000

1.22950014503040e+005,-1.14423826835923e+001,-1.27896254834892e+000

1.24666332745679e+005,-1.14424454636078e+001,-1.29671213756392e+000

1.26406609898139e+005,-1.14425098076482e+001,-1.31470539905695e+000

1.28171180414339e+005,-1.14425757491635e+001,-1.33294558134898e+000

1.29960383416997e+005,-1.14426433220196e+001,-1.35143597318917e+000

1.31774562762811e+005,-1.14427125604854e+001,-1.37017990398639e+000

1.33614067108538e+005,-1.14427834992198e+001,-1.38918074424449e+000

1.35479249978003e+005,-1.14428561732567e+001,-1.40844190600131e+000

1.37370469830040e+005,-1.14429306179881e+001,-1.42796684327792e+000

1.39288090127379e+005,-1.14430068691467e+001,-1.44775905253069e+000

1.41232479406504e+005,-1.14430849627867e+001,-1.46782207311117e+000

1.43204011348474e+005,-1.14431649352623e+001,-1.48815948773294e+000

1.45203064850745e+005,-1.14432468232055e+001,-1.50877492294715e+000

1.47230024099979e+005,-1.14433306635019e+001,-1.52967204962307e+000

1.49285278645888e+005,-1.14434164932644e+001,-1.55085458344069e+000

1.51369223476094e+005,-1.14435043498054e+001,-1.57232628539029e+000

1.53482259092041e+005,-1.14435942706071e+001,-1.59409096227978e+000

1.55624791585964e+005,-1.14436862932896e+001,-1.61615246725731e+000

1.57797232718936e+005,-1.14437804555775e+001,-1.63851470033850e+000

1.59999999999999e+005,-1.14438767952636e+001,-1.66118160894893e+000

1.62233516766403e+005,-1.14439753501712e+001,-1.68415718847786e+000

1.64498212264969e+005,-1.14440761581143e+001,-1.70744548284325e+000

1.66794521734578e+005,-1.14441792568542e+001,-1.73105058507283e+000

1.69122886489819e+005,-1.14442846840561e+001,-1.75497663789605e+000

1.71483754005805e+005,-1.14443924772409e+001,-1.77922783435446e+000

1.73877578004168e+005,-1.14445026737367e+001,-1.80380841842613e+000

1.76304818540256e+005,-1.14446153106263e+001,-1.82872268566719e+000

1.78765942091554e+005,-1.14447304246928e+001,-1.85397498387251e+000

1.81261421647326e+005,-1.14448480523635e+001,-1.87956971375223e+000

1.83791736799524e+005,-1.14449682296496e+001,-1.90551132963189e+000

1.86357373834951e+005,-1.14450909920847e+001,-1.93180434017146e+000

1.88958825828723e+005,-1.14452163746602e+001,-1.95845330910506e+000

1.91596592739027e+005,-1.14453444117580e+001,-1.98546285600734e+000

1.94271181503206e+005,-1.14454751370810e+001,-2.01283765708088e+000

1.96983106135185e+005,-1.14456085835804e+001,-2.04058244597205e+000

1.99732887824256e+005,-1.14457447833810e+001,-2.06870201461077e+000

2.02521055035243e+005,-1.14458837677036e+001,-2.09720121407991e+000

2.05348143610063e+005,-1.14460255667849e+001,-2.12608495551527e+000

2.08214696870707e+005,-1.14461702097952e+001,-2.15535821103339e+000

2.11121265723661e+005,-1.14463177247527e+001,-2.18502601469449e+000

2.14068408765776e+005,-1.14464681384369e+001,-2.21509346349671e+000

2.17056692391625e+005,-1.14466214762982e+001,-2.24556571840573e+000

2.20086690902357e+005,-1.14467777623661e+001,-2.27644800542206e+000

2.23158986616063e+005,-1.14469370191551e+001,-2.30774561668342e+000

2.26274169979693e+005,-1.14470992675684e+001,-2.33946391160875e+000

2.29432839682530e+005,-1.14472645267999e+001,-2.37160831808107e+000

2.32635602771247e+005,-1.14474328142337e+001,-2.40418433367335e+000

2.35883074766574e+005,-1.14476041453431e+001,-2.43719752691686e+000

2.39175879781588e+005,-1.14477785335871e+001,-2.47065353861467e+000

2.42514650641661e+005,-1.14479559903065e+001,-2.50455808320111e+000

2.45900029006080e+005,-1.14481365246174e+001,-2.53891695014812e+000

2.49332665491357e+005,-1.14483201433055e+001,-2.57373600542180e+000

2.52813219796278e+005,-1.14485068507188e+001,-2.60902119298604e+000

2.56342360828676e+005,-1.14486966486596e+001,-2.64477853636038e+000

2.59920766833993e+005,-1.14488895362768e+001,-2.68101414022775e+000

2.63549125525621e+005,-1.14490855099580e+001,-2.71773419209529e+000

2.67228134217075e+005,-1.14492845632220e+001,-2.75494496401117e+000

2.70958499956006e+005,-1.14494866866116e+001,-2.79265281433515e+000

2.74740939660078e+005,-1.14496918675877e+001,-2.83086418956391e+000

2.78576180254757e+005,-1.14499000904244e+001,-2.86958562621483e+000

2.82464958813007e+005,-1.14501113361054e+001,-2.90882375276541e+000

2.86408022696948e+005,-1.14503255822230e+001,-2.94858529164974e+000

2.90406129701488e+005,-1.14505428028784e+001,-2.98887706131370e+000

2.94460048199957e+005,-1.14507629685846e+001,-3.02970597832774e+000

2.98570557291775e+005,-1.14509860461735e+001,-3.07107905955627e+000

3.02738446952187e+005,-1.14512119987045e+001,-3.11300342438605e+000

3.06964518184081e+005,-1.14514407853779e+001,-3.15548629701123e+000

3.11249583171928e+005,-1.14516723614518e+001,-3.19853500877539e+000

3.15594465437872e+005,-1.14519066781637e+001,-3.24215700056992e+000

3.19999999999997e+005,-1.14521436826562e+001,-3.28635982528775e+000

3.24467033532806e+005,-1.14523833179088e+001,-3.33115115033140e+000

3.28996424529938e+005,-1.14526255226741e+001,-3.37653876017349e+000

3.33589043469155e+005,-1.14528702314204e+001,-3.42253055897137e+000

3.38245772979638e+005,-1.14531173742803e+001,-3.46913457322946e+000

3.42967508011610e+005,-1.14533668770055e+001,-3.51635895451241e+000

3.47755156008335e+005,-1.14536186609289e+001,-3.56421198220270e+000

3.52609637080511e+005,-1.14538726429331e+001,-3.61270206630587e+000

3.57531884183106e+005,-1.14541287354263e+001,-3.66183775029552e+000

3.62522843294651e+005,-1.14543868463267e+001,-3.71162771399965e+000

3.67583473599047e+005,-1.14546468790533e+001,-3.76208077652486e+000

3.72714747669902e+005,-1.14549087325252e+001,-3.81320589921515e+000

3.77917651657445e+005,-1.14551723011696e+001,-3.86501218864165e+000

3.83193185478053e+005,-1.14554374749377e+001,-3.91750889962365e+000

3.88542363006410e+005,-1.14557041393282e+001,-3.97070543827403e+000

3.93966212270369e+005,-1.14559721754208e+001,-4.02461136506821e+000

3.99465775648511e+005,-1.14562414599166e+001,-4.07923639793336e+000

4.05042110070485e+005,-1.14565118651885e+001,-4.13459041535357e+000

4.10696287220124e+005,-1.14567832593385e+001,-4.19068345948788e+000

4.16429393741414e+005,-1.14570555062645e+001,-4.24752573930031e+000

4.22242531447321e+005,-1.14573284657352e+001,-4.30512763369323e+000

4.28136817531551e+005,-1.14576019934721e+001,-4.36349969464745e+000

4.34113384783250e+005,-1.14578759412407e+001,-4.42265265035992e+000

4.40173381804713e+005,-1.14581501569483e+001,-4.48259740837985e+000

4.46317973232124e+005,-1.14584244847494e+001,-4.54334505873807e+000

4.52548339959385e+005,-1.14586987651585e+001,-4.60490687706711e+000

4.58865679365059e+005,-1.14589728351689e+001,-4.66729432770994e+000

4.65271205542494e+005,-1.14592465283779e+001,-4.73051906681335e+000

4.71766149533147e+005,-1.14595196751180e+001,-4.79459294540481e+000

4.78351759563174e+005,-1.14597921025929e+001,-4.85952801244878e+000

4.85029301283321e+005,-1.14600636350190e+001,-4.92533651788283e+000

4.91800058012158e+005,-1.14603340937700e+001,-4.99203091562959e+000

4.98665330982714e+005,-1.14606032975263e+001,-5.05962386658218e+000

5.05626439592555e+005,-1.14608710624267e+001,-5.12812824156606e+000

5.12684721657352e+005,-1.14611372022227e+001,-5.19755712427092e+000

5.19841533667984e+005,-1.14614015284348e+001,-5.26792381415487e+000

5.27098251051240e+005,-1.14616638505094e+001,-5.33924182931992e+000

5.34456268434150e+005,-1.14619239759766e+001,-5.41152490935865e+000

5.41916999912011e+005,-1.14621817106076e+001,-5.48478701817110e+000

