Freq.,VOut,OutRef

1.00000000000000e+004,-1.45788497572733e+000,-7.50572637078906e-002

1.01395947979003e+004,-1.45788497117708e+000,-7.61050220243268e-002

1.02811382665607e+004,-1.45788496649857e+000,-7.71674064152342e-002

1.04246576084112e+004,-1.45788496168839e+000,-7.82446210479265e-002

1.05701804056138e+004,-1.45788495674236e+000,-7.93368729438882e-002

1.07177346253629e+004,-1.45788495165696e+000,-8.04443720094065e-002

1.08673486252606e+004,-1.45788494642804e+000,-8.15673310840825e-002

1.10190511587661e+004,-1.45788494105174e+000,-8.27059659763141e-002

1.11728713807222e+004,-1.45788493552381e+000,-8.38604955080108e-002

1.13288388529580e+004,-1.45788492983983e+000,-8.50311415565324e-002

1.14869835499703e+004,-1.45788492399566e+000,-8.62181290929982e-002

1.16473358646846e+004,-1.45788491798657e+000,-8.74216862324394e-002

1.18099266142953e+004,-1.45788491180795e+000,-8.86420442723097e-002

1.19747870461893e+004,-1.45788490545490e+000,-8.98794377392756e-002

1.21419488439505e+004,-1.45788489892261e+000,-9.11341044322770e-002

1.23114441334492e+004,-1.45788489220587e+000,-9.24062854718709e-002

1.24833054890161e+004,-1.45788488529963e+000,-9.36962253412323e-002

1.26575659397028e+004,-1.45788487819835e+000,-9.50041719392526e-002

1.28342589756290e+004,-1.45788487089668e+000,-9.63303766224202e-002

1.30134185544193e+004,-1.45788486338876e+000,-9.76750942578279e-002

1.31950791077289e+004,-1.45788485566881e+000,-9.90385832692501e-002

1.33792755478611e+004,-1.45788484773086e+000,-1.00421105687106e-001

1.35660432744767e+004,-1.45788483956849e+000,-1.01822927200985e-001

1.37554181813974e+004,-1.45788483117567e+000,-1.03244317206092e-001

1.39474366635040e+004,-1.45788482254572e+000,-1.04685548860158e-001

1.41421356237309e+004,-1.45788481367195e+000,-1.06146899132946e-001

1.43395524801583e+004,-1.45788480454724e+000,-1.07628648861407e-001

1.45397251732031e+004,-1.45788479516460e+000,-1.09131082800908e-001

1.47426921729110e+004,-1.45788478551678e+000,-1.10654489680904e-001

1.49484924863494e+004,-1.45788477559612e+000,-1.12199162263120e-001

1.51571656651040e+004,-1.45788476539484e+000,-1.13765397394357e-001

1.53687518128801e+004,-1.45788475490511e+000,-1.15353496063860e-001

1.55832915932100e+004,-1.45788474411857e+000,-1.16963763463872e-001

1.58008262372675e+004,-1.45788473302689e+000,-1.18596509044861e-001

1.60213975517924e+004,-1.45788472162122e+000,-1.20252046578665e-001

1.62450479271247e+004,-1.45788470989274e+000,-1.21930694213900e-001

1.64718203453514e+004,-1.45788469783217e+000,-1.23632774541895e-001

1.67017583885674e+004,-1.45788468543011e+000,-1.25358614655186e-001

1.69349062472505e+004,-1.45788467267688e+000,-1.27108546212221e-001

1.71713087287550e+004,-1.45788465956219e+000,-1.28882905502110e-001

1.74110112659224e+004,-1.45788464607606e+000,-1.30682033504148e-001

1.76540599258131e+004,-1.45788463220764e+000,-1.32506275960673e-001

1.79005014185594e+004,-1.45788461794617e+000,-1.34355983436701e-001

1.81503831063432e+004,-1.45788460328026e+000,-1.36231511392300e-001

1.84037530124975e+004,-1.45788458819859e+000,-1.38133220246243e-001

1.86606598307361e+004,-1.45788457268899e+000,-1.40061475451151e-001

1.89211529345119e+004,-1.45788455673940e+000,-1.42016647557296e-001

1.91852823865052e+004,-1.45788454033720e+000,-1.43999112287648e-001

1.94530989482457e+004,-1.45788452346926e+000,-1.46009250610728e-001

1.97246540898671e+004,-1.45788450612240e+000,-1.48047448809308e-001

1.99999999999999e+004,-1.45788448828285e+000,-1.50114098559370e-001

2.02791895958005e+004,-1.45788446993636e+000,-1.52209597003611e-001

2.05622765331213e+004,-1.45788445106858e+000,-1.54334346825362e-001

2.08493152168224e+004,-1.45788443166438e+000,-1.56488756330289e-001

2.11403608112276e+004,-1.45788441170841e+000,-1.58673239521491e-001

2.14354692507258e+004,-1.45788439118477e+000,-1.60888216180553e-001

2.17346972505211e+004,-1.45788437007709e+000,-1.63134111947276e-001

2.20381023175322e+004,-1.45788434836867e+000,-1.65411358401460e-001

2.23457427614443e+004,-1.45788432604208e+000,-1.67720393146901e-001

2.26576777059159e+004,-1.45788430307962e+000,-1.70061659893847e-001

2.29739670999406e+004,-1.45788427946274e+000,-1.72435608546163e-001

2.32946717293690e+004,-1.45788425517276e+000,-1.74842695284606e-001

2.36198532285905e+004,-1.45788423019017e+000,-1.77283382657470e-001

2.39495740923785e+004,-1.45788420449495e+000,-1.79758139667782e-001

2.42838976879009e+004,-1.45788417806634e+000,-1.82267441865171e-001

2.46228882668982e+004,-1.45788415088327e+000,-1.84811771433458e-001

2.49666109780322e+004,-1.45788412292381e+000,-1.87391617286697e-001

2.53151318794055e+004,-1.45788409416540e+000,-1.90007475162199e-001

2.56685179512580e+004,-1.45788406458501e+000,-1.92659847713775e-001

2.60268371088386e+004,-1.45788403415853e+000,-1.95349244612152e-001

2.63901582154578e+004,-1.45788400286154e+000,-1.98076182638065e-001

2.67585510957221e+004,-1.45788397066868e+000,-2.00841185784704e-001

2.71320865489533e+004,-1.45788393755373e+000,-2.03644785358196e-001

2.75108363627948e+004,-1.45788390348993e+000,-2.06487520077369e-001

2.78948733270080e+004,-1.45788386844952e+000,-2.09369936179139e-001

2.82842712474618e+004,-1.45788383240396e+000,-2.12292587522828e-001

2.86791049603164e+004,-1.45788379532390e+000,-2.15256035695619e-001

2.90794503464061e+004,-1.45788375717906e+000,-2.18260850121739e-001

2.94853843458219e+004,-1.45788371793825e+000,-2.21307608170476e-001

2.98969849726987e+004,-1.45788367756922e+000,-2.24396895268244e-001

3.03143313302078e+004,-1.45788363603907e+000,-2.27529305008144e-001

3.07375036257601e+004,-1.45788359331339e+000,-2.30705439268918e-001

3.11665831864199e+004,-1.45788354935709e+000,-2.33925908324835e-001

3.16016524745350e+004,-1.45788350413387e+000,-2.37191330966341e-001

3.20427951035848e+004,-1.45788345760648e+000,-2.40502334616706e-001

3.24900958542493e+004,-1.45788340973624e+000,-2.43859555454673e-001

3.29436406907028e+004,-1.45788336048356e+000,-2.47263638533684e-001

3.34035167771346e+004,-1.45788330980737e+000,-2.50715237908712e-001

3.38698124945009e+004,-1.45788325766553e+000,-2.54215016758426e-001

3.43426174575100e+004,-1.45788320401448e+000,-2.57763647514933e-001

3.48220225318448e+004,-1.45788314880934e+000,-2.61361811991541e-001

3.53081198516260e+004,-1.45788309200388e+000,-2.65010201513130e-001

3.58010028371187e+004,-1.45788303355032e+000,-2.68709517050456e-001

3.63007662126863e+004,-1.45788297339937e+000,-2.72460469352842e-001

3.68075060249948e+004,-1.45788291150042e+000,-2.76263779084155e-001

3.73213196614721e+004,-1.45788284780096e+000,-2.80120176963245e-001

3.78423058690237e+004,-1.45788278224696e+000,-2.84030403901961e-001

3.83705647730104e+004,-1.45788271478286e+000,-2.87995211146580e-001

3.89061978964912e+004,-1.45788264535081e+000,-2.92015360426007e-001

3.94493081797342e+004,-1.45788257389182e+000,-2.96091624090936e-001

3.99999999999998e+004,-1.45788250034454e+000,-3.00224785268186e-001

4.05583791916010e+004,-1.45788242464572e+000,-3.04415638007688e-001

4.11245530662425e+004,-1.45788234673009e+000,-3.08664987435489e-001

4.16986304336447e+004,-1.45788226653043e+000,-3.12973649906722e-001

4.22807216224550e+004,-1.45788218397734e+000,-3.17342453163058e-001

4.28709385014515e+004,-1.45788209899886e+000,-3.21772236492704e-001

4.34693945010421e+004,-1.45788201152094e+000,-3.26263850888568e-001

4.40762046350642e+004,-1.45788192146720e+000,-3.30818159211894e-001

4.46914855228886e+004,-1.45788182875862e+000,-3.35436036358694e-001

4.53153554118317e+004,-1.45788173331353e+000,-3.40118369426303e-001

4.59479341998812e+004,-1.45788163504771e+000,-3.44866057883925e-001

4.65893434587380e+004,-1.45788153387418e+000,-3.49680013743459e-001

4.72397064571810e+004,-1.45788142970295e+000,-3.54561161735784e-001

4.78991481847569e+004,-1.45788132244101e+000,-3.59510439487488e-001

4.85677953758016e+004,-1.45788121199257e+000,-3.64528797698148e-001

4.92457765337964e+004,-1.45788109825832e+000,-3.69617200325576e-001

4.99332219560642e+004,-1.45788098113552e+000,-3.74776624769629e-001

5.06302637588109e+004,-1.45788086051849e+000,-3.80008062054908e-001

5.13370359025159e+004,-1.45788073629747e+000,-3.85312517027212e-001

5.20536742176771e+004,-1.45788060835922e+000,-3.90691008540667e-001

5.27803164309155e+004,-1.45788047658653e+000,-3.96144569655223e-001

5.35171021914442e+004,-1.45788034085831e+000,-4.01674247832319e-001

5.42641730979066e+004,-1.45788020104929e+000,-4.07281105136845e-001

5.50216727255895e+004,-1.45788005702988e+000,-4.12966218439346e-001

5.57897466540159e+004,-1.45787990866589e+000,-4.18730679622939e-001

5.65685424949235e+004,-1.45787975581873e+000,-4.24575595790110e-001

5.73582099206328e+004,-1.45787959834478e+000,-4.30502089476343e-001

5.81589006928121e+004,-1.45787943609563e+000,-4.36511298863003e-001

5.89707686916437e+004,-1.45787926891743e+000,-4.42604377996647e-001

5.97939699453972e+004,-1.45787909665107e+000,-4.48782497007959e-001

6.06286626604156e+004,-1.45787891913180e+000,-4.55046842336111e-001

6.14750072515201e+004,-1.45787873618897e+000,-4.61398616955426e-001

6.23331663728396e+004,-1.45787854764601e+000,-4.67839040603898e-001

6.32033049490698e+004,-1.45787835331995e+000,-4.74369350018118e-001

6.40855902071694e+004,-1.45787815302123e+000,-4.80990799168316e-001

6.49801917084985e+004,-1.45787794655360e+000,-4.87704659497476e-001

6.58872813814055e+004,-1.45787773371356e+000,-4.94512220165016e-001

6.68070335542691e+004,-1.45787751429050e+000,-5.01414788290985e-001

6.77396249890018e+004,-1.45787728806580e+000,-5.08413689208907e-001

6.86852349150199e+004,-1.45787705481312e+000,-5.15510266714899e-001

6.96440450636895e+004,-1.45787681429770e+000,-5.22705883326224e-001

7.06162397032520e+004,-1.45787656627633e+000,-5.30001920539989e-001

7.16020056742374e+004,-1.45787631049651e+000,-5.37399779098721e-001

7.26015324253724e+004,-1.45787604669668e+000,-5.44900879254155e-001

7.36150120499896e+004,-1.45787577460534e+000,-5.52506661041444e-001

7.46426393229441e+004,-1.45787549394093e+000,-5.60218584551314e-001

7.56846117380472e+004,-1.45787520441136e+000,-5.68038130208957e-001

7.67411295460207e+004,-1.45787490571347e+000,-5.75966799056886e-001

7.78123957929823e+004,-1.45787459753277e+000,-5.84006113039439e-001

7.88986163594682e+004,-1.45787427954266e+000,-5.92157615294790e-001

7.99999999999995e+004,-1.45787395140430e+000,-6.00422870446634e-001

8.11167583832018e+004,-1.45787361276573e+000,-6.08803464903814e-001

8.22491061324848e+004,-1.45787326326160e+000,-6.17301007161780e-001

8.33972608672892e+004,-1.45787290251258e+000,-6.25917128107613e-001

8.45614432449099e+004,-1.45787253012448e+000,-6.34653481333383e-001

8.57418770029029e+004,-1.45787214568803e+000,-6.43511743447389e-001

8.69387890020841e+004,-1.45787174877789e+000,-6.52493614396469e-001

8.81524092701283e+004,-1.45787133895214e+000,-6.61600817786735e-001

8.93829710457770e+004,-1.45787091575169e+000,-6.70835101212350e-001

9.06307108236633e+004,-1.45787047869934e+000,-6.80198236588427e-001

9.18958683997622e+004,-1.45787002729893e+000,-6.89692020487577e-001

9.31786869174758e+004,-1.45786956103486e+000,-6.99318274481383e-001

9.44794129143618e+004,-1.45786907937096e+000,-7.09078845486708e-001

9.57982963695136e+004,-1.45786858174982e+000,-7.18975606116205e-001

9.71355907516031e+004,-1.45786806759154e+000,-7.29010455036172e-001

9.84915530675926e+004,-1.45786753629332e+000,-7.39185317323838e-001

9.98664439121282e+004,-1.45786698722779e+000,-7.49502144836826e-001

1.01260527517622e+005,-1.45786641974264e+000,-7.59962916580893e-001

1.02674071805032e+005,-1.45786583315888e+000,-7.70569639088163e-001

1.04107348435354e+005,-1.45786522677015e+000,-7.81324346796236e-001

1.05560632861831e+005,-1.45786459984143e+000,-7.92229102435585e-001

1.07034204382888e+005,-1.45786395160758e+000,-8.03285997421393e-001

1.08528346195813e+005,-1.45786328127249e+000,-8.14497152248425e-001

1.10043345451179e+005,-1.45786258800710e+000,-8.25864716897316e-001

1.11579493308032e+005,-1.45786187094852e+000,-8.37390871239177e-001

1.13137084989847e+005,-1.45786112919834e+000,-8.49077825450502e-001

1.14716419841265e+005,-1.45786036182102e+000,-8.60927820433327e-001

1.16317801385624e+005,-1.45785956784239e+000,-8.72943128239335e-001

1.17941537383287e+005,-1.45785874624799e+000,-8.85126052501146e-001

1.19587939890794e+005,-1.45785789598114e+000,-8.97478928869904e-001

1.21257325320831e+005,-1.45785701594132e+000,-9.10004125457826e-001

1.22950014503040e+005,-1.45785610498220e+000,-9.22704043287587e-001

1.24666332745679e+005,-1.45785516190949e+000,-9.35581116748473e-001

1.26406609898139e+005,-1.45785418547912e+000,-9.48637814056998e-001

1.28171180414339e+005,-1.45785317439488e+000,-9.61876637725981e-001

1.29960383416997e+005,-1.45785212730633e+000,-9.75300125039408e-001

1.31774562762811e+005,-1.45785104280633e+000,-9.88910848533007e-001

1.33614067108538e+005,-1.45784991942861e+000,-1.00271141648326e+000

1.35479249978003e+005,-1.45784875564526e+000,-1.01670447340190e+000

1.37370469830040e+005,-1.45784754986410e+000,-1.03089270053778e+000

1.39288090127379e+005,-1.45784630042585e+000,-1.04527881638586e+000

1.41232479406504e+005,-1.45784500560136e+000,-1.05986557720278e+000

1.43204011348474e+005,-1.45784366358848e+000,-1.07465577753105e+000

1.45203064850745e+005,-1.45784227250914e+000,-1.08965225072867e+000

1.47230024099979e+005,-1.45784083040595e+000,-1.10485786950795e+000

1.49285278645888e+005,-1.45783933523878e+000,-1.12027554648166e+000

1.51369223476094e+005,-1.45783778488171e+000,-1.13590823471422e+000

1.53482259092041e+005,-1.45783617711879e+000,-1.15175892828626e+000

1.55624791585964e+005,-1.45783450964069e+000,-1.16783066286154e+000

1.57797232718936e+005,-1.45783278004071e+000,-1.18412651626434e+000

1.59999999999999e+005,-1.45783098581055e+000,-1.20064960906699e+000

1.62233516766403e+005,-1.45782912433635e+000,-1.21740310518139e+000

1.64498212264969e+005,-1.45782719289419e+000,-1.23439021246285e+000

1.66794521734578e+005,-1.45782518864545e+000,-1.25161418332136e+000

1.69122886489819e+005,-1.45782310863242e+000,-1.26907831534001e+000

1.71483754005805e+005,-1.45782094977306e+000,-1.28678595190600e+000

1.73877578004168e+005,-1.45781870885626e+000,-1.30474048284635e+000

1.76304818540256e+005,-1.45781638253651e+000,-1.32294534507618e+000

1.78765942091554e+005,-1.45781396732844e+000,-1.34140402325528e+000

1.81261421647326e+005,-1.45781145960140e+000,-1.36012005045352e+000

1.83791736799524e+005,-1.45780885557360e+000,-1.37909700882675e+000

1.86357373834951e+005,-1.45780615130599e+000,-1.39833853030348e+000

1.88958825828723e+005,-1.45780334269646e+000,-1.41784829727888e+000

1.91596592739027e+005,-1.45780042547314e+000,-1.43763004332140e+000

1.94271181503206e+005,-1.45779739518800e+000,-1.45768755388996e+000

1.96983106135185e+005,-1.45779424721010e+000,-1.47802466705895e+000

1.99732887824256e+005,-1.45779097671847e+000,-1.49864527425755e+000

2.02521055035243e+005,-1.45778757869509e+000,-1.51955332101670e+000

2.05348143610063e+005,-1.45778404791739e+000,-1.54075280773012e+000

2.08214696870707e+005,-1.45778037895063e+000,-1.56224779042439e+000

2.11121265723661e+005,-1.45777656614012e+000,-1.58404238154109e+000

2.14068408765776e+005,-1.45777260360299e+000,-1.60614075073242e+000

2.17056692391625e+005,-1.45776848522018e+000,-1.62854712566530e+000

2.20086690902357e+005,-1.45776420462773e+000,-1.65126579284053e+000

2.23158986616063e+005,-1.45775975520800e+000,-1.67430109842362e+000

2.26274169979693e+005,-1.45775513008099e+000,-1.69765744908647e+000

2.29432839682530e+005,-1.45775032209479e+000,-1.72133931286430e+000

2.32635602771247e+005,-1.45774532381657e+000,-1.74535122002273e+000

2.35883074766574e+005,-1.45774012752254e+000,-1.76969776394126e+000

2.39175879781588e+005,-1.45773472518848e+000,-1.79438360200647e+000

2.42514650641661e+005,-1.45772910847931e+000,-1.81941345652255e+000

2.45900029006080e+005,-1.45772326873909e+000,-1.84479211563201e+000

2.49332665491357e+005,-1.45771719698027e+000,-1.87052443425321e+000

2.52813219796278e+005,-1.45771088387312e+000,-1.89661533503023e+000

2.56342360828676e+005,-1.45770431973468e+000,-1.92306980929897e+000

2.59920766833993e+005,-1.45769749451763e+000,-1.94989291806582e+000

2.63549125525621e+005,-1.45769039779893e+000,-1.97708979300285e+000

2.67228134217075e+005,-1.45768301876821e+000,-2.00466563745785e+000

2.70958499956006e+005,-1.45767534621604e+000,-2.03262572747900e+000

2.74740939660078e+005,-1.45766736852187e+000,-2.06097541285592e+000

2.78576180254757e+005,-1.45765907364200e+000,-2.08972011817572e+000

2.82464958813007e+005,-1.45765044909706e+000,-2.11886534389599e+000

2.86408022696948e+005,-1.45764148195961e+000,-2.14841666743302e+000

2.90406129701488e+005,-1.45763215884138e+000,-2.17837974426713e+000

2.94460048199957e+005,-1.45762246588028e+000,-2.20876030906500e+000

2.98570557291775e+005,-1.45761238872757e+000,-2.23956417681672e+000

3.02738446952187e+005,-1.45760191253439e+000,-2.27079724399375e+000

3.06964518184081e+005,-1.45759102193844e+000,-2.30246548972057e+000

3.11249583171928e+005,-1.45757970105065e+000,-2.33457497696537e+000

3.15594465437872e+005,-1.45756793344115e+000,-2.36713185374868e+000

3.19999999999997e+005,-1.45755570212584e+000,-2.40014235436916e+000

3.24467033532806e+005,-1.45754298955192e+000,-2.43361280064880e+000

3.28996424529938e+005,-1.45752977758425e+000,-2.46754960319466e+000

3.33589043469155e+005,-1.45751604749100e+000,-2.50195926267985e+000

3.38245772979638e+005,-1.45750177992897e+000,-2.53684837114452e+000

3.42967508011610e+005,-1.45748695492938e+000,-2.57222361331435e+000

3.47755156008335e+005,-1.45747155188325e+000,-2.60809176793741e+000

3.52609637080511e+005,-1.45745554952639e+000,-2.64445970914290e+000

3.57531884183106e+005,-1.45743892592481e+000,-2.68133440781638e+000

3.62522843294651e+005,-1.45742165845940e+000,-2.71872293299756e+000

3.67583473599047e+005,-1.45740372381095e+000,-2.75663245329528e+000

3.72714747669902e+005,-1.45738509794485e+000,-2.79507023832444e+000

3.77917651657445e+005,-1.45736575609543e+000,-2.83404366016282e+000

3.83193185478053e+005,-1.45734567275057e+000,-2.87356019482743e+000

3.88542363006410e+005,-1.45732482163598e+000,-2.91362742377157e+000

3.93966212270369e+005,-1.45730317569902e+000,-2.95425303540456e+000

3.99465775648511e+005,-1.45728070709274e+000,-2.99544482663008e+000

4.05042110070485e+005,-1.45725738715958e+000,-3.03721070440714e+000

4.10696287220124e+005,-1.45723318641490e+000,-3.07955868733134e+000

4.16429393741414e+005,-1.45720807453002e+000,-3.12249690723935e+000

4.22242531447321e+005,-1.45718202031549e+000,-3.16603361083337e+000

4.28136817531551e+005,-1.45715499170361e+000,-3.21017716132939e+000

4.34113384783250e+005,-1.45712695573116e+000,-3.25493604012560e+000

4.40173381804713e+005,-1.45709787852127e+000,-3.30031884849569e+000

4.46317973232124e+005,-1.45706772526548e+000,-3.34633430930277e+000

4.52548339959385e+005,-1.45703646020494e+000,-3.39299126873799e+000

4.58865679365059e+005,-1.45700404661183e+000,-3.44029869808048e+000

4.65271205542494e+005,-1.45697044676971e+000,-3.48826569548297e+000

4.71766149533147e+005,-1.45693562195384e+000,-3.53690148777941e+000

4.78351759563174e+005,-1.45689953241088e+000,-3.58621543231795e+000

4.85029301283321e+005,-1.45686213733813e+000,-3.63621701881701e+000

4.91800058012158e+005,-1.45682339486202e+000,-3.68691587124785e+000

4.98665330982714e+005,-1.45678326201637e+000,-3.73832174974046e+000

5.05626439592555e+005,-1.45674169471945e+000,-3.79044455251629e+000

5.12684721657352e+005,-1.45669864775109e+000,-3.84329431784566e+000

5.19841533667984e+005,-1.45665407472829e+000,-3.89688122603265e+000

5.27098251051240e+005,-1.45660792808083e+000,-3.95121560142506e+000

5.34456268434150e+005,-1.45656015902528e+000,-4.00630791445298e+000

5.41916999912011e+005,-1.45651071753897e+000,-4.06216878369396e+000

