Freq.,VOut,OutRef

1.00000000000000e+004,-2.29014360484707e+001,-1.73199821467479e-001

1.01395947979003e+004,-2.29014375162646e+001,-1.75617452676912e-001

1.02811382665607e+004,-2.29014390252998e+001,-1.78068826469207e-001

1.04246576084112e+004,-2.29014405767341e+001,-1.80554413608190e-001

1.05701804056138e+004,-2.29014421717580e+001,-1.83074691415254e-001

1.07177346253629e+004,-2.29014438115957e+001,-1.85630143863414e-001

1.08673486252606e+004,-2.29014454975051e+001,-1.88221261671602e-001

1.10190511587661e+004,-2.29014472307800e+001,-1.90848542393247e-001

1.11728713807222e+004,-2.29014490127501e+001,-1.93512490515975e-001

1.13288388529580e+004,-2.29014508447827e+001,-1.96213617553948e-001

1.14869835499703e+004,-2.29014527282828e+001,-1.98952442150455e-001

1.16473358646846e+004,-2.29014546646955e+001,-2.01729490170618e-001

1.18099266142953e+004,-2.29014566555060e+001,-2.04545294806049e-001

1.19747870461893e+004,-2.29014587022414e+001,-2.07400396674172e-001

1.21419488439505e+004,-2.29014608064711e+001,-2.10295343923578e-001

1.23114441334492e+004,-2.29014629698091e+001,-2.13230692334728e-001

1.24833054890161e+004,-2.29014651939142e+001,-2.16207005429355e-001

1.26575659397028e+004,-2.29014674804918e+001,-2.19224854575698e-001

1.28342589756290e+004,-2.29014698312951e+001,-2.22284819097918e-001

1.30134185544193e+004,-2.29014722481263e+001,-2.25387486386309e-001

1.31950791077289e+004,-2.29014747328384e+001,-2.28533452008391e-001

1.33792755478611e+004,-2.29014772873357e+001,-2.31723319823104e-001

1.35660432744767e+004,-2.29014799135765e+001,-2.34957702094941e-001

1.37554181813974e+004,-2.29014826135733e+001,-2.38237219610683e-001

1.39474366635040e+004,-2.29014853893956e+001,-2.41562501795425e-001

1.41421356237309e+004,-2.29014882431702e+001,-2.44934186836096e-001

1.43395524801583e+004,-2.29014911770838e+001,-2.48352921798601e-001

1.45397251732031e+004,-2.29014941933842e+001,-2.51819362752540e-001

1.47426921729110e+004,-2.29014972943821e+001,-2.55334174895976e-001

1.49484924863494e+004,-2.29015004824529e+001,-2.58898032679666e-001

1.51571656651040e+004,-2.29015037600383e+001,-2.62511619936095e-001

1.53687518128801e+004,-2.29015071296485e+001,-2.66175630011159e-001

1.55832915932100e+004,-2.29015105938636e+001,-2.69890765891080e-001

1.58008262372675e+004,-2.29015141553362e+001,-2.73657740339033e-001

1.60213975517924e+004,-2.29015178167929e+001,-2.77477276027584e-001

1.62450479271247e+004,-2.29015215810366e+001,-2.81350105676994e-001

1.64718203453514e+004,-2.29015254509482e+001,-2.85276972195077e-001

1.67017583885674e+004,-2.29015294294896e+001,-2.89258628813022e-001

1.69349062472505e+004,-2.29015335197051e+001,-2.93295839231866e-001

1.71713087287550e+004,-2.29015377247243e+001,-2.97389377765018e-001

1.74110112659224e+004,-2.29015420477637e+001,-3.01540029485849e-001

1.76540599258131e+004,-2.29015464921304e+001,-3.05748590372477e-001

1.79005014185594e+004,-2.29015510612233e+001,-3.10015867460095e-001

1.81503831063432e+004,-2.29015557585362e+001,-3.14342678994715e-001

1.84037530124975e+004,-2.29015605876606e+001,-3.18729854583652e-001

1.86606598307361e+004,-2.29015655522879e+001,-3.23178235354530e-001

1.89211529345119e+004,-2.29015706562130e+001,-3.27688674109099e-001

1.91852823865052e+004,-2.29015759033362e+001,-3.32262035490921e-001

1.94530989482457e+004,-2.29015812976666e+001,-3.36899196141682e-001

1.97246540898671e+004,-2.29015868433253e+001,-3.41601044866085e-001

1.99999999999999e+004,-2.29015925445480e+001,-3.46368482802805e-001

2.02791895958005e+004,-2.29015984056886e+001,-3.51202423588562e-001

2.05622765331213e+004,-2.29016044312221e+001,-3.56103793533305e-001

2.08493152168224e+004,-2.29016106257484e+001,-3.61073531790089e-001

2.11403608112276e+004,-2.29016169939953e+001,-3.66112590533661e-001

2.14354692507258e+004,-2.29016235408221e+001,-3.71221935136727e-001

2.17346972505211e+004,-2.29016302712236e+001,-3.76402544350900e-001

2.20381023175322e+004,-2.29016371903332e+001,-3.81655410489062e-001

2.23457427614443e+004,-2.29016443034275e+001,-3.86981539610390e-001

2.26576777059159e+004,-2.29016516159294e+001,-3.92381951709312e-001

2.29739670999406e+004,-2.29016591334126e+001,-3.97857680902894e-001

2.32946717293690e+004,-2.29016668616059e+001,-4.03409775624223e-001

2.36198532285905e+004,-2.29016748063969e+001,-4.09039298818745e-001

2.39495740923785e+004,-2.29016829738370e+001,-4.14747328138772e-001

2.42838976879009e+004,-2.29016913701453e+001,-4.20534956146145e-001

2.46228882668982e+004,-2.29017000017136e+001,-4.26403290511447e-001

2.49666109780322e+004,-2.29017088751108e+001,-4.32353454224327e-001

2.53151318794055e+004,-2.29017179970882e+001,-4.38386585794149e-001

2.56685179512580e+004,-2.29017273745839e+001,-4.44503839466461e-001

2.60268371088386e+004,-2.29017370147285e+001,-4.50706385432080e-001

2.63901582154578e+004,-2.29017469248498e+001,-4.56995410045316e-001

2.67585510957221e+004,-2.29017571124787e+001,-4.63372116039276e-001

2.71320865489533e+004,-2.29017675853541e+001,-4.69837722750908e-001

2.75108363627948e+004,-2.29017783514292e+001,-4.76393466341674e-001

2.78948733270080e+004,-2.29017894188771e+001,-4.83040600025398e-001

2.82842712474618e+004,-2.29018007960964e+001,-4.89780394298083e-001

2.86791049603164e+004,-2.29018124917178e+001,-4.96614137171022e-001

2.90794503464061e+004,-2.29018245146102e+001,-5.03543134403177e-001

2.94853843458219e+004,-2.29018368738873e+001,-5.10568709742461e-001

2.98969849726987e+004,-2.29018495789138e+001,-5.17692205165341e-001

3.03143313302078e+004,-2.29018626393127e+001,-5.24914981121868e-001

3.07375036257601e+004,-2.29018760649718e+001,-5.32238416781024e-001

3.11665831864199e+004,-2.29018898660513e+001,-5.39663910282170e-001

3.16016524745350e+004,-2.29019040529908e+001,-5.47192878987342e-001

3.20427951035848e+004,-2.29019186365169e+001,-5.54826759738214e-001

3.24900958542493e+004,-2.29019336276507e+001,-5.62567009115477e-001

3.29436406907028e+004,-2.29019490377163e+001,-5.70415103698003e-001

3.34035167771346e+004,-2.29019648783481e+001,-5.78372540333902e-001

3.38698124945009e+004,-2.29019811614996e+001,-5.86440836403753e-001

3.43426174575100e+004,-2.29019978994521e+001,-5.94621530094096e-001

3.48220225318448e+004,-2.29020151048227e+001,-6.02916180674418e-001

3.53081198516260e+004,-2.29020327905740e+001,-6.11326368772120e-001

3.58010028371187e+004,-2.29020509700229e+001,-6.19853696656034e-001

3.63007662126863e+004,-2.29020696568500e+001,-6.28499788519186e-001

3.68075060249948e+004,-2.29020888651091e+001,-6.37266290769059e-001

3.73213196614721e+004,-2.29021086092377e+001,-6.46154872315738e-001

3.78423058690237e+004,-2.29021289040663e+001,-6.55167224868609e-001

3.83705647730104e+004,-2.29021497648292e+001,-6.64305063234155e-001

3.89061978964912e+004,-2.29021712071749e+001,-6.73570125615176e-001

3.94493081797342e+004,-2.29021932471774e+001,-6.82964173915769e-001

3.99999999999998e+004,-2.29022159013467e+001,-6.92488994051136e-001

4.05583791916010e+004,-2.29022391866407e+001,-7.02146396256390e-001

4.11245530662425e+004,-2.29022631204767e+001,-7.11938215401020e-001

4.16986304336447e+004,-2.29022877207431e+001,-7.21866311308970e-001

4.22807216224550e+004,-2.29023130058121e+001,-7.31932569078122e-001

4.28709385014515e+004,-2.29023389945517e+001,-7.42138899405232e-001

4.34693945010421e+004,-2.29023657063391e+001,-7.52487238915021e-001

4.40762046350642e+004,-2.29023931610731e+001,-7.62979550490097e-001

4.46914855228886e+004,-2.29024213791882e+001,-7.73617823608075e-001

4.53153554118317e+004,-2.29024503816679e+001,-7.84404074677963e-001

4.59479341998812e+004,-2.29024801900586e+001,-7.95340347383724e-001

4.65893434587380e+004,-2.29025108264844e+001,-8.06428713028039e-001

4.72397064571810e+004,-2.29025423136615e+001,-8.17671270882738e-001

4.78991481847569e+004,-2.29025746749129e+001,-8.29070148539569e-001

4.85677953758016e+004,-2.29026079341846e+001,-8.40627502266066e-001

4.92457765337964e+004,-2.29026421160600e+001,-8.52345517365346e-001

4.99332219560642e+004,-2.29026772457770e+001,-8.64226408537505e-001

5.06302637588109e+004,-2.29027133492438e+001,-8.76272420245779e-001

5.13370359025159e+004,-2.29027504530557e+001,-8.88485827086874e-001

5.20536742176771e+004,-2.29027885845121e+001,-9.00868934161572e-001

5.27803164309155e+004,-2.29028277716340e+001,-9.13424077451860e-001

5.35171021914442e+004,-2.29028680431815e+001,-9.26153624200446e-001

5.42641730979066e+004,-2.29029094286721e+001,-9.39059973293058e-001

5.50216727255895e+004,-2.29029519583993e+001,-9.52145555643358e-001

5.57897466540159e+004,-2.29029956634513e+001,-9.65412834584772e-001

5.65685424949235e+004,-2.29030405757300e+001,-9.78864306259488e-001

5.73582099206328e+004,-2.29030867279710e+001,-9.92502500016958e-001

5.81589006928121e+004,-2.29031341537632e+001,-1.00632997881194e+000

5.89707686916437e+004,-2.29031828875695e+001,-1.02034933960630e+000

5.97939699453972e+004,-2.29032329647470e+001,-1.03456321377331e+000

6.06286626604156e+004,-2.29032844215686e+001,-1.04897426750769e+000

6.14750072515201e+004,-2.29033372952443e+001,-1.06358520223629e+000

6.23331663728396e+004,-2.29033916239428e+001,-1.07839875503115e+000

6.32033049490698e+004,-2.29034474468139e+001,-1.09341769902916e+000

6.40855902071694e+004,-2.29035048040112e+001,-1.10864484384992e+000

6.49801917084985e+004,-2.29035637367149e+001,-1.12408303601957e+000

6.58872813814055e+004,-2.29036242871553e+001,-1.13973515939799e+000

6.68070335542691e+004,-2.29036864986359e+001,-1.15560413560595e+000

6.77396249890018e+004,-2.29037504155586e+001,-1.17169292445573e+000

6.86852349150199e+004,-2.29038160834466e+001,-1.18800452438823e+000

6.96440450636895e+004,-2.29038835489707e+001,-1.20454197290563e+000

7.06162397032520e+004,-2.29039528599731e+001,-1.22130834701361e+000

7.16020056742374e+004,-2.29040240654938e+001,-1.23830676366111e+000

7.26015324253724e+004,-2.29040972157957e+001,-1.25554038018540e+000

7.36150120499896e+004,-2.29041723623907e+001,-1.27301239475800e+000

7.46426393229441e+004,-2.29042495580668e+001,-1.29072604683207e+000

7.56846117380472e+004,-2.29043288569138e+001,-1.30868461759540e+000

7.67411295460207e+004,-2.29044103143508e+001,-1.32689143042152e+000

7.78123957929823e+004,-2.29044939871534e+001,-1.34534985132529e+000

7.88986163594682e+004,-2.29045799334809e+001,-1.36406328941941e+000

7.99999999999995e+004,-2.29046682129043e+001,-1.38303519737356e+000

8.11167583832018e+004,-2.29047588864337e+001,-1.40226907187545e+000

8.22491061324848e+004,-2.29048520165471e+001,-1.42176845409101e+000

8.33972608672892e+004,-2.29049476672182e+001,-1.44153693013140e+000

8.45614432449099e+004,-2.29050459039446e+001,-1.46157813151643e+000

8.57418770029029e+004,-2.29051467937769e+001,-1.48189573564281e+000

8.69387890020841e+004,-2.29052504053469e+001,-1.50249346625192e+000

8.81524092701283e+004,-2.29053568088964e+001,-1.52337509390061e+000

8.93829710457770e+004,-2.29054660763059e+001,-1.54454443643238e+000

9.06307108236633e+004,-2.29055782811234e+001,-1.56600535944905e+000

9.18958683997622e+004,-2.29056934985929e+001,-1.58776177678632e+000

9.31786869174758e+004,-2.29058118056829e+001,-1.60981765098703e+000

9.44794129143618e+004,-2.29059332811156e+001,-1.63217699377786e+000

9.57982963695136e+004,-2.29060580053940e+001,-1.65484386654748e+000

9.71355907516031e+004,-2.29061860608313e+001,-1.67782238082283e+000

9.84915530675926e+004,-2.29063175315777e+001,-1.70111669875052e+000

9.98664439121282e+004,-2.29064525036488e+001,-1.72473103357493e+000

1.01260527517622e+005,-2.29065910649523e+001,-1.74866965012082e+000

1.02674071805032e+005,-2.29067333053150e+001,-1.77293686527550e+000

1.04107348435354e+005,-2.29068793165091e+001,-1.79753704847151e+000

1.05560632861831e+005,-2.29070291922781e+001,-1.82247462217080e+000

1.07034204382888e+005,-2.29071830283620e+001,-1.84775406235111e+000

1.08528346195813e+005,-2.29073409225219e+001,-1.87337989899089e+000

1.10043345451179e+005,-2.29075029745636e+001,-1.89935671655921e+000

1.11579493308032e+005,-2.29076692863611e+001,-1.92568915450286e+000

1.13137084989847e+005,-2.29078399618784e+001,-1.95238190773798e+000

1.14716419841265e+005,-2.29080151071910e+001,-1.97943972714123e+000

1.16317801385624e+005,-2.29081948305060e+001,-2.00686742004534e+000

1.17941537383287e+005,-2.29083792421810e+001,-2.03466985073346e+000

1.19587939890794e+005,-2.29085684547424e+001,-2.06285194093744e+000

1.21257325320831e+005,-2.29087625829016e+001,-2.09141867033872e+000

1.22950014503040e+005,-2.29089617435702e+001,-2.12037507707147e+000

1.24666332745679e+005,-2.29091660558743e+001,-2.14972625822767e+000

1.26406609898139e+005,-2.29093756411659e+001,-2.17947737036785e+000

1.28171180414339e+005,-2.29095906230338e+001,-2.20963363003332e+000

1.29960383416997e+005,-2.29098111273122e+001,-2.24020031426477e+000

1.31774562762811e+005,-2.29100372820875e+001,-2.27118276112277e+000

1.33614067108538e+005,-2.29102692177031e+001,-2.30258637021585e+000

1.35479249978003e+005,-2.29105070667623e+001,-2.33441660323334e+000

1.37370469830040e+005,-2.29107509641282e+001,-2.36667898448528e+000

1.39288090127379e+005,-2.29110010469229e+001,-2.39937910144674e+000

1.41232479406504e+005,-2.29112574545222e+001,-2.43252260531472e+000

1.43204011348474e+005,-2.29115203285495e+001,-2.46611521156758e+000

1.45203064850745e+005,-2.29117898128660e+001,-2.50016270053970e+000

1.47230024099979e+005,-2.29120660535587e+001,-2.53467091800151e+000

1.49285278645888e+005,-2.29123491989251e+001,-2.56964577575502e+000

1.51369223476094e+005,-2.29126393994550e+001,-2.60509325223740e+000

1.53482259092041e+005,-2.29129368078097e+001,-2.64101939314158e+000

1.55624791585964e+005,-2.29132415787971e+001,-2.67743031204939e+000

1.57797232718936e+005,-2.29135538693444e+001,-2.71433219108130e+000

1.59999999999999e+005,-2.29138738384665e+001,-2.75173128156286e+000

1.62233516766403e+005,-2.29142016472317e+001,-2.78963390471001e+000

1.64498212264969e+005,-2.29145374587230e+001,-2.82804645233550e+000

1.66794521734578e+005,-2.29148814379968e+001,-2.86697538757418e+000

1.69122886489819e+005,-2.29152337520363e+001,-2.90642724563524e+000

1.71483754005805e+005,-2.29155945697029e+001,-2.94640863457631e+000

1.73877578004168e+005,-2.29159640616817e+001,-2.98692623610725e+000

1.76304818540256e+005,-2.29163424004249e+001,-3.02798680642009e+000

1.78765942091554e+005,-2.29167297600901e+001,-3.06959717705271e+000

1.81261421647326e+005,-2.29171263164746e+001,-3.11176425578205e+000

1.83791736799524e+005,-2.29175322469463e+001,-3.15449502755653e+000

1.86357373834951e+005,-2.29179477303697e+001,-3.19779655546225e+000

1.88958825828723e+005,-2.29183729470286e+001,-3.24167598173108e+000

1.91596592739027e+005,-2.29188080785447e+001,-3.28614052878984e+000

1.94271181503206e+005,-2.29192533077915e+001,-3.33119750035472e+000

1.96983106135185e+005,-2.29197088188052e+001,-3.37685428257336e+000

1.99732887824256e+005,-2.29201747966912e+001,-3.42311834521540e+000

2.02521055035243e+005,-2.29206514275271e+001,-3.46999724291750e+000

2.05348143610063e+005,-2.29211388982626e+001,-3.51749861648153e+000

2.08214696870707e+005,-2.29216373966145e+001,-3.56563019423388e+000

2.11121265723661e+005,-2.29221471109603e+001,-3.61439979344305e+000

2.14068408765776e+005,-2.29226682302275e+001,-3.66381532180228e+000

2.17056692391625e+005,-2.29232009437804e+001,-3.71388477898041e+000

2.20086690902357e+005,-2.29237454413047e+001,-3.76461625824015e+000

2.23158986616063e+005,-2.29243019126892e+001,-3.81601794813101e+000

2.26274169979693e+005,-2.29248705479060e+001,-3.86809813425733e+000

2.29432839682530e+005,-2.29254515368893e+001,-3.92086520112551e+000

2.32635602771247e+005,-2.29260450694123e+001,-3.97432763407214e+000

2.35883074766574e+005,-2.29266513349641e+001,-4.02849402127686e+000

2.39175879781588e+005,-2.29272705226259e+001,-4.08337305586345e+000

2.42514650641661e+005,-2.29279028209475e+001,-4.13897353808886e+000

2.45900029006080e+005,-2.29285484178243e+001,-4.19530437762800e+000

2.49332665491357e+005,-2.29292075003757e+001,-4.25237459595050e+000

2.52813219796278e+005,-2.29298802548261e+001,-4.31019332879724e+000

2.56342360828676e+005,-2.29305668663868e+001,-4.36876982875606e+000

2.59920766833993e+005,-2.29312675191428e+001,-4.42811346793932e+000

2.63549125525621e+005,-2.29319823959426e+001,-4.48823374076538e+000

2.67228134217075e+005,-2.29327116782927e+001,-4.54914026684565e+000

2.70958499956006e+005,-2.29334555462575e+001,-4.61084279397916e+000

2.74740939660078e+005,-2.29342141783663e+001,-4.67335120125421e+000

2.78576180254757e+005,-2.29349877515257e+001,-4.73667550226045e+000

2.82464958813007e+005,-2.29357764409415e+001,-4.80082584841034e+000

2.86408022696948e+005,-2.29365804200487e+001,-4.86581253237081e+000

2.90406129701488e+005,-2.29373998604514e+001,-4.93164599160512e+000

2.94460048199957e+005,-2.29382349318729e+001,-4.99833681202500e+000

2.98570557291775e+005,-2.29390858021184e+001,-5.06589573175238e+000

3.02738446952187e+005,-2.29399526370495e+001,-5.13433364498823e+000

3.06964518184081e+005,-2.29408356005725e+001,-5.20366160598966e+000

3.11249583171928e+005,-2.29417348546413e+001,-5.27389083315114e+000

3.15594465437872e+005,-2.29426505592758e+001,-5.34503271318874e+000

3.19999999999997e+005,-2.29435828725969e+001,-5.41709880542472e+000

3.24467033532806e+005,-2.29445319508788e+001,-5.49010084616776e+000

3.28996424529938e+005,-2.29454979486202e+001,-5.56405075318896e+000

3.33589043469155e+005,-2.29464810186342e+001,-5.63896063028409e+000

3.38245772979638e+005,-2.29474813121595e+001,-5.71484277192343e+000

3.42967508011610e+005,-2.29484989789919e+001,-5.79170966798045e+000

3.47755156008335e+005,-2.29495341676388e+001,-5.86957400853419e+000

3.52609637080511e+005,-2.29505870254958e+001,-5.94844868874225e+000

3.57531884183106e+005,-2.29516576990478e+001,-6.02834681377553e+000

3.62522843294651e+005,-2.29527463340940e+001,-6.10928170380878e+000

3.67583473599047e+005,-2.29538530759988e+001,-6.19126689906046e+000

3.72714747669902e+005,-2.29549780699674e+001,-6.27431616487496e+000

3.77917651657445e+005,-2.29561214613489e+001,-6.35844349683798e+000

3.83193185478053e+005,-2.29572833959654e+001,-6.44366312591804e+000

3.88542363006410e+005,-2.29584640204691e+001,-6.52998952362628e+000

3.93966212270369e+005,-2.29596634827265e+001,-6.61743740718543e+000

3.99465775648511e+005,-2.29608819322306e+001,-6.70602174469814e+000

4.05042110070485e+005,-2.29621195205415e+001,-6.79575776030932e+000

4.10696287220124e+005,-2.29633764017545e+001,-6.88666093934781e+000

4.16429393741414e+005,-2.29646527329972e+001,-6.97874703344454e+000

4.22242531447321e+005,-2.29659486749542e+001,-7.07203206561277e+000

4.28136817531551e+005,-2.29672643924196e+001,-7.16653233528427e+000

4.34113384783250e+005,-2.29686000548774e+001,-7.26226442329168e+000

4.40173381804713e+005,-2.29699558371095e+001,-7.35924519678701e+000

4.46317973232124e+005,-2.29713319198295e+001,-7.45749181408937e+000

4.52548339959385e+005,-2.29727284903439e+001,-7.55702172945091e+000

4.58865679365059e+005,-2.29741457432385e+001,-7.65785269773472e+000

4.65271205542494e+005,-2.29755838810893e+001,-7.76000277899487e+000

4.71766149533147e+005,-2.29770431151982e+001,-7.86349034295316e+000

4.78351759563174e+005,-2.29785236663522e+001,-7.96833407336100e+000

4.85029301283321e+005,-2.29800257656035e+001,-8.07455297224453e+000

4.91800058012158e+005,-2.29815496550724e+001,-8.18216636402357e+000

4.98665330982714e+005,-2.29830955887699e+001,-8.29119389949766e+000

5.05626439592555e+005,-2.29846638334392e+001,-8.40165555969651e+000

5.12684721657352e+005,-2.29862546694152e+001,-8.51357165958806e+000

5.19841533667984e+005,-2.29878683915008e+001,-8.62696285163998e+000

5.27098251051240e+005,-2.29895053098587e+001,-8.74185012923244e+000

5.34456268434150e+005,-2.29911657509173e+001,-8.85825482991604e+000

5.41916999912011e+005,-2.29928500582892e+001,-8.97619863851667e+000

