Freq.,VOut,OutRef

1.00000000000000e+004,-1.88369577593847e+001,-2.23378215241238e-001

1.01395947979003e+004,-1.88369592811828e+001,-2.26496314609708e-001

1.02811382665607e+004,-1.88369608457411e+001,-2.29657934898132e-001

1.04246576084112e+004,-1.88369624542604e+001,-2.32863683375435e-001

1.05701804056138e+004,-1.88369641079752e+001,-2.36114175778323e-001

1.07177346253629e+004,-1.88369658081547e+001,-2.39410036425475e-001

1.08673486252606e+004,-1.88369675561037e+001,-2.42751898339249e-001

1.10190511587661e+004,-1.88369693531634e+001,-2.46140403366784e-001

1.11728713807222e+004,-1.88369712007126e+001,-2.49576202302935e-001

1.13288388529580e+004,-1.88369731001691e+001,-2.53059955011506e-001

1.14869835499703e+004,-1.88369750529902e+001,-2.56592330554553e-001

1.16473358646846e+004,-1.88369770606742e+001,-2.60174007319674e-001

1.18099266142953e+004,-1.88369791247611e+001,-2.63805673148170e-001

1.19747870461893e+004,-1.88369812468346e+001,-2.67488025467836e-001

1.21419488439505e+004,-1.88369834285220e+001,-2.71221771426190e-001

1.23114441334492e+004,-1.88369856714972e+001,-2.75007628022626e-001

1.24833054890161e+004,-1.88369879774802e+001,-2.78846322249602e-001

1.26575659397028e+004,-1.88369903482395e+001,-2.82738591227702e-001

1.28342589756290e+004,-1.88369927855933e+001,-2.86685182348146e-001

1.30134185544193e+004,-1.88369952914105e+001,-2.90686853414912e-001

1.31950791077289e+004,-1.88369978676125e+001,-2.94744372788234e-001

1.33792755478611e+004,-1.88370005161744e+001,-2.98858519534111e-001

1.35660432744767e+004,-1.88370032391268e+001,-3.03030083567605e-001

1.37554181813974e+004,-1.88370060385570e+001,-3.07259865809428e-001

1.39474366635040e+004,-1.88370089166110e+001,-3.11548678332754e-001

1.41421356237309e+004,-1.88370118754944e+001,-3.15897344523256e-001

1.43395524801583e+004,-1.88370149174751e+001,-3.20306699230257e-001

1.45397251732031e+004,-1.88370180448842e+001,-3.24777588930942e-001

1.47426921729110e+004,-1.88370212601179e+001,-3.29310871888393e-001

1.49484924863494e+004,-1.88370245656400e+001,-3.33907418314797e-001

1.51571656651040e+004,-1.88370279639828e+001,-3.38568110537828e-001

1.53687518128801e+004,-1.88370314577495e+001,-3.43293843169240e-001

1.55832915932100e+004,-1.88370350496162e+001,-3.48085523273101e-001

1.58008262372675e+004,-1.88370387423340e+001,-3.52944070539374e-001

1.60213975517924e+004,-1.88370425387305e+001,-3.57870417457828e-001

1.62450479271247e+004,-1.88370464417131e+001,-3.62865509494953e-001

1.64718203453514e+004,-1.88370504542696e+001,-3.67930305276301e-001

1.67017583885674e+004,-1.88370545794722e+001,-3.73065776762611e-001

1.69349062472505e+004,-1.88370588204783e+001,-3.78272909440539e-001

1.71713087287550e+004,-1.88370631805339e+001,-3.83552702504851e-001

1.74110112659224e+004,-1.88370676629757e+001,-3.88906169050765e-001

1.76540599258131e+004,-1.88370722712334e+001,-3.94334336263972e-001

1.79005014185594e+004,-1.88370770088326e+001,-3.99838245616169e-001

1.81503831063432e+004,-1.88370818793975e+001,-4.05418953062416e-001

1.84037530124975e+004,-1.88370868866534e+001,-4.11077529239350e-001

1.86606598307361e+004,-1.88370920344295e+001,-4.16815059670944e-001

1.89211529345119e+004,-1.88370973266621e+001,-4.22632644969557e-001

1.91852823865052e+004,-1.88371027673971e+001,-4.28531401048106e-001

1.94530989482457e+004,-1.88371083607934e+001,-4.34512459327174e-001

1.97246540898671e+004,-1.88371141111259e+001,-4.40576966952359e-001

1.99999999999999e+004,-1.88371200227888e+001,-4.46726087006298e-001

2.02791895958005e+004,-1.88371261002987e+001,-4.52960998732870e-001

2.05622765331213e+004,-1.88371323482982e+001,-4.59282897756256e-001

2.08493152168224e+004,-1.88371387715590e+001,-4.65692996307721e-001

2.11403608112276e+004,-1.88371453749862e+001,-4.72192523451498e-001

2.14354692507258e+004,-1.88371521636213e+001,-4.78782725319799e-001

2.17346972505211e+004,-1.88371591426460e+001,-4.85464865345574e-001

2.20381023175322e+004,-1.88371663173867e+001,-4.92240224498381e-001

2.23457427614443e+004,-1.88371736933177e+001,-4.99110101527599e-001

2.26576777059159e+004,-1.88371812760655e+001,-5.06075813205777e-001

2.29739670999406e+004,-1.88371890714135e+001,-5.13138694574546e-001

2.32946717293690e+004,-1.88371970853058e+001,-5.20300099194180e-001

2.36198532285905e+004,-1.88372053238516e+001,-5.27561399401290e-001

2.39495740923785e+004,-1.88372137933299e+001,-5.34923986561114e-001

2.42838976879009e+004,-1.88372225001942e+001,-5.42389271331743e-001

2.46228882668982e+004,-1.88372314510773e+001,-5.49958683923668e-001

2.49666109780322e+004,-1.88372406527959e+001,-5.57633674371879e-001

2.53151318794055e+004,-1.88372501123563e+001,-5.65415712802364e-001

2.56685179512580e+004,-1.88372598369587e+001,-5.73306289708639e-001

2.60268371088386e+004,-1.88372698340031e+001,-5.81306916230265e-001

2.63901582154578e+004,-1.88372801110949e+001,-5.89419124430505e-001

2.67585510957221e+004,-1.88372906760499e+001,-5.97644467586244e-001

2.71320865489533e+004,-1.88373015369006e+001,-6.05984520473115e-001

2.75108363627948e+004,-1.88373127019019e+001,-6.14440879659675e-001

2.78948733270080e+004,-1.88373241795371e+001,-6.23015163803040e-001

2.82842712474618e+004,-1.88373359785240e+001,-6.31709013950085e-001

2.86791049603164e+004,-1.88373481078217e+001,-6.40524093838928e-001

2.90794503464061e+004,-1.88373605766369e+001,-6.49462090209206e-001

2.94853843458219e+004,-1.88373733944305e+001,-6.58524713112803e-001

2.98969849726987e+004,-1.88373865709245e+001,-6.67713696229540e-001

3.03143313302078e+004,-1.88374001161094e+001,-6.77030797186435e-001

3.07375036257601e+004,-1.88374140402513e+001,-6.86477797882046e-001

3.11665831864199e+004,-1.88374283538991e+001,-6.96056504814252e-001

3.16016524745350e+004,-1.88374430678924e+001,-7.05768749412299e-001

3.20427951035848e+004,-1.88374581933694e+001,-7.15616388371723e-001

3.24900958542493e+004,-1.88374737417745e+001,-7.25601303997127e-001

3.29436406907028e+004,-1.88374897248672e+001,-7.35725404543810e-001

3.34035167771346e+004,-1.88375061547299e+001,-7.45990624568942e-001

3.38698124945009e+004,-1.88375230437773e+001,-7.56398925282937e-001

3.43426174575100e+004,-1.88375404047644e+001,-7.66952294908539e-001

3.48220225318448e+004,-1.88375582507963e+001,-7.77652749042252e-001

3.53081198516260e+004,-1.88375765953375e+001,-7.88502331019470e-001

3.58010028371187e+004,-1.88375954522209e+001,-7.99503112287452e-001

3.63007662126863e+004,-1.88376148356585e+001,-8.10657192778792e-001

3.68075060249948e+004,-1.88376347602507e+001,-8.21966701292392e-001

3.73213196614721e+004,-1.88376552409970e+001,-8.33433795877471e-001

3.78423058690237e+004,-1.88376762933065e+001,-8.45060664222855e-001

3.83705647730104e+004,-1.88376979330089e+001,-8.56849524050408e-001

3.89061978964912e+004,-1.88377201763652e+001,-8.68802623514436e-001

3.94493081797342e+004,-1.88377430400795e+001,-8.80922241602945e-001

3.99999999999998e+004,-1.88377665413104e+001,-8.93210688548198e-001

4.05583791916010e+004,-1.88377906976831e+001,-9.05670306237095e-001

4.11245530662425e+004,-1.88378155273014e+001,-9.18303468629991e-001

4.16986304336447e+004,-1.88378410487605e+001,-9.31112582182218e-001

4.22807216224550e+004,-1.88378672811597e+001,-9.44100086272659e-001

4.28709385014515e+004,-1.88378942441155e+001,-9.57268453634761e-001

4.34693945010421e+004,-1.88379219577750e+001,-9.70620190794299e-001

4.40762046350642e+004,-1.88379504428298e+001,-9.84157838510636e-001

4.46914855228886e+004,-1.88379797205299e+001,-9.97883972225802e-001

4.53153554118317e+004,-1.88380098126984e+001,-1.01180120251473e+000

4.59479341998812e+004,-1.88380407417459e+001,-1.02591217554296e+000

4.65893434587380e+004,-1.88380725306858e+001,-1.04021957352881e+000

4.72397064571810e+004,-1.88381052031496e+001,-1.05472611521221e+000

4.78991481847569e+004,-1.88381387834028e+001,-1.06943455632539e+000

4.85677953758016e+004,-1.88381732963610e+001,-1.08434769007048e+000

4.92457765337964e+004,-1.88382087676064e+001,-1.09946834760450e+000

4.99332219560642e+004,-1.88382452234045e+001,-1.11479939852502e+000

5.06302637588109e+004,-1.88382826907216e+001,-1.13034375136381e+000

5.13370359025159e+004,-1.88383211972422e+001,-1.14610435408663e+000

5.20536742176771e+004,-1.88383607713873e+001,-1.16208419459506e+000

5.27803164309155e+004,-1.88384014423322e+001,-1.17828630123676e+000

5.35171021914442e+004,-1.88384432400259e+001,-1.19471374331810e+000

5.42641730979066e+004,-1.88384861952100e+001,-1.21136963162531e+000

5.50216727255895e+004,-1.88385303394379e+001,-1.22825711894786e+000

5.57897466540159e+004,-1.88385757050956e+001,-1.24537940060784e+000

5.65685424949235e+004,-1.88386223254215e+001,-1.26273971499658e+000

5.73582099206328e+004,-1.88386702345269e+001,-1.28034134411438e+000

5.81589006928121e+004,-1.88387194674180e+001,-1.29818761411571e+000

5.89707686916437e+004,-1.88387700600171e+001,-1.31628189586035e+000

5.97939699453972e+004,-1.88388220491844e+001,-1.33462760547049e+000

6.06286626604156e+004,-1.88388754727409e+001,-1.35322820489100e+000

6.14750072515201e+004,-1.88389303694908e+001,-1.37208720245646e+000

6.23331663728396e+004,-1.88389867792455e+001,-1.39120815346371e+000

6.32033049490698e+004,-1.88390447428465e+001,-1.41059466074830e+000

6.40855902071694e+004,-1.88391043021900e+001,-1.43025037526752e+000

6.49801917084985e+004,-1.88391655002518e+001,-1.45017899668654e+000

6.58872813814055e+004,-1.88392283811114e+001,-1.47038427397289e+000

6.68070335542691e+004,-1.88392929899784e+001,-1.49087000599393e+000

6.77396249890018e+004,-1.88393593732173e+001,-1.51164004211918e+000

6.86852349150199e+004,-1.88394275783751e+001,-1.53269828282843e+000

6.96440450636895e+004,-1.88394976542065e+001,-1.55404868032717e+000

7.06162397032520e+004,-1.88395696507021e+001,-1.57569523916113e+000

7.16020056742374e+004,-1.88396436191151e+001,-1.59764201684344e+000

7.26015324253724e+004,-1.88397196119899e+001,-1.61989312448063e+000

7.36150120499896e+004,-1.88397976831896e+001,-1.64245272740633e+000

7.46426393229441e+004,-1.88398778879254e+001,-1.66532504582052e+000

7.56846117380472e+004,-1.88399602827850e+001,-1.68851435543207e+000

7.67411295460207e+004,-1.88400449257622e+001,-1.71202498810600e+000

7.78123957929823e+004,-1.88401318762867e+001,-1.73586133251834e+000

7.88986163594682e+004,-1.88402211952543e+001,-1.76002783481250e+000

7.99999999999995e+004,-1.88403129450567e+001,-1.78452899926217e+000

8.11167583832018e+004,-1.88404071896129e+001,-1.80936938893838e+000

8.22491061324848e+004,-1.88405039943998e+001,-1.83455362638210e+000

8.33972608672892e+004,-1.88406034264833e+001,-1.86008639428033e+000

8.45614432449099e+004,-1.88407055545504e+001,-1.88597243614768e+000

8.57418770029029e+004,-1.88408104489403e+001,-1.91221655701220e+000

8.69387890020841e+004,-1.88409181816767e+001,-1.93882362410637e+000

8.81524092701283e+004,-1.88410288264999e+001,-1.96579856756154e+000

8.93829710457770e+004,-1.88411424588987e+001,-1.99314638110872e+000

9.06307108236633e+004,-1.88412591561437e+001,-2.02087212278117e+000

9.18958683997622e+004,-1.88413789973187e+001,-2.04898091562449e+000

9.31786869174758e+004,-1.88415020633541e+001,-2.07747794840963e+000

9.44794129143618e+004,-1.88416284370591e+001,-2.10636847634982e+000

9.57982963695136e+004,-1.88417582031544e+001,-2.13565782182401e+000

9.71355907516031e+004,-1.88418914483048e+001,-2.16535137510297e+000

9.84915530675926e+004,-1.88420282611515e+001,-2.19545459508046e+000

9.98664439121282e+004,-1.88421687323445e+001,-2.22597301000965e+000

1.01260527517622e+005,-1.88423129545748e+001,-2.25691221824364e+000

1.02674071805032e+005,-1.88424610226063e+001,-2.28827788897972e+000

1.04107348435354e+005,-1.88426130333072e+001,-2.32007576301039e+000

1.05560632861831e+005,-1.88427690856816e+001,-2.35231165347728e+000

1.07034204382888e+005,-1.88429292809003e+001,-2.38499144663165e+000

1.08528346195813e+005,-1.88430937223313e+001,-2.41812110259700e+000

1.10043345451179e+005,-1.88432625155695e+001,-2.45170665614079e+000

1.11579493308032e+005,-1.88434357684665e+001,-2.48575421744859e+000

1.13137084989847e+005,-1.88436135911588e+001,-2.52026997290401e+000

1.14716419841265e+005,-1.88437960960965e+001,-2.55526018587414e+000

1.16317801385624e+005,-1.88439833980698e+001,-2.59073119750345e+000

1.17941537383287e+005,-1.88441756142360e+001,-2.62668942750821e+000

1.19587939890794e+005,-1.88443728641443e+001,-2.66314137498398e+000

1.21257325320831e+005,-1.88445752697611e+001,-2.70009361921264e+000

1.22950014503040e+005,-1.88447829554922e+001,-2.73755282048316e+000

1.24666332745679e+005,-1.88449960482059e+001,-2.77552572091392e+000

1.26406609898139e+005,-1.88452146772532e+001,-2.81401914528568e+000

1.28171180414339e+005,-1.88454389744878e+001,-2.85304000188251e+000

1.29960383416997e+005,-1.88456690742837e+001,-2.89259528334005e+000

1.31774562762811e+005,-1.88459051135520e+001,-2.93269206750328e+000

1.33614067108538e+005,-1.88461472317554e+001,-2.97333751829462e+000

1.35479249978003e+005,-1.88463955709217e+001,-3.01453888659091e+000

1.37370469830040e+005,-1.88466502756545e+001,-3.05630351111167e+000

1.39288090127379e+005,-1.88469114931432e+001,-3.09863881931962e+000

1.41232479406504e+005,-1.88471793731697e+001,-3.14155232833204e+000

1.43204011348474e+005,-1.88474540681138e+001,-3.18505164584627e+000

1.45203064850745e+005,-1.88477357329558e+001,-3.22914447107914e+000

1.47230024099979e+005,-1.88480245252774e+001,-3.27383859571978e+000

1.49285278645888e+005,-1.88483206052598e+001,-3.31914190489969e+000

1.51369223476094e+005,-1.88486241356786e+001,-3.36506237818027e+000

1.53482259092041e+005,-1.88489352818977e+001,-3.41160809055540e+000

1.55624791585964e+005,-1.88492542118587e+001,-3.45878721347660e+000

1.57797232718936e+005,-1.88495810960685e+001,-3.50660801589643e+000

1.59999999999999e+005,-1.88499161075840e+001,-3.55507886533434e+000

1.62233516766403e+005,-1.88502594219933e+001,-3.60420822896588e+000

1.64498212264969e+005,-1.88506112173943e+001,-3.65400467473580e+000

1.66794521734578e+005,-1.88509716743696e+001,-3.70447687249911e+000

1.69122886489819e+005,-1.88513409759589e+001,-3.75563359518736e+000

1.71483754005805e+005,-1.88517193076278e+001,-3.80748372000708e+000

1.73877578004168e+005,-1.88521068572333e+001,-3.86003622966814e+000

1.76304818540256e+005,-1.88525038149854e+001,-3.91330021364606e+000

1.78765942091554e+005,-1.88529103734067e+001,-3.96728486947948e+000

1.81261421647326e+005,-1.88533267272872e+001,-4.02199950410435e+000

1.83791736799524e+005,-1.88537530736363e+001,-4.07745353522906e+000

1.86357373834951e+005,-1.88541896116317e+001,-4.13365649274997e+000

1.88958825828723e+005,-1.88546365425642e+001,-4.19061802021152e+000

1.91596592739027e+005,-1.88550940697799e+001,-4.24834787631221e+000

1.94271181503206e+005,-1.88555623986184e+001,-4.30685593646119e+000

1.96983106135185e+005,-1.88560417363490e+001,-4.36615219438329e+000

1.99732887824256e+005,-1.88565322921017e+001,-4.42624676378070e+000

2.02521055035243e+005,-1.88570342767980e+001,-4.48714988004946e+000

2.05348143610063e+005,-1.88575479030763e+001,-4.54887190205652e+000

2.08214696870707e+005,-1.88580733852163e+001,-4.61142331397778e+000

2.11121265723661e+005,-1.88586109390599e+001,-4.67481472720224e+000

2.14068408765776e+005,-1.88591607819305e+001,-4.73905688230134e+000

2.17056692391625e+005,-1.88597231325501e+001,-4.80416065107254e+000

2.20086690902357e+005,-1.88602982109541e+001,-4.87013703865275e+000

2.23158986616063e+005,-1.88608862384055e+001,-4.93699718570997e+000

2.26274169979693e+005,-1.88614874373072e+001,-5.00475237071341e+000

2.29432839682530e+005,-1.88621020311143e+001,-5.07341401228570e+000

2.32635602771247e+005,-1.88627302442449e+001,-5.14299367163966e+000

2.35883074766574e+005,-1.88633723019923e+001,-5.21350305510302e+000

2.39175879781588e+005,-1.88640284304364e+001,-5.28495401673296e+000

2.42514650641661e+005,-1.88646988563573e+001,-5.35735856102353e+000

2.45900029006080e+005,-1.88653838071494e+001,-5.43072884570866e+000

2.49332665491357e+005,-1.88660835107384e+001,-5.50507718466293e+000

2.52813219796278e+005,-1.88667981955003e+001,-5.58041605090279e+000

2.56342360828676e+005,-1.88675280901845e+001,-5.65675807968939e+000

2.59920766833993e+005,-1.88682734238403e+001,-5.73411607173605e+000

2.63549125525621e+005,-1.88690344257482e+001,-5.81250299652202e+000

2.67228134217075e+005,-1.88698113253571e+001,-5.89193199571386e+000

2.70958499956006e+005,-1.88706043522270e+001,-5.97241638669578e+000

2.74740939660078e+005,-1.88714137359793e+001,-6.05396966621012e+000

2.78576180254757e+005,-1.88722397062550e+001,-6.13660551410924e+000

2.82464958813007e+005,-1.88730824926808e+001,-6.22033779721899e+000

2.86408022696948e+005,-1.88739423248458e+001,-6.30518057331412e+000

2.90406129701488e+005,-1.88748194322883e+001,-6.39114809520590e+000

2.94460048199957e+005,-1.88757140444935e+001,-6.47825481494086e+000

2.98570557291775e+005,-1.88766263909045e+001,-6.56651538811115e+000

3.02738446952187e+005,-1.88775567009461e+001,-6.65594467827413e+000

3.06964518184081e+005,-1.88785052040625e+001,-6.74655776148101e+000

3.11249583171928e+005,-1.88794721297714e+001,-6.83836993091061e+000

3.15594465437872e+005,-1.88804577077332e+001,-6.93139670160887e+000

3.19999999999997e+005,-1.88814621678380e+001,-7.02565381532886e+000

3.24467033532806e+005,-1.88824857403106e+001,-7.12115724546952e+000

3.28996424529938e+005,-1.88835286558347e+001,-7.21792320210899e+000

3.33589043469155e+005,-1.88845911456975e+001,-7.31596813712893e+000

3.38245772979638e+005,-1.88856734419544e+001,-7.41530874942449e+000

3.42967508011610e+005,-1.88867757776170e+001,-7.51596199019641e+000

3.47755156008335e+005,-1.88878983868621e+001,-7.61794506831924e+000

3.52609637080511e+005,-1.88890415052664e+001,-7.72127545577884e+000

3.57531884183106e+005,-1.88902053700635e+001,-7.82597089317548e+000

3.62522843294651e+005,-1.88913902204277e+001,-7.93204939528370e+000

3.67583473599047e+005,-1.88925962977826e+001,-8.03952925666256e+000

3.72714747669902e+005,-1.88938238461364e+001,-8.14842905731009e+000

3.77917651657445e+005,-1.88950731124447e+001,-8.25876766835288e+000

3.83193185478053e+005,-1.88963443470001e+001,-8.37056425776314e+000

3.88542363006410e+005,-1.88976378038503e+001,-8.48383829609591e+000

3.93966212270369e+005,-1.88989537412443e+001,-8.59860956223674e+000

3.99465775648511e+005,-1.89002924221070e+001,-8.71489814915134e+000

4.05042110070485e+005,-1.89016541145435e+001,-8.83272446962939e+000

4.10696287220124e+005,-1.89030390923708e+001,-8.95210926201137e+000

4.16429393741414e+005,-1.89044476356800e+001,-9.07307359589187e+000

4.22242531447321e+005,-1.89058800314265e+001,-9.19563887778722e+000

4.28136817531551e+005,-1.89073365740491e+001,-9.31982685676132e+000

4.34113384783250e+005,-1.89088175661177e+001,-9.44565962999753e+000

4.40173381804713e+005,-1.89103233190093e+001,-9.57315964830949e+000

4.46317973232124e+005,-1.89118541536116e+001,-9.70234972158163e+000

4.52548339959385e+005,-1.89134104010536e+001,-9.83325302412942e+000

4.58865679365059e+005,-1.89149924034634e+001,-9.96589309997207e+000

4.65271205542494e+005,-1.89166005147520e+001,-1.01002938680082e+001

4.71766149533147e+005,-1.89182351014215e+001,-1.02364796270876e+001

4.78351759563174e+005,-1.89198965433987e+001,-1.03744750609704e+001

4.85029301283321e+005,-1.89215852348920e+001,-1.05143052431675e+001

4.91800058012158e+005,-1.89233015852701e+001,-1.06559956416535e+001

4.98665330982714e+005,-1.89250460199632e+001,-1.07995721234473e+001

5.05626439592555e+005,-1.89268189813842e+001,-1.09450609590550e+001

5.12684721657352e+005,-1.89286209298691e+001,-1.10924888267676e+001

5.19841533667984e+005,-1.89304523446354e+001,-1.12418828168099e+001

5.27098251051240e+005,-1.89323137247584e+001,-1.13932704353367e+001

5.34456268434150e+005,-1.89342055901612e+001,-1.15466796082718e+001

5.41916999912011e+005,-1.89361284826216e+001,-1.17021386849871e+001

