Freq.,VOut,OutRef

1.00000000000000e+004,-2.30901449562179e+001,-1.99255303739499e-001

1.01395947979003e+004,-2.30901464267423e+001,-2.02036669598834e-001

1.02811382665607e+004,-2.30901479385871e+001,-2.04856856169231e-001

1.04246576084112e+004,-2.30901494929125e+001,-2.07716405125046e-001

1.05701804056138e+004,-2.30901510909117e+001,-2.10615865692101e-001

1.07177346253629e+004,-2.30901527338112e+001,-2.13555794751227e-001

1.08673486252606e+004,-2.30901544228717e+001,-2.16536756949290e-001

1.10190511587661e+004,-2.30901561593894e+001,-2.19559324800046e-001

1.11728713807222e+004,-2.30901579446971e+001,-2.22624078798340e-001

1.13288388529580e+004,-2.30901597801645e+001,-2.25731607531185e-001

1.14869835499703e+004,-2.30901616672001e+001,-2.28882507786398e-001

1.16473358646846e+004,-2.30901636072516e+001,-2.32077384671697e-001

1.18099266142953e+004,-2.30901656018077e+001,-2.35316851723591e-001

1.19747870461893e+004,-2.30901676523983e+001,-2.38601531033398e-001

1.21419488439505e+004,-2.30901697605965e+001,-2.41932053356138e-001

1.23114441334492e+004,-2.30901719280197e+001,-2.45309058238134e-001

1.24833054890161e+004,-2.30901741563302e+001,-2.48733194136214e-001

1.26575659397028e+004,-2.30901764472371e+001,-2.52205118541416e-001

1.28342589756290e+004,-2.30901788024974e+001,-2.55725498105267e-001

1.30134185544193e+004,-2.30901812239175e+001,-2.59295008764681e-001

1.31950791077289e+004,-2.30901837133538e+001,-2.62914335875261e-001

1.33792755478611e+004,-2.30901862727155e+001,-2.66584174336127e-001

1.35660432744767e+004,-2.30901889039648e+001,-2.70305228726019e-001

1.37554181813974e+004,-2.30901916091191e+001,-2.74078213436795e-001

1.39474366635040e+004,-2.30901943902518e+001,-2.77903852810896e-001

1.41421356237309e+004,-2.30901972494953e+001,-2.81782881274211e-001

1.43395524801583e+004,-2.30902001890409e+001,-2.85716043482160e-001

1.45397251732031e+004,-2.30902032111415e+001,-2.89704094457933e-001

1.47426921729110e+004,-2.30902063181130e+001,-2.93747799735723e-001

1.49484924863494e+004,-2.30902095123364e+001,-2.97847935507775e-001

1.51571656651040e+004,-2.30902127962591e+001,-3.02005288772212e-001

1.53687518128801e+004,-2.30902161723970e+001,-3.06220657479631e-001

1.55832915932100e+004,-2.30902196433366e+001,-3.10494850689088e-001

1.58008262372675e+004,-2.30902232117364e+001,-3.14828688718209e-001

1.60213975517924e+004,-2.30902268803297e+001,-3.19223003300159e-001

1.62450479271247e+004,-2.30902306519258e+001,-3.23678637743166e-001

1.64718203453514e+004,-2.30902345294130e+001,-3.28196447086572e-001

1.67017583885674e+004,-2.30902385157601e+001,-3.32777298266937e-001

1.69349062472505e+004,-2.30902426140190e+001,-3.37422070280543e-001

1.71713087287550e+004,-2.30902468273268e+001,-3.42131654349280e-001

1.74110112659224e+004,-2.30902511589083e+001,-3.46906954091486e-001

1.76540599258131e+004,-2.30902556120787e+001,-3.51748885691150e-001

1.79005014185594e+004,-2.30902601902454e+001,-3.56658378072287e-001

1.81503831063432e+004,-2.30902648969112e+001,-3.61636373075789e-001

1.84037530124975e+004,-2.30902697356769e+001,-3.66683825633838e-001

1.86606598307361e+004,-2.30902747102434e+001,-3.71801703955515e-001

1.89211529345119e+004,-2.30902798244153e+001,-3.76990989705338e-001

1.91852823865052e+004,-2.30902850821033e+001,-3.82252678190374e-001

1.94530989482457e+004,-2.30902904873272e+001,-3.87587778549908e-001

1.97246540898671e+004,-2.30902960442190e+001,-3.92997313941566e-001

1.99999999999999e+004,-2.30903017570261e+001,-3.98482321738489e-001

2.02791895958005e+004,-2.30903076301139e+001,-4.04043853723094e-001

2.05622765331213e+004,-2.30903136679701e+001,-4.09682976284614e-001

2.08493152168224e+004,-2.30903198752072e+001,-4.15400770620020e-001

2.11403608112276e+004,-2.30903262565662e+001,-4.21198332939043e-001

2.14354692507258e+004,-2.30903328169206e+001,-4.27076774667578e-001

2.17346972505211e+004,-2.30903395612791e+001,-4.33037222660338e-001

2.20381023175322e+004,-2.30903464947902e+001,-4.39080819408420e-001

2.23457427614443e+004,-2.30903536227457e+001,-4.45208723256036e-001

2.26576777059159e+004,-2.30903609505848e+001,-4.51422108618040e-001

2.29739670999406e+004,-2.30903684838979e+001,-4.57722166198118e-001

2.32946717293690e+004,-2.30903762284310e+001,-4.64110103213767e-001

2.36198532285905e+004,-2.30903841900899e+001,-4.70587143621949e-001

2.39495740923785e+004,-2.30903923749445e+001,-4.77154528346777e-001

2.42838976879009e+004,-2.30904007892335e+001,-4.83813515512639e-001

2.46228882668982e+004,-2.30904094393691e+001,-4.90565380678145e-001

2.49666109780322e+004,-2.30904183319411e+001,-4.97411417075999e-001

2.53151318794055e+004,-2.30904274737228e+001,-5.04352935852064e-001

2.56685179512580e+004,-2.30904368716753e+001,-5.11391266309883e-001

2.60268371088386e+004,-2.30904465329529e+001,-5.18527756159554e-001

2.63901582154578e+004,-2.30904564649080e+001,-5.25763771767550e-001

2.67585510957221e+004,-2.30904666750973e+001,-5.33100698409907e-001

2.71320865489533e+004,-2.30904771712867e+001,-5.40539940529642e-001

2.75108363627948e+004,-2.30904879614573e+001,-5.48082921998422e-001

2.78948733270080e+004,-2.30904990538111e+001,-5.55731086378619e-001

2.82842712474618e+004,-2.30905104567773e+001,-5.63485897191281e-001

2.86791049603164e+004,-2.30905221790182e+001,-5.71348838187237e-001

2.90794503464061e+004,-2.30905342294357e+001,-5.79321413620100e-001

2.94853843458219e+004,-2.30905466171776e+001,-5.87405148523997e-001

2.98969849726987e+004,-2.30905593516448e+001,-5.95601588994892e-001

3.03143313302078e+004,-2.30905724424975e+001,-6.03912302475383e-001

3.07375036257601e+004,-2.30905858996626e+001,-6.12338878041921e-001

3.11665831864199e+004,-2.30905997333409e+001,-6.20882926697336e-001

3.16016524745350e+004,-2.30906139540146e+001,-6.29546081665592e-001

3.20427951035848e+004,-2.30906285724544e+001,-6.38329998692085e-001

3.24900958542493e+004,-2.30906435997279e+001,-6.47236356345109e-001

3.29436406907028e+004,-2.30906590472073e+001,-6.56266856322920e-001

3.34035167771346e+004,-2.30906749265777e+001,-6.65423223764259e-001

3.38698124945009e+004,-2.30906912498453e+001,-6.74707207563023e-001

3.43426174575100e+004,-2.30907080293462e+001,-6.84120580684458e-001

3.48220225318448e+004,-2.30907252777552e+001,-6.93665140489427e-001

3.53081198516260e+004,-2.30907430080952e+001,-7.03342709057954e-001

3.58010028371187e+004,-2.30907612337456e+001,-7.13155133521781e-001

3.63007662126863e+004,-2.30907799684527e+001,-7.23104286395216e-001

3.68075060249948e+004,-2.30907992263394e+001,-7.33192065914691e-001

3.73213196614721e+004,-2.30908190219145e+001,-7.43420396380439e-001

3.78423058690237e+004,-2.30908393700841e+001,-7.53791228500970e-001

3.83705647730104e+004,-2.30908602861607e+001,-7.64306539745753e-001

3.89061978964912e+004,-2.30908817858754e+001,-7.74968334697173e-001

3.94493081797342e+004,-2.30909038853880e+001,-7.85778645409152e-001

3.99999999999998e+004,-2.30909266012987e+001,-7.96739531770500e-001

4.05583791916010e+004,-2.30909499506596e+001,-8.07853081871123e-001

4.11245530662425e+004,-2.30909739509866e+001,-8.19121412372828e-001

4.16986304336447e+004,-2.30909986202716e+001,-8.30546668884774e-001

4.22807216224550e+004,-2.30910239769950e+001,-8.42131026342801e-001

4.28709385014515e+004,-2.30910500401383e+001,-8.53876689394073e-001

4.34693945010421e+004,-2.30910768291972e+001,-8.65785892784500e-001

4.40762046350642e+004,-2.30911043641951e+001,-8.77860901751532e-001

4.46914855228886e+004,-2.30911326656968e+001,-8.90104012420439e-001

4.53153554118317e+004,-2.30911617548225e+001,-9.02517552206787e-001

4.59479341998812e+004,-2.30911916532617e+001,-9.15103880222951e-001

4.65893434587380e+004,-2.30912223832888e+001,-9.27865387684943e-001

4.72397064571810e+004,-2.30912539677773e+001,-9.40804498331068e-001

4.78991481847569e+004,-2.30912864302155e+001,-9.53923668839006e-001

4.85677953758016e+004,-2.30913197947221e+001,-9.67225389249844e-001

4.92457765337964e+004,-2.30913540860623e+001,-9.80712183396890e-001

4.99332219560642e+004,-2.30913893296644e+001,-9.94386609336928e-001

5.06302637588109e+004,-2.30914255516365e+001,-1.00825125978889e+000

5.13370359025159e+004,-2.30914627787834e+001,-1.02230876257521e+000

5.20536742176771e+004,-2.30915010386244e+001,-1.03656178106837e+000

5.27803164309155e+004,-2.30915403594115e+001,-1.05101301464127e+000

5.35171021914442e+004,-2.30915807701470e+001,-1.06566519912296e+000

5.42641730979066e+004,-2.30916223006029e+001,-1.08052110725802e+000

5.50216727255895e+004,-2.30916649813396e+001,-1.09558354917339e+000

5.57897466540159e+004,-2.30917088437255e+001,-1.11085537284432e+000

5.65685424949235e+004,-2.30917539199570e+001,-1.12633946457068e+000

5.73582099206328e+004,-2.30918002430787e+001,-1.14203874945338e+000

5.81589006928121e+004,-2.30918478470042e+001,-1.15795619187905e+000

5.89707686916437e+004,-2.30918967665372e+001,-1.17409479600551e+000

5.97939699453972e+004,-2.30919470373931e+001,-1.19045760625488e+000

6.06286626604156e+004,-2.30919986962208e+001,-1.20704770780986e+000

6.14750072515201e+004,-2.30920517806256e+001,-1.22386822711393e+000

6.23331663728396e+004,-2.30921063291914e+001,-1.24092233237798e+000

6.32033049490698e+004,-2.30921623815043e+001,-1.25821323408954e+000

6.40855902071694e+004,-2.30922199781763e+001,-1.27574418552674e+000

6.49801917084985e+004,-2.30922791608695e+001,-1.29351848327821e+000

6.58872813814055e+004,-2.30923399723203e+001,-1.31153946776568e+000

6.68070335542691e+004,-2.30924024563648e+001,-1.32981052377098e+000

6.77396249890018e+004,-2.30924666579636e+001,-1.34833508096985e+000

6.86852349150199e+004,-2.30925326232284e+001,-1.36711661446673e+000

6.96440450636895e+004,-2.30926003994476e+001,-1.38615864533650e+000

7.06162397032520e+004,-2.30926700351135e+001,-1.40546474116771e+000

7.16020056742374e+004,-2.30927415799489e+001,-1.42503851661441e+000

7.26015324253724e+004,-2.30928150849348e+001,-1.44488363394739e+000

7.36150120499896e+004,-2.30928906023383e+001,-1.46500380361308e+000

7.46426393229441e+004,-2.30929681857412e+001,-1.48540278479438e+000

7.56846117380472e+004,-2.30930478900680e+001,-1.50608438597793e+000

7.67411295460207e+004,-2.30931297716157e+001,-1.52705246552174e+000

7.78123957929823e+004,-2.30932138880827e+001,-1.54831093223263e+000

7.88986163594682e+004,-2.30933002985990e+001,-1.56986374594042e+000

7.99999999999995e+004,-2.30933890637562e+001,-1.59171491808310e+000

8.11167583832018e+004,-2.30934802456381e+001,-1.61386851229054e+000

8.22491061324848e+004,-2.30935739078512e+001,-1.63632864497573e+000

8.33972608672892e+004,-2.30936701155564e+001,-1.65909948592693e+000

8.45614432449099e+004,-2.30937689355000e+001,-1.68218525890674e+000

8.57418770029029e+004,-2.30938704360455e+001,-1.70559024225214e+000

8.69387890020841e+004,-2.30939746872057e+001,-1.72931876947992e+000

8.81524092701283e+004,-2.30940817606746e+001,-1.75337522989510e+000

8.93829710457770e+004,-2.30941917298604e+001,-1.77776406920307e+000

9.06307108236633e+004,-2.30943046699170e+001,-1.80248979012686e+000

9.18958683997622e+004,-2.30944206577783e+001,-1.82755695302429e+000

9.31786869174758e+004,-2.30945397721895e+001,-1.85297017651393e+000

9.44794129143618e+004,-2.30946620937410e+001,-1.87873413810021e+000

9.57982963695136e+004,-2.30947877049012e+001,-1.90485357480450e+000

9.71355907516031e+004,-2.30949166900496e+001,-1.93133328379880e+000

9.84915530675926e+004,-2.30950491355099e+001,-1.95817812304437e+000

9.98664439121282e+004,-2.30951851295828e+001,-1.98539301193096e+000

1.01260527517622e+005,-2.30953247625792e+001,-2.01298293192443e+000

1.02674071805032e+005,-2.30954681268528e+001,-2.04095292721366e+000

1.04107348435354e+005,-2.30956153168329e+001,-2.06930810536272e+000

1.05560632861831e+005,-2.30957664290568e+001,-2.09805363796801e+000

1.07034204382888e+005,-2.30959215622017e+001,-2.12719476131807e+000

1.08528346195813e+005,-2.30960808171169e+001,-2.15673677705704e+000

1.10043345451179e+005,-2.30962442968550e+001,-2.18668505285272e+000

1.11579493308032e+005,-2.30964121067028e+001,-2.21704502306963e+000

1.13137084989847e+005,-2.30965843542122e+001,-2.24782218944425e+000

1.14716419841265e+005,-2.30967611492298e+001,-2.27902212176677e+000

1.16317801385624e+005,-2.30969426039262e+001,-2.31065045856693e+000

1.17941537383287e+005,-2.30971288328251e+001,-2.34271290780330e+000

1.19587939890794e+005,-2.30973199528306e+001,-2.37521524756014e+000

1.21257325320831e+005,-2.30975160832546e+001,-2.40816332674784e+000

1.22950014503040e+005,-2.30977173458429e+001,-2.44156306580874e+000

1.24666332745679e+005,-2.30979238648002e+001,-2.47542045743056e+000

1.26406609898139e+005,-2.30981357668147e+001,-2.50974156726397e+000

1.28171180414339e+005,-2.30983531810803e+001,-2.54453253464885e+000

1.29960383416997e+005,-2.30985762393190e+001,-2.57979957334673e+000

1.31774562762811e+005,-2.30988050758010e+001,-2.61554897227936e+000

1.33614067108538e+005,-2.30990398273639e+001,-2.65178709627866e+000

1.35479249978003e+005,-2.30992806334303e+001,-2.68852038684089e+000

1.37370469830040e+005,-2.30995276360236e+001,-2.72575536289470e+000

1.39288090127379e+005,-2.30997809797826e+001,-2.76349862157437e+000

1.41232479406504e+005,-2.31000408119741e+001,-2.80175683900666e+000

1.43204011348474e+005,-2.31003072825036e+001,-2.84053677110800e+000

1.45203064850745e+005,-2.31005805439241e+001,-2.87984525439257e+000

1.47230024099979e+005,-2.31008607514431e+001,-2.91968920679483e+000

1.49285278645888e+005,-2.31011480629273e+001,-2.96007562850438e+000

1.51369223476094e+005,-2.31014426389053e+001,-3.00101160281684e+000

1.53482259092041e+005,-2.31017446425676e+001,-3.04250429699841e+000

1.55624791585964e+005,-2.31020542397651e+001,-3.08456096316983e+000

1.57797232718936e+005,-2.31023715990039e+001,-3.12718893920561e+000

1.59999999999999e+005,-2.31026968914392e+001,-3.17039564965422e+000

1.62233516766403e+005,-2.31030302908650e+001,-3.21418860667842e+000

1.64498212264969e+005,-2.31033719737024e+001,-3.25857541101652e+000

1.66794521734578e+005,-2.31037221189843e+001,-3.30356375296827e+000

1.69122886489819e+005,-2.31040809083384e+001,-3.34916141340402e+000

1.71483754005805e+005,-2.31044485259661e+001,-3.39537626480114e+000

1.73877578004168e+005,-2.31048251586194e+001,-3.44221627230899e+000

1.76304818540256e+005,-2.31052109955751e+001,-3.48968949484168e+000

1.78765942091554e+005,-2.31056062286051e+001,-3.53780408620541e+000

1.81261421647326e+005,-2.31060110519451e+001,-3.58656829625556e+000

1.83791736799524e+005,-2.31064256622592e+001,-3.63599047209320e+000

1.86357373834951e+005,-2.31068502586025e+001,-3.68607905929582e+000

1.88958825828723e+005,-2.31072850423806e+001,-3.73684260318911e+000

1.91596592739027e+005,-2.31077302173054e+001,-3.78828975016129e+000

1.94271181503206e+005,-2.31081859893501e+001,-3.84042924901980e+000

1.96983106135185e+005,-2.31086525666994e+001,-3.89326995239498e+000

1.99732887824256e+005,-2.31091301596987e+001,-3.94682081819354e+000

2.02521055035243e+005,-2.31096189807997e+001,-4.00109091110198e+000

2.05348143610063e+005,-2.31101192445049e+001,-4.05608940414340e+000

2.08214696870707e+005,-2.31106311673085e+001,-4.11182558029192e+000

2.11121265723661e+005,-2.31111549676369e+001,-4.16830883414500e+000

2.14068408765776e+005,-2.31116908657858e+001,-4.22554867365689e+000

2.17056692391625e+005,-2.31122390838571e+001,-4.28355472193676e+000

2.20086690902357e+005,-2.31127998456940e+001,-4.34233671911228e+000

2.23158986616063e+005,-2.31133733768148e+001,-4.40190452426485e+000

2.26274169979693e+005,-2.31139599043468e+001,-4.46226811743308e+000

2.29432839682530e+005,-2.31145596569593e+001,-4.52343760169441e+000

2.32635602771247e+005,-2.31151728647966e+001,-4.58542320532145e+000

2.35883074766574e+005,-2.31157997594120e+001,-4.64823528401906e+000

2.39175879781588e+005,-2.31164405737023e+001,-4.71188432324256e+000

2.42514650641661e+005,-2.31170955418437e+001,-4.77638094060268e+000

2.45900029006080e+005,-2.31177648992299e+001,-4.84173588835382e+000

2.49332665491357e+005,-2.31184488824120e+001,-4.90796005597466e+000

2.52813219796278e+005,-2.31191477290426e+001,-4.97506447283834e+000

2.56342360828676e+005,-2.31198616778217e+001,-5.04306031097624e+000

2.59920766833993e+005,-2.31205909684488e+001,-5.11195888793656e+000

2.63549125525621e+005,-2.31213358415784e+001,-5.18177166973938e+000

2.67228134217075e+005,-2.31220965387822e+001,-5.25251027393057e+000

2.70958499956006e+005,-2.31228733025168e+001,-5.32418647273360e+000

2.74740939660078e+005,-2.31236663760990e+001,-5.39681219630342e+000

2.78576180254757e+005,-2.31244760036890e+001,-5.47039953607999e+000

2.82464958813007e+005,-2.31253024302821e+001,-5.54496074824434e+000

2.86408022696948e+005,-2.31261459017100e+001,-5.62050825727594e+000

2.90406129701488e+005,-2.31270066646528e+001,-5.69705465961206e+000

2.94460048199957e+005,-2.31278849666619e+001,-5.77461272740874e+000

2.98570557291775e+005,-2.31287810561955e+001,-5.85319541240165e+000

3.02738446952187e+005,-2.31296951826665e+001,-5.93281584986799e+000

3.06964518184081e+005,-2.31306275965054e+001,-6.01348736268457e+000

3.11249583171928e+005,-2.31315785492376e+001,-6.09522346548410e+000

3.15594465437872e+005,-2.31325482935762e+001,-6.17803786890516e+000

3.19999999999997e+005,-2.31335370835326e+001,-6.26194448393220e+000

3.24467033532806e+005,-2.31345451745441e+001,-6.34695742632656e+000

3.28996424529938e+005,-2.31355728236200e+001,-6.43309102114132e+000

3.33589043469155e+005,-2.31366202895082e+001,-6.52035980731771e+000

3.38245772979638e+005,-2.31376878328812e+001,-6.60877854235820e+000

3.42967508011610e+005,-2.31387757165440e+001,-6.69836220707390e+000

3.47755156008335e+005,-2.31398842056640e+001,-6.78912601039669e+000

3.52609637080511e+005,-2.31410135680236e+001,-6.88108539425695e+000

3.57531884183106e+005,-2.31421640742971e+001,-6.97425603851378e+000

3.62522843294651e+005,-2.31433359983511e+001,-7.06865386593790e+000

3.67583473599047e+005,-2.31445296175708e+001,-7.16429504723742e+000

3.72714747669902e+005,-2.31457452132116e+001,-7.26119600611962e+000

3.77917651657445e+005,-2.31469830707770e+001,-7.35937342438248e+000

3.83193185478053e+005,-2.31482434804233e+001,-7.45884424702816e+000

3.88542363006410e+005,-2.31495267373916e+001,-7.55962568739029e+000

3.93966212270369e+005,-2.31508331424671e+001,-7.66173523226708e+000

3.99465775648511e+005,-2.31521630024663e+001,-7.76519064705317e+000

4.05042110070485e+005,-2.31535166307529e+001,-7.87000998085884e+000

4.10696287220124e+005,-2.31548943477809e+001,-7.97621157161234e+000

4.16429393741414e+005,-2.31562964816668e+001,-8.08381405113255e+000

4.22242531447321e+005,-2.31577233687895e+001,-8.19283635016558e+000

4.28136817531551e+005,-2.31591753544191e+001,-8.30329770337645e+000

4.34113384783250e+005,-2.31606527933728e+001,-8.41521765428626e+000

4.40173381804713e+005,-2.31621560506990e+001,-8.52861606014633e+000

4.46317973232124e+005,-2.31636855023891e+001,-8.64351309674184e+000

4.52548339959385e+005,-2.31652415361156e+001,-8.75992926311572e+000

4.58865679365059e+005,-2.31668245519968e+001,-8.87788538620371e+000

4.65271205542494e+005,-2.31684349633878e+001,-8.99740262537532e+000

4.71766149533147e+005,-2.31700731976960e+001,-9.11850247687009e+000

4.78351759563174e+005,-2.31717396972217e+001,-9.24120677812342e+000

4.85029301283321e+005,-2.31734349200221e+001,-9.36553771197504e+000

4.91800058012158e+005,-2.31751593407980e+001,-9.49151781075218e+000

4.98665330982714e+005,-2.31769134518024e+001,-9.61916996022395e+000

5.05626439592555e+005,-2.31786977637706e+001,-9.74851740341719e+000

5.12684721657352e+005,-2.31805128068695e+001,-9.87958374429260e+000

5.19841533667984e+005,-2.31823591316662e+001,-1.00123929512737e+001

5.27098251051240e+005,-2.31842373101141e+001,-1.01469693606256e+001

5.34456268434150e+005,-2.31861479365565e+001,-1.02833376796796e+001

5.41916999912011e+005,-2.31880916287447e+001,-1.04215229899000e+001

