Freq.,VOut,OutRef

1.00000000000000e+004,-1.88516068346697e+001,-2.69790415825749e-001

1.01395947979003e+004,-1.88516081842189e+001,-2.73556452718107e-001

1.02811382665607e+004,-1.88516095716942e+001,-2.77375057410215e-001

1.04246576084112e+004,-1.88516109981608e+001,-2.81246963547601e-001

1.05701804056138e+004,-1.88516124647139e+001,-2.85172915008122e-001

1.07177346253629e+004,-1.88516139724798e+001,-2.89153666046232e-001

1.08673486252606e+004,-1.88516155226161e+001,-2.93189981437632e-001

1.10190511587661e+004,-1.88516171163128e+001,-2.97282636626634e-001

1.11728713807222e+004,-1.88516187547935e+001,-3.01432417871347e-001

1.13288388529580e+004,-1.88516204393160e+001,-3.05640122398467e-001

1.14869835499703e+004,-1.88516221711734e+001,-3.09906558553226e-001

1.16473358646846e+004,-1.88516239516954e+001,-3.14232545954369e-001

1.18099266142953e+004,-1.88516257822484e+001,-3.18618915653637e-001

1.19747870461893e+004,-1.88516276642377e+001,-3.23066510291216e-001

1.21419488439505e+004,-1.88516295991078e+001,-3.27576184259595e-001

1.23114441334492e+004,-1.88516315883437e+001,-3.32148803866944e-001

1.24833054890161e+004,-1.88516336334718e+001,-3.36785247502490e-001

1.26575659397028e+004,-1.88516357360620e+001,-3.41486405802522e-001

1.28342589756290e+004,-1.88516378977275e+001,-3.46253181825998e-001

1.30134185544193e+004,-1.88516401201272e+001,-3.51086491222349e-001

1.31950791077289e+004,-1.88516424049663e+001,-3.55987262409136e-001

1.33792755478611e+004,-1.88516447539981e+001,-3.60956436748630e-001

1.35660432744767e+004,-1.88516471690247e+001,-3.65994968729423e-001

1.37554181813974e+004,-1.88516496518988e+001,-3.71103826147094e-001

1.39474366635040e+004,-1.88516522045252e+001,-3.76283990290875e-001

1.41421356237309e+004,-1.88516548288620e+001,-3.81536456130536e-001

1.43395524801583e+004,-1.88516575269222e+001,-3.86862232505752e-001

1.45397251732031e+004,-1.88516603007752e+001,-3.92262342320589e-001

1.47426921729110e+004,-1.88516631525485e+001,-3.97737822738279e-001

1.49484924863494e+004,-1.88516660844290e+001,-4.03289725379430e-001

1.51571656651040e+004,-1.88516690986651e+001,-4.08919116522536e-001

1.53687518128801e+004,-1.88516721975680e+001,-4.14627077309026e-001

1.55832915932100e+004,-1.88516753835138e+001,-4.20414703947994e-001

1.58008262372675e+004,-1.88516786589452e+001,-4.26283107926108e-001

1.60213975517924e+004,-1.88516820263730e+001,-4.32233416221620e-001

1.62450479271247e+004,-1.88516854883787e+001,-4.38266771516617e-001

1.64718203453514e+004,-1.88516890476159e+001,-4.44384332416915e-001

1.67017583885674e+004,-1.88516927068125e+001,-4.50587273673339e-001

1.69349062472505e+004,-1.88516964687728e+001,-4.56876786404550e-001

1.71713087287550e+004,-1.88517003363797e+001,-4.63254078325378e-001

1.74110112659224e+004,-1.88517043125965e+001,-4.69720373977057e-001

1.76540599258131e+004,-1.88517084004698e+001,-4.76276914959774e-001

1.79005014185594e+004,-1.88517126031312e+001,-4.82924960170853e-001

1.81503831063432e+004,-1.88517169238001e+001,-4.89665786042961e-001

1.84037530124975e+004,-1.88517213657856e+001,-4.96500686789950e-001

1.86606598307361e+004,-1.88517259324899e+001,-5.03430974649909e-001

1.89211529345119e+004,-1.88517306274100e+001,-5.10457980137193e-001

1.91852823865052e+004,-1.88517354541406e+001,-5.17583052297423e-001

1.94530989482457e+004,-1.88517404163773e+001,-5.24807558959298e-001

1.97246540898671e+004,-1.88517455179187e+001,-5.32132887000327e-001

1.99999999999999e+004,-1.88517507626696e+001,-5.39560442607496e-001

2.02791895958005e+004,-1.88517561546440e+001,-5.47091651545707e-001

2.05622765331213e+004,-1.88517616979680e+001,-5.54727959429015e-001

2.08493152168224e+004,-1.88517673968831e+001,-5.62470831994358e-001

2.11403608112276e+004,-1.88517732557491e+001,-5.70321755381404e-001

2.14354692507258e+004,-1.88517792790475e+001,-5.78282236415344e-001

2.17346972505211e+004,-1.88517854713853e+001,-5.86353802890180e-001

2.20381023175322e+004,-1.88517918374976e+001,-5.94538003862325e-001

2.23457427614443e+004,-1.88517983822521e+001,-6.02836409943000e-001

2.26576777059159e+004,-1.88518051106521e+001,-6.11250613595171e-001

2.29739670999406e+004,-1.88518120278405e+001,-6.19782229437200e-001

2.32946717293690e+004,-1.88518191391036e+001,-6.28432894548845e-001

2.36198532285905e+004,-1.88518264498753e+001,-6.37204268779918e-001

2.39495740923785e+004,-1.88518339657410e+001,-6.46098035067173e-001

2.42838976879009e+004,-1.88518416924414e+001,-6.55115899751051e-001

2.46228882668982e+004,-1.88518496358775e+001,-6.64259592899577e-001

2.49666109780322e+004,-1.88518578021149e+001,-6.73530868634743e-001

2.53151318794055e+004,-1.88518661973876e+001,-6.82931505465967e-001

2.56685179512580e+004,-1.88518748281037e+001,-6.92463306624440e-001

2.60268371088386e+004,-1.88518837008492e+001,-7.02128100406240e-001

2.63901582154578e+004,-1.88518928223940e+001,-7.11927740513797e-001

2.67585510957221e+004,-1.88519021996957e+001,-7.21864106410677e-001

2.71320865489533e+004,-1.88519118399058e+001,-7.31939103672616e-001

2.75108363627948e+004,-1.88519217503747e+001,-7.42154664347561e-001

2.78948733270080e+004,-1.88519319386568e+001,-7.52512747321056e-001

2.82842712474618e+004,-1.88519424125169e+001,-7.63015338684561e-001

2.86791049603164e+004,-1.88519531799350e+001,-7.73664452108839e-001

2.90794503464061e+004,-1.88519642491130e+001,-7.84462129224395e-001

2.94853843458219e+004,-1.88519756284803e+001,-7.95410440004224e-001

2.98969849726987e+004,-1.88519873267004e+001,-8.06511483152526e-001

3.03143313302078e+004,-1.88519993526772e+001,-8.17767386500572e-001

3.07375036257601e+004,-1.88520117155611e+001,-8.29180307405173e-001

3.11665831864199e+004,-1.88520244247566e+001,-8.40752433153085e-001

3.16016524745350e+004,-1.88520374899285e+001,-8.52485981371728e-001

3.20427951035848e+004,-1.88520509210093e+001,-8.64383200444891e-001

3.24900958542493e+004,-1.88520647282067e+001,-8.76446369932597e-001

3.29436406907028e+004,-1.88520789220106e+001,-8.88677800999843e-001

3.34035167771346e+004,-1.88520935132012e+001,-9.01079836845510e-001

3.38698124945009e+004,-1.88521085128567e+001,-9.13654853143318e-001

3.43426174575100e+004,-1.88521239323616e+001,-9.26405258482374e-001

3.48220225318448e+004,-1.88521397834146e+001,-9.39333494820136e-001

3.53081198516260e+004,-1.88521560780376e+001,-9.52442037932860e-001

3.58010028371187e+004,-1.88521728285843e+001,-9.65733397881229e-001

3.63007662126863e+004,-1.88521900477487e+001,-9.79210119474917e-001

3.68075060249948e+004,-1.88522077485753e+001,-9.92874782745092e-001

3.73213196614721e+004,-1.88522259444674e+001,-1.00673000342659e+000

3.78423058690237e+004,-1.88522446491978e+001,-1.02077843343976e+000

3.83705647730104e+004,-1.88522638769179e+001,-1.03502276138546e+000

3.89061978964912e+004,-1.88522836421687e+001,-1.04946571303948e+000

3.94493081797342e+004,-1.88523039598905e+001,-1.06411005186118e+000

3.99999999999998e+004,-1.88523248454343e+001,-1.07895857949930e+000

4.05583791916010e+004,-1.88523463145720e+001,-1.09401413631474e+000

4.11245530662425e+004,-1.88523683835087e+001,-1.10927960189976e+000

4.16986304336447e+004,-1.88523910688932e+001,-1.12475789561164e+000

4.22807216224550e+004,-1.88524143878307e+001,-1.14045197710865e+000

4.28709385014515e+004,-1.88524383578945e+001,-1.15636484689399e+000

4.34693945010421e+004,-1.88524629971385e+001,-1.17249954686746e+000

4.40762046350642e+004,-1.88524883241101e+001,-1.18885916088315e+000

4.46914855228886e+004,-1.88525143578631e+001,-1.20544681531450e+000

4.53153554118317e+004,-1.88525411179714e+001,-1.22226567962528e+000

4.59479341998812e+004,-1.88525686245425e+001,-1.23931896694987e+000

4.65893434587380e+004,-1.88525968982315e+001,-1.25660993467914e+000

4.72397064571810e+004,-1.88526259602559e+001,-1.27414188505332e+000

4.78991481847569e+004,-1.88526558324099e+001,-1.29191816576363e+000

4.85677953758016e+004,-1.88526865370801e+001,-1.30994217056035e+000

4.92457765337964e+004,-1.88527180972602e+001,-1.32821733986901e+000

4.99332219560642e+004,-1.88527505365678e+001,-1.34674716141295e+000

5.06302637588109e+004,-1.88527838792600e+001,-1.36553517084365e+000

5.13370359025159e+004,-1.88528181502502e+001,-1.38458495238085e+000

5.20536742176771e+004,-1.88528533751253e+001,-1.40390013945831e+000

5.27803164309155e+004,-1.88528895801630e+001,-1.42348441537696e+000

5.35171021914442e+004,-1.88529267923497e+001,-1.44334151396750e+000

5.42641730979066e+004,-1.88529650393985e+001,-1.46347522026081e+000

5.50216727255895e+004,-1.88530043497685e+001,-1.48388937116447e+000

5.57897466540159e+004,-1.88530447526833e+001,-1.50458785614973e+000

5.65685424949235e+004,-1.88530862781510e+001,-1.52557461794532e+000

5.73582099206328e+004,-1.88531289569836e+001,-1.54685365324020e+000

5.81589006928121e+004,-1.88531728208184e+001,-1.56842901339205e+000

5.89707686916437e+004,-1.88532179021379e+001,-1.59030480514863e+000

5.97939699453972e+004,-1.88532642342920e+001,-1.61248519137327e+000

6.06286626604156e+004,-1.88533118515195e+001,-1.63497439178072e+000

6.14750072515201e+004,-1.88533607889702e+001,-1.65777668368209e+000

6.23331663728396e+004,-1.88534110827281e+001,-1.68089640273591e+000

6.32033049490698e+004,-1.88534627698349e+001,-1.70433794371101e+000

6.40855902071694e+004,-1.88535158883129e+001,-1.72810576125543e+000

6.49801917084985e+004,-1.88535704771904e+001,-1.75220437067556e+000

6.58872813814055e+004,-1.88536265765260e+001,-1.77663834872275e+000

6.68070335542691e+004,-1.88536842274337e+001,-1.80141233439159e+000

6.77396249890018e+004,-1.88537434721094e+001,-1.82653102972216e+000

6.86852349150199e+004,-1.88538043538568e+001,-1.85199920061693e+000

6.96440450636895e+004,-1.88538669171146e+001,-1.87782167766284e+000

7.06162397032520e+004,-1.88539312074839e+001,-1.90400335696309e+000

7.16020056742374e+004,-1.88539972717559e+001,-1.93054920097927e+000

7.26015324253724e+004,-1.88540651579411e+001,-1.95746423938159e+000

7.36150120499896e+004,-1.88541349152978e+001,-1.98475356990929e+000

7.46426393229441e+004,-1.88542065943621e+001,-2.01242235923887e+000

7.56846117380472e+004,-1.88542802469778e+001,-2.04047584386355e+000

7.67411295460207e+004,-1.88543559263278e+001,-2.06891933097994e+000

7.78123957929823e+004,-1.88544336869645e+001,-2.09775819938773e+000

7.88986163594682e+004,-1.88545135848424e+001,-2.12699790039315e+000

7.99999999999995e+004,-1.88545956773504e+001,-2.15664395872926e+000

8.11167583832018e+004,-1.88546800233445e+001,-2.18670197347893e+000

8.22491061324848e+004,-1.88547666831817e+001,-2.21717761901306e+000

8.33972608672892e+004,-1.88548557187541e+001,-2.24807664593467e+000

8.45614432449099e+004,-1.88549471935231e+001,-2.27940488203531e+000

8.57418770029029e+004,-1.88550411725554e+001,-2.31116823325975e+000

8.69387890020841e+004,-1.88551377225583e+001,-2.34337268468134e+000

8.81524092701283e+004,-1.88552369119158e+001,-2.37602430148832e+000

8.93829710457770e+004,-1.88553388107260e+001,-2.40912922997824e+000

9.06307108236633e+004,-1.88554434908383e+001,-2.44269369856351e+000

9.18958683997622e+004,-1.88555510258909e+001,-2.47672401878798e+000

9.31786869174758e+004,-1.88556614913500e+001,-2.51122658635300e+000

9.44794129143618e+004,-1.88557749645481e+001,-2.54620788215330e+000

9.57982963695136e+004,-1.88558915247236e+001,-2.58167447332543e+000

9.71355907516031e+004,-1.88560112530610e+001,-2.61763301430376e+000

9.84915530675926e+004,-1.88561342327309e+001,-2.65409024789034e+000

9.98664439121282e+004,-1.88562605489312e+001,-2.69105300633378e+000

1.01260527517622e+005,-1.88563902889280e+001,-2.72852821241903e+000

1.02674071805032e+005,-1.88565235420979e+001,-2.76652288056847e+000

1.04107348435354e+005,-1.88566603999696e+001,-2.80504411795530e+000

1.05560632861831e+005,-1.88568009562670e+001,-2.84409912562550e+000

1.07034204382888e+005,-1.88569453069514e+001,-2.88369519963467e+000

1.08528346195813e+005,-1.88570935502654e+001,-2.92383973219383e+000

1.10043345451179e+005,-1.88572457867764e+001,-2.96454021282771e+000

1.11579493308032e+005,-1.88574021194201e+001,-3.00580422954565e+000

1.13137084989847e+005,-1.88575626535452e+001,-3.04763947002435e+000

1.14716419841265e+005,-1.88577274969578e+001,-3.09005372280227e+000

1.16317801385624e+005,-1.88578967599657e+001,-3.13305487848774e+000

1.17941537383287e+005,-1.88580705554238e+001,-3.17665093097874e+000

1.19587939890794e+005,-1.88582489987786e+001,-3.22084997869720e+000

1.21257325320831e+005,-1.88584322081141e+001,-3.26566022583451e+000

1.22950014503040e+005,-1.88586203041966e+001,-3.31108998361306e+000

1.24666332745679e+005,-1.88588134105203e+001,-3.35714767156034e+000

1.26406609898139e+005,-1.88590116533529e+001,-3.40384181879725e+000

1.28171180414339e+005,-1.88592151617806e+001,-3.45118106534171e+000

1.29960383416997e+005,-1.88594240677541e+001,-3.49917416342721e+000

1.31774562762811e+005,-1.88596385061337e+001,-3.54782997883618e+000

1.33614067108538e+005,-1.88598586147345e+001,-3.59715749224947e+000

1.35479249978003e+005,-1.88600845343719e+001,-3.64716580061362e+000

1.37370469830040e+005,-1.88603164089063e+001,-3.69786411852212e+000

1.39288090127379e+005,-1.88605543852879e+001,-3.74926177961659e+000

1.41232479406504e+005,-1.88607986136013e+001,-3.80136823800529e+000

1.43204011348474e+005,-1.88610492471099e+001,-3.85419306969857e+000

1.45203064850745e+005,-1.88613064422998e+001,-3.90774597406591e+000

1.47230024099979e+005,-1.88615703589232e+001,-3.96203677531128e+000

1.49285278645888e+005,-1.88618411600419e+001,-4.01707542396884e+000

1.51369223476094e+005,-1.88621190120701e+001,-4.07287199842124e+000

1.53482259092041e+005,-1.88624040848164e+001,-4.12943670643911e+000

1.55624791585964e+005,-1.88626965515264e+001,-4.18677988674313e+000

1.57797232718936e+005,-1.88629965889236e+001,-4.24491201059064e+000

1.59999999999999e+005,-1.88633043772504e+001,-4.30384368338707e+000

1.62233516766403e+005,-1.88636201003086e+001,-4.36358564632172e+000

1.64498212264969e+005,-1.88639439454995e+001,-4.42414877803217e+000

1.66794521734578e+005,-1.88642761038623e+001,-4.48554409629523e+000

1.69122886489819e+005,-1.88646167701140e+001,-4.54778275974697e+000

1.71483754005805e+005,-1.88649661426867e+001,-4.61087606963234e+000

1.73877578004168e+005,-1.88653244237657e+001,-4.67483547158802e+000

1.76304818540256e+005,-1.88656918193263e+001,-4.73967255745480e+000

1.78765942091554e+005,-1.88660685391709e+001,-4.80539906712662e+000

1.81261421647326e+005,-1.88664547969645e+001,-4.87202689043288e+000

1.83791736799524e+005,-1.88668508102709e+001,-4.93956806905841e+000

1.86357373834951e+005,-1.88672568005878e+001,-5.00803479850094e+000

1.88958825828723e+005,-1.88676729933818e+001,-5.07743943006878e+000

1.91596592739027e+005,-1.88680996181233e+001,-5.14779447291877e+000

1.94271181503206e+005,-1.88685369083207e+001,-5.21911259613783e+000

1.96983106135185e+005,-1.88689851015555e+001,-5.29140663086804e+000

1.99732887824256e+005,-1.88694444395165e+001,-5.36468957247833e+000

2.02521055035243e+005,-1.88699151680344e+001,-5.43897458278369e+000

2.05348143610063e+005,-1.88703975371172e+001,-5.51427499231357e+000

2.08214696870707e+005,-1.88708918009855e+001,-5.59060430263193e+000

2.11121265723661e+005,-1.88713982181087e+001,-5.66797618870955e+000

2.14068408765776e+005,-1.88719170512422e+001,-5.74640450135170e+000

2.17056692391625e+005,-1.88724485674651e+001,-5.82590326968263e+000

2.20086690902357e+005,-1.88729930382197e+001,-5.90648670368690e+000

2.23158986616063e+005,-1.88735507393525e+001,-5.98816919681294e+000

2.26274169979693e+005,-1.88741219511569e+001,-6.07096532863589e+000

2.29432839682530e+005,-1.88747069584173e+001,-6.15488986758781e+000

2.32635602771247e+005,-1.88753060504575e+001,-6.23995777374871e+000

2.35883074766574e+005,-1.88759195211896e+001,-6.32618420170864e+000

2.39175879781588e+005,-1.88765476691675e+001,-6.41358450349624e+000

2.42514650641661e+005,-1.88771907976433e+001,-6.50217423157866e+000

2.45900029006080e+005,-1.88778492146281e+001,-6.59196914193231e+000

2.49332665491357e+005,-1.88785232329564e+001,-6.68298519718776e+000

2.52813219796278e+005,-1.88792131703560e+001,-6.77523856984919e+000

2.56342360828676e+005,-1.88799193495227e+001,-6.86874564558840e+000

2.59920766833993e+005,-1.88806420982013e+001,-6.96352302661787e+000

2.63549125525621e+005,-1.88813817492722e+001,-7.05958753513998e+000

2.67228134217075e+005,-1.88821386408454e+001,-7.15695621687522e+000

2.70958499956006e+005,-1.88829131163619e+001,-7.25564634467082e+000

2.74740939660078e+005,-1.88837055247029e+001,-7.35567542218800e+000

2.78576180254757e+005,-1.88845162203079e+001,-7.45706118767072e+000

2.82464958813007e+005,-1.88853455633016e+001,-7.55982161779343e+000

2.86408022696948e+005,-1.88861939196315e+001,-7.66397493159034e+000

2.90406129701488e+005,-1.88870616612152e+001,-7.76953959446374e+000

2.94460048199957e+005,-1.88879491660998e+001,-7.87653432227228e+000

2.98570557291775e+005,-1.88888568186325e+001,-7.98497808549770e+000

3.02738446952187e+005,-1.88897850096445e+001,-8.09489011348870e+000

3.06964518184081e+005,-1.88907341366479e+001,-8.20628989878154e+000

3.11249583171928e+005,-1.88917046040469e+001,-8.31919720149510e+000

3.15594465437872e+005,-1.88926968233636e+001,-8.43363205379829e+000

3.19999999999997e+005,-1.88937112134794e+001,-8.54961476444790e+000

3.24467033532806e+005,-1.88947482008931e+001,-8.66716592339537e+000

3.28996424529938e+005,-1.88958082199948e+001,-8.78630640645729e+000

3.33589043469155e+005,-1.88968917133593e+001,-8.90705738004881e+000

3.38245772979638e+005,-1.88979991320557e+001,-9.02944030597540e+000

3.42967508011610e+005,-1.88991309359778e+001,-9.15347694627948e+000

3.47755156008335e+005,-1.89002875941936e+001,-9.27918936813754e+000

3.52609637080511e+005,-1.89014695853143e+001,-9.40659994880428e+000

3.57531884183106e+005,-1.89026773978858e+001,-9.53573138059727e+000

3.62522843294651e+005,-1.89039115308005e+001,-9.66660667591977e+000

3.67583473599047e+005,-1.89051724937311e+001,-9.79924917231375e+000

3.72714747669902e+005,-1.89064608075883e+001,-9.93368253753976e+000

3.77917651657445e+005,-1.89077770049999e+001,-1.00699307746764e+001

3.83193185478053e+005,-1.89091216308143e+001,-1.02080182272338e+001

3.88542363006410e+005,-1.89104952426274e+001,-1.03479695842750e+001

3.93966212270369e+005,-1.89118984113343e+001,-1.04898098855395e+001

3.99465775648511e+005,-1.89133317217047e+001,-1.06335645265592e+001

4.05042110070485e+005,-1.89147957729832e+001,-1.07792592637653e+001

4.10696287220124e+005,-1.89162911795150e+001,-1.09269202195728e+001

4.16429393741414e+005,-1.89178185713956e+001,-1.10765738874407e+001

4.22242531447321e+005,-1.89193785951466e+001,-1.12282471368981e+001

4.28136817531551e+005,-1.89209719144156e+001,-1.13819672185296e+001

4.34113384783250e+005,-1.89225992107015e+001,-1.15377617689121e+001

4.40173381804713e+005,-1.89242611841048e+001,-1.16956588154970e+001

4.46317973232124e+005,-1.89259585541023e+001,-1.18556867814283e+001

4.52548339959385e+005,-1.89276920603463e+001,-1.20178744902926e+001

4.58865679365059e+005,-1.89294624634880e+001,-1.21822511707902e+001

4.65271205542494e+005,-1.89312705460243e+001,-1.23488464613229e+001

4.71766149533147e+005,-1.89331171131689e+001,-1.25176904144898e+001

4.78351759563174e+005,-1.89350029937449e+001,-1.26888135014858e+001

4.85029301283321e+005,-1.89369290411013e+001,-1.28622466163947e+001

4.91800058012158e+005,-1.89388961340499e+001,-1.30380210803719e+001

4.98665330982714e+005,-1.89409051778244e+001,-1.32161686457091e+001

5.05626439592555e+005,-1.89429571050595e+001,-1.33967214997757e+001

5.12684721657352e+005,-1.89450528767901e+001,-1.35797122688318e+001

5.19841533667984e+005,-1.89471934834697e+001,-1.37651740217061e+001

5.27098251051240e+005,-1.89493799460066e+001,-1.39531402733337e+001

5.34456268434150e+005,-1.89516133168183e+001,-1.41436449881506e+001

5.41916999912011e+005,-1.89538946809024e+001,-1.43367225833375e+001

