Freq.,VOut,OutRef

1.00000000000000e+004,-1.66066676715905e+001,-1.89932871955264e-001

1.01395947979003e+004,-1.66066686084142e+001,-1.92584143160607e-001

1.02811382665607e+004,-1.66066695715606e+001,-1.95272420789321e-001

1.04246576084112e+004,-1.66066705617687e+001,-1.97998221265599e-001

1.05701804056138e+004,-1.66066715797984e+001,-2.00762068214268e-001

1.07177346253629e+004,-1.66066726264309e+001,-2.03564492563562e-001

1.08673486252606e+004,-1.66066737024693e+001,-2.06406032643672e-001

1.10190511587661e+004,-1.66066748087393e+001,-2.09287234291853e-001

1.11728713807222e+004,-1.66066759460898e+001,-2.12208650957173e-001

1.13288388529580e+004,-1.66066771153932e+001,-2.15170843806393e-001

1.14869835499703e+004,-1.66066783175467e+001,-2.18174381829594e-001

1.16473358646846e+004,-1.66066795534722e+001,-2.21219841951663e-001

1.18099266142953e+004,-1.66066808241181e+001,-2.24307809138901e-001

1.19747870461893e+004,-1.66066821304589e+001,-2.27438876514830e-001

1.21419488439505e+004,-1.66066834734964e+001,-2.30613645472214e-001

1.23114441334492e+004,-1.66066848542606e+001,-2.33832725786678e-001

1.24833054890161e+004,-1.66066862738108e+001,-2.37096735733753e-001

1.26575659397028e+004,-1.66066877332350e+001,-2.40406302210169e-001

1.28342589756290e+004,-1.66066892336524e+001,-2.43762060849702e-001

1.30134185544193e+004,-1.66066907762136e+001,-2.47164656143403e-001

1.31950791077289e+004,-1.66066923621010e+001,-2.50614741570413e-001

1.33792755478611e+004,-1.66066939925303e+001,-2.54112979714073e-001

1.35660432744767e+004,-1.66066956687514e+001,-2.57660042393463e-001

1.37554181813974e+004,-1.66066973920492e+001,-2.61256610788989e-001

1.39474366635040e+004,-1.66066991637441e+001,-2.64903375575462e-001

1.41421356237309e+004,-1.66067009851941e+001,-2.68601037051662e-001

1.43395524801583e+004,-1.66067028577946e+001,-2.72350305274733e-001

1.45397251732031e+004,-1.66067047829807e+001,-2.76151900193296e-001

1.47426921729110e+004,-1.66067067622272e+001,-2.80006551790439e-001

1.49484924863494e+004,-1.66067087970503e+001,-2.83915000216471e-001

1.51571656651040e+004,-1.66067108890087e+001,-2.87877995934570e-001

1.53687518128801e+004,-1.66067130397046e+001,-2.91896299862119e-001

1.55832915932100e+004,-1.66067152507849e+001,-2.95970683515056e-001

1.58008262372675e+004,-1.66067175239428e+001,-3.00101929156771e-001

1.60213975517924e+004,-1.66067198609188e+001,-3.04290829945038e-001

1.62450479271247e+004,-1.66067222635019e+001,-3.08538190084137e-001

1.64718203453514e+004,-1.66067247335313e+001,-3.12844824979044e-001

1.67017583885674e+004,-1.66067272728973e+001,-3.17211561389030e-001

1.69349062472505e+004,-1.66067298835435e+001,-3.21639237584196e-001

1.71713087287550e+004,-1.66067325674673e+001,-3.26128703507963e-001

1.74110112659224e+004,-1.66067353267222e+001,-3.30680820936080e-001

1.76540599258131e+004,-1.66067381634190e+001,-3.35296463641686e-001

1.79005014185594e+004,-1.66067410797275e+001,-3.39976517560835e-001

1.81503831063432e+004,-1.66067440778779e+001,-3.44721880961084e-001

1.84037530124975e+004,-1.66067471601626e+001,-3.49533464613099e-001

1.86606598307361e+004,-1.66067503289382e+001,-3.54412191962262e-001

1.89211529345119e+004,-1.66067535866271e+001,-3.59358999302298e-001

1.91852823865052e+004,-1.66067569357190e+001,-3.64374835958537e-001

1.94530989482457e+004,-1.66067603787733e+001,-3.69460664461733e-001

1.97246540898671e+004,-1.66067639184204e+001,-3.74617460735216e-001

1.99999999999999e+004,-1.66067675573645e+001,-3.79846214277300e-001

2.02791895958005e+004,-1.66067712983848e+001,-3.85147928348828e-001

2.05622765331213e+004,-1.66067751443379e+001,-3.90523620165799e-001

2.08493152168224e+004,-1.66067790981606e+001,-3.95974321086861e-001

2.11403608112276e+004,-1.66067831628706e+001,-4.01501076816371e-001

2.14354692507258e+004,-1.66067873415701e+001,-4.07104947593695e-001

2.17346972505211e+004,-1.66067916374476e+001,-4.12787008399353e-001

2.20381023175322e+004,-1.66067960537804e+001,-4.18548349155835e-001

2.23457427614443e+004,-1.66068005939368e+001,-4.24390074934215e-001

2.26576777059159e+004,-1.66068052613787e+001,-4.30313306163746e-001

2.29739670999406e+004,-1.66068100596645e+001,-4.36319178841558e-001

2.32946717293690e+004,-1.66068149924513e+001,-4.42408844747753e-001

2.36198532285905e+004,-1.66068200634979e+001,-4.48583471662780e-001

2.39495740923785e+004,-1.66068252766673e+001,-4.54844243587143e-001

2.42838976879009e+004,-1.66068306359302e+001,-4.61192360964289e-001

2.46228882668982e+004,-1.66068361453669e+001,-4.67629040909045e-001

2.49666109780322e+004,-1.66068418091714e+001,-4.74155517431293e-001

2.53151318794055e+004,-1.66068476316537e+001,-4.80773041672933e-001

2.56685179512580e+004,-1.66068536172434e+001,-4.87482882142212e-001

2.60268371088386e+004,-1.66068597704930e+001,-4.94286324948841e-001

2.63901582154578e+004,-1.66068660960807e+001,-5.01184674049022e-001

2.67585510957221e+004,-1.66068725988148e+001,-5.08179251487837e-001

2.71320865489533e+004,-1.66068792836360e+001,-5.15271397648849e-001

2.75108363627948e+004,-1.66068861556223e+001,-5.22462471502636e-001

2.78948733270080e+004,-1.66068932199917e+001,-5.29753850863397e-001

2.82842712474618e+004,-1.66069004821067e+001,-5.37146932644991e-001

2.86791049603164e+004,-1.66069079474777e+001,-5.44643133124597e-001

2.90794503464061e+004,-1.66069156217674e+001,-5.52243888203372e-001

2.94853843458219e+004,-1.66069235107948e+001,-5.59950653678308e-001

2.98969849726987e+004,-1.66069316205392e+001,-5.67764905511009e-001

3.03143313302078e+004,-1.66069399571451e+001,-5.75688140103087e-001

3.07375036257601e+004,-1.66069485269259e+001,-5.83721874575702e-001

3.11665831864199e+004,-1.66069573363689e+001,-5.91867647051622e-001

3.16016524745350e+004,-1.66069663921403e+001,-6.00127016940176e-001

3.20427951035848e+004,-1.66069757010894e+001,-6.08501565225969e-001

3.24900958542493e+004,-1.66069852702536e+001,-6.16992894764889e-001

3.29436406907028e+004,-1.66069951068640e+001,-6.25602630578524e-001

3.34035167771346e+004,-1.66070052183498e+001,-6.34332420156543e-001

3.38698124945009e+004,-1.66070156123442e+001,-6.43183933760084e-001

3.43426174575100e+004,-1.66070262966898e+001,-6.52158864730785e-001

3.48220225318448e+004,-1.66070372794438e+001,-6.61258929803610e-001

3.53081198516260e+004,-1.66070485688841e+001,-6.70485869423214e-001

3.58010028371187e+004,-1.66070601735148e+001,-6.79841448063500e-001

3.63007662126863e+004,-1.66070721020728e+001,-6.89327454553106e-001

3.68075060249948e+004,-1.66070843635334e+001,-6.98945702402621e-001

3.73213196614721e+004,-1.66070969671166e+001,-7.08698030140180e-001

3.78423058690237e+004,-1.66071099222941e+001,-7.18586301643964e-001

3.83705647730104e+004,-1.66071232387956e+001,-7.28612406487058e-001

3.89061978964912e+004,-1.66071369266155e+001,-7.38778260280636e-001

3.94493081797342e+004,-1.66071509960199e+001,-7.49085805023856e-001

3.99999999999998e+004,-1.66071654575537e+001,-7.59537009459065e-001

4.05583791916010e+004,-1.66071803220484e+001,-7.70133869428097e-001

4.11245530662425e+004,-1.66071956006285e+001,-7.80878408236319e-001

4.16986304336447e+004,-1.66072113047205e+001,-7.91772677018228e-001

4.22807216224550e+004,-1.66072274460594e+001,-8.02818755110998e-001

4.28709385014515e+004,-1.66072440366978e+001,-8.14018750429426e-001

4.34693945010421e+004,-1.66072610890134e+001,-8.25374799846092e-001

4.40762046350642e+004,-1.66072786157174e+001,-8.36889069578333e-001

4.46914855228886e+004,-1.66072966298640e+001,-8.48563755574887e-001

4.53153554118317e+004,-1.66073151448579e+001,-8.60401083914756e-001

4.59479341998812e+004,-1.66073341744642e+001,-8.72403311202000e-001

4.65893434587380e+004,-1.66073537328171e+001,-8.84572724973108e-001

4.72397064571810e+004,-1.66073738344296e+001,-8.96911644103483e-001

4.78991481847569e+004,-1.66073944942029e+001,-9.09422419222536e-001

4.85677953758016e+004,-1.66074157274366e+001,-9.22107433129829e-001

4.92457765337964e+004,-1.66074375498381e+001,-9.34969101221612e-001

4.99332219560642e+004,-1.66074599775333e+001,-9.48009871915619e-001

5.06302637588109e+004,-1.66074830270773e+001,-9.61232227085550e-001

5.13370359025159e+004,-1.66075067154643e+001,-9.74638682500208e-001

5.20536742176771e+004,-1.66075310601394e+001,-9.88231788263806e-001

5.27803164309155e+004,-1.66075560790092e+001,-1.00201412926726e+000

5.35171021914442e+004,-1.66075817904536e+001,-1.01598832563807e+000

5.42641730979066e+004,-1.66076082133371e+001,-1.03015703320112e+000

5.50216727255895e+004,-1.66076353670207e+001,-1.04452294394013e+000

5.57897466540159e+004,-1.66076632713742e+001,-1.05908878646829e+000

5.65685424949235e+004,-1.66076919467884e+001,-1.07385732649866e+000

5.73582099206328e+004,-1.66077214141878e+001,-1.08883136732607e+000

5.81589006928121e+004,-1.66077516950431e+001,-1.10401375031021e+000

5.89707686916437e+004,-1.66077828113849e+001,-1.11940735536393e+000

5.97939699453972e+004,-1.66078147858164e+001,-1.13501510144873e+000

6.06286626604156e+004,-1.66078476415271e+001,-1.15083994707519e+000

6.14750072515201e+004,-1.66078814023070e+001,-1.16688489080644e+000

6.23331663728396e+004,-1.66079160925602e+001,-1.18315297177003e+000

6.32033049490698e+004,-1.66079517373195e+001,-1.19964727017392e+000

6.40855902071694e+004,-1.66079883622606e+001,-1.21637090782661e+000

6.49801917084985e+004,-1.66080259937174e+001,-1.23332704866472e+000

6.58872813814055e+004,-1.66080646586965e+001,-1.25051889928489e+000

6.68070335542691e+004,-1.66081043848928e+001,-1.26794970948094e+000

6.77396249890018e+004,-1.66081452007051e+001,-1.28562277278661e+000

6.86852349150199e+004,-1.66081871352513e+001,-1.30354142702507e+000

6.96440450636895e+004,-1.66082302183851e+001,-1.32170905486181e+000

7.06162397032520e+004,-1.66082744807117e+001,-1.34012908436408e+000

7.16020056742374e+004,-1.66083199536045e+001,-1.35880498956547e+000

7.26015324253724e+004,-1.66083666692214e+001,-1.37774029103789e+000

7.36150120499896e+004,-1.66084146605222e+001,-1.39693855646528e+000

7.46426393229441e+004,-1.66084639612851e+001,-1.41640340122678e+000

7.56846117380472e+004,-1.66085146061243e+001,-1.43613848898247e+000

7.67411295460207e+004,-1.66085666305074e+001,-1.45614753226707e+000

7.78123957929823e+004,-1.66086200707731e+001,-1.47643429308739e+000

7.88986163594682e+004,-1.66086749641486e+001,-1.49700258352640e+000

7.99999999999995e+004,-1.66087313487683e+001,-1.51785626635276e+000

8.11167583832018e+004,-1.66087892636912e+001,-1.53899925563557e+000

8.22491061324848e+004,-1.66088487489196e+001,-1.56043551736436e+000

8.33972608672892e+004,-1.66089098454174e+001,-1.58216907007719e+000

8.45614432449099e+004,-1.66089725951283e+001,-1.60420398549100e+000

8.57418770029029e+004,-1.66090370409950e+001,-1.62654438913978e+000

8.69387890020841e+004,-1.66091032269771e+001,-1.64919446101842e+000

8.81524092701283e+004,-1.66091711980706e+001,-1.67215843623134e+000

8.93829710457770e+004,-1.66092410003262e+001,-1.69544060564784e+000

9.06307108236633e+004,-1.66093126808679e+001,-1.71904531656220e+000

9.18958683997622e+004,-1.66093862879126e+001,-1.74297697336133e+000

9.31786869174758e+004,-1.66094618707879e+001,-1.76724003819602e+000

9.44794129143618e+004,-1.66095394799516e+001,-1.79183903166010e+000

9.57982963695136e+004,-1.66096191670098e+001,-1.81677853347420e+000

9.71355907516031e+004,-1.66097009847359e+001,-1.84206318317675e+000

9.84915530675926e+004,-1.66097849870885e+001,-1.86769768081974e+000

9.98664439121282e+004,-1.66098712292303e+001,-1.89368678767195e+000

1.01260527517622e+005,-1.66099597675455e+001,-1.92003532692710e+000

1.02674071805032e+005,-1.66100506596581e+001,-1.94674818441910e+000

1.04107348435354e+005,-1.66101439644495e+001,-1.97383030934329e+000

1.05560632861831e+005,-1.66102397420752e+001,-2.00128671498495e+000

1.07034204382888e+005,-1.66103380539827e+001,-2.02912247945299e+000

1.08528346195813e+005,-1.66104389629270e+001,-2.05734274642231e+000

1.10043345451179e+005,-1.66105425329876e+001,-2.08595272587992e+000

1.11579493308032e+005,-1.66106488295837e+001,-2.11495769488184e+000

1.13137084989847e+005,-1.66107579194896e+001,-2.14436299831424e+000

1.14716419841265e+005,-1.66108698708491e+001,-2.17417404966355e+000

1.16317801385624e+005,-1.66109847531898e+001,-2.20439633179195e+000

1.17941537383287e+005,-1.66111026374361e+001,-2.23503539772439e+000

1.19587939890794e+005,-1.66112235959220e+001,-2.26609687143883e+000

1.21257325320831e+005,-1.66113477024030e+001,-2.29758644866896e+000

1.22950014503040e+005,-1.66114750320669e+001,-2.32950989771196e+000

1.24666332745679e+005,-1.66116056615444e+001,-2.36187306024689e+000

1.26406609898139e+005,-1.66117396689177e+001,-2.39468185216226e+000

1.28171180414339e+005,-1.66118771337292e+001,-2.42794226439227e+000

1.29960383416997e+005,-1.66120181369882e+001,-2.46166036376222e+000

1.31774562762811e+005,-1.66121627611774e+001,-2.49584229384509e+000

1.33614067108538e+005,-1.66123110902571e+001,-2.53049427582925e+000

1.35479249978003e+005,-1.66124632096693e+001,-2.56562260939517e+000

1.37370469830040e+005,-1.66126192063393e+001,-2.60123367360586e+000

1.39288090127379e+005,-1.66127791686771e+001,-2.63733392780694e+000

1.41232479406504e+005,-1.66129431865760e+001,-2.67392991254219e+000

1.43204011348474e+005,-1.66131113514113e+001,-2.71102825047954e+000

1.45203064850745e+005,-1.66132837560355e+001,-2.74863564735240e+000

1.47230024099979e+005,-1.66134604947733e+001,-2.78675889291599e+000

1.49285278645888e+005,-1.66136416634144e+001,-2.82540486191643e+000

1.51369223476094e+005,-1.66138273592042e+001,-2.86458051507873e+000

1.53482259092041e+005,-1.66140176808329e+001,-2.90429290010949e+000

1.55624791585964e+005,-1.66142127284225e+001,-2.94454915271862e+000

1.57797232718936e+005,-1.66144126035121e+001,-2.98535649765872e+000

1.59999999999999e+005,-1.66146174090407e+001,-3.02672224978358e+000

1.62233516766403e+005,-1.66148272493280e+001,-3.06865381512870e+000

1.64498212264969e+005,-1.66150422300534e+001,-3.11115869201242e+000

1.66794521734578e+005,-1.66152624582320e+001,-3.15424447215934e+000

1.69122886489819e+005,-1.66154880421892e+001,-3.19791884184783e+000

1.71483754005805e+005,-1.66157190915322e+001,-3.24218958308392e+000

1.73877578004168e+005,-1.66159557171193e+001,-3.28706457479906e+000

1.76304818540256e+005,-1.66161980310275e+001,-3.33255179407790e+000

1.78765942091554e+005,-1.66164461465167e+001,-3.37865931741374e+000

1.81261421647326e+005,-1.66167001779917e+001,-3.42539532199463e+000

1.83791736799524e+005,-1.66169602409625e+001,-3.47276808702249e+000

1.86357373834951e+005,-1.66172264520011e+001,-3.52078599506404e+000

1.88958825828723e+005,-1.66174989286964e+001,-3.56945753343876e+000

1.91596592739027e+005,-1.66177777896068e+001,-3.61879129564220e+000

1.94271181503206e+005,-1.66180631542099e+001,-3.66879598280884e+000

1.96983106135185e+005,-1.66183551428504e+001,-3.71948040521431e+000

1.99732887824256e+005,-1.66186538766852e+001,-3.77085348382088e+000

2.02521055035243e+005,-1.66189594776268e+001,-3.82292425186601e+000

2.05348143610063e+005,-1.66192720682840e+001,-3.87570185649631e+000

2.08214696870707e+005,-1.66195917719010e+001,-3.92919556045120e+000

2.11121265723661e+005,-1.66199187122944e+001,-3.98341474379382e+000

2.14068408765776e+005,-1.66202530137880e+001,-4.03836890569550e+000

2.17056692391625e+005,-1.66205948011468e+001,-4.09406766627283e+000

2.20086690902357e+005,-1.66209441995087e+001,-4.15052076848131e+000

2.23158986616063e+005,-1.66213013343155e+001,-4.20773808006547e+000

2.26274169979693e+005,-1.66216663312422e+001,-4.26572959556965e+000

2.29432839682530e+005,-1.66220393161258e+001,-4.32450543841116e+000

2.32635602771247e+005,-1.66224204148939e+001,-4.38407586301512e+000

2.35883074766574e+005,-1.66228097534916e+001,-4.44445125701648e+000

2.39175879781588e+005,-1.66232074578101e+001,-4.50564214353044e+000

2.42514650641661e+005,-1.66236136536140e+001,-4.56765918348979e+000

2.45900029006080e+005,-1.66240284664700e+001,-4.63051317805620e+000

2.49332665491357e+005,-1.66244520216766e+001,-4.69421507110362e+000

2.52813219796278e+005,-1.66248844441945e+001,-4.75877595177571e+000

2.56342360828676e+005,-1.66253258585796e+001,-4.82420705712145e+000

2.59920766833993e+005,-1.66257763889168e+001,-4.89051977480719e+000

2.63549125525621e+005,-1.66262361587585e+001,-4.95772564590850e+000

2.67228134217075e+005,-1.66267052910637e+001,-5.02583636778300e+000

2.70958499956006e+005,-1.66271839081426e+001,-5.09486379702408e+000

2.74740939660078e+005,-1.66276721316046e+001,-5.16481995249806e+000

2.78576180254757e+005,-1.66281700823102e+001,-5.23571701846487e+000

2.82464958813007e+005,-1.66286778803293e+001,-5.30756734778157e+000

2.86408022696948e+005,-1.66291956449044e+001,-5.38038346519224e+000

2.90406129701488e+005,-1.66297234944204e+001,-5.45417807070130e+000

2.94460048199957e+005,-1.66302615463807e+001,-5.52896404303270e+000

2.98570557291775e+005,-1.66308099173919e+001,-5.60475444317231e+000

3.02738446952187e+005,-1.66313687231555e+001,-5.68156251799632e+000

3.06964518184081e+005,-1.66319380784690e+001,-5.75940170398156e+000

3.11249583171928e+005,-1.66325180972359e+001,-5.83828563099938e+000

3.15594465437872e+005,-1.66331088924859e+001,-5.91822812619032e+000

3.19999999999997e+005,-1.66337105764060e+001,-5.99924321791973e+000

3.24467033532806e+005,-1.66343232603818e+001,-6.08134513981017e+000

3.28996424529938e+005,-1.66349470550520e+001,-6.16454833485084e+000

3.33589043469155e+005,-1.66355820703742e+001,-6.24886745958145e+000

3.38245772979638e+005,-1.66362284157043e+001,-6.33431738834616e+000

3.42967508011610e+005,-1.66368861998893e+001,-6.42091321761725e+000

3.47755156008335e+005,-1.66375555313746e+001,-6.50867027038355e+000

3.52609637080511e+005,-1.66382365183249e+001,-6.59760410060164e+000

3.57531884183106e+005,-1.66389292687624e+001,-6.68773049770378e+000

3.62522843294651e+005,-1.66396338907181e+001,-6.77906549116296e+000

3.67583473599047e+005,-1.66403504924012e+001,-6.87162535510628e+000

3.72714747669902e+005,-1.66410791823842e+001,-6.96542661297477e+000

3.77917651657445e+005,-1.66418200698050e+001,-7.06048604222526e+000

3.83193185478053e+005,-1.66425732645859e+001,-7.15682067906900e+000

3.88542363006410e+005,-1.66433388776709e+001,-7.25444782324124e+000

3.93966212270369e+005,-1.66441170212800e+001,-7.35338504279781e+000

3.99465775648511e+005,-1.66449078091813e+001,-7.45365017893380e+000

4.05042110070485e+005,-1.66457113569821e+001,-7.55526135081684e+000

4.10696287220124e+005,-1.66465277824370e+001,-7.65823696043333e+000

4.16429393741414e+005,-1.66473572057747e+001,-7.76259569743718e+000

4.22242531447321e+005,-1.66481997500428e+001,-7.86835654400031e+000

4.28136817531551e+005,-1.66490555414707e+001,-7.97553877965654e+000

4.34113384783250e+005,-1.66499247098498e+001,-8.08416198613405e+000

4.40173381804713e+005,-1.66508073889321e+001,-8.19424605217148e+000

4.46317973232124e+005,-1.66517037168459e+001,-8.30581117831192e+000

4.52548339959385e+005,-1.66526138365279e+001,-8.41887788166976e+000

4.58865679365059e+005,-1.66535378961731e+001,-8.53346700066532e+000

4.65271205542494e+005,-1.66544760496996e+001,-8.64959969972260e+000

4.71766149533147e+005,-1.66554284572309e+001,-8.76729747392476e+000

4.78351759563174e+005,-1.66563952855911e+001,-8.88658215362392e+000

4.85029301283321e+005,-1.66573767088171e+001,-9.00747590900167e+000

4.91800058012158e+005,-1.66583729086832e+001,-9.13000125457369e+000

4.98665330982714e+005,-1.66593840752395e+001,-9.25418105363843e+000

5.05626439592555e+005,-1.66604104073633e+001,-9.38003852266448e+000

5.12684721657352e+005,-1.66614521133222e+001,-9.50759723561433e+000

5.19841533667984e+005,-1.66625094113483e+001,-9.63688112820275e+000

5.27098251051240e+005,-1.66635825302228e+001,-9.76791450208644e+000

5.34456268434150e+005,-1.66646717098706e+001,-9.90072202898484e+000

5.41916999912011e+005,-1.66657772019637e+001,-1.00353287547288e+001

