Freq.,VOut,OutRef

1.00000000000000e+004,-2.30173018801961e+001,-2.53602422728477e-001

1.01395947979003e+004,-2.30173034199368e+001,-2.57142471846285e-001

1.02811382665607e+004,-2.30173050029487e+001,-2.60731933590871e-001

1.04246576084112e+004,-2.30173066304473e+001,-2.64371497541660e-001

1.05701804056138e+004,-2.30173083036823e+001,-2.68061862894230e-001

1.07177346253629e+004,-2.30173100239385e+001,-2.71803738597101e-001

1.08673486252606e+004,-2.30173117925367e+001,-2.75597843485712e-001

1.10190511587661e+004,-2.30173136108348e+001,-2.79444906421854e-001

1.11728713807222e+004,-2.30173154802286e+001,-2.83345666431048e-001

1.13288388529580e+004,-2.30173174021534e+001,-2.87300872844737e-001

1.14869835499703e+004,-2.30173193780847e+001,-2.91311285444749e-001

1.16473358646846e+004,-2.30173214095393e+001,-2.95377674606816e-001

1.18099266142953e+004,-2.30173234980765e+001,-2.99500821450782e-001

1.19747870461893e+004,-2.30173256452997e+001,-3.03681517986528e-001

1.21419488439505e+004,-2.30173278528566e+001,-3.07920567270082e-001

1.23114441334492e+004,-2.30173301224419e+001,-3.12218783551770e-001

1.24833054890161e+004,-2.30173324557974e+001,-3.16576992436074e-001

1.26575659397028e+004,-2.30173348547137e+001,-3.20996031038708e-001

1.28342589756290e+004,-2.30173373210319e+001,-3.25476748145271e-001

1.30134185544193e+004,-2.30173398566446e+001,-3.30020004374914e-001

1.31950791077289e+004,-2.30173424634975e+001,-3.34626672343927e-001

1.33792755478611e+004,-2.30173451435908e+001,-3.39297636834436e-001

1.35660432744767e+004,-2.30173478989807e+001,-3.44033794960646e-001

1.37554181813974e+004,-2.30173507317812e+001,-3.48836056343248e-001

1.39474366635040e+004,-2.30173536441658e+001,-3.53705343279407e-001

1.41421356237309e+004,-2.30173566383684e+001,-3.58642590923179e-001

1.43395524801583e+004,-2.30173597166859e+001,-3.63648747462337e-001

1.45397251732031e+004,-2.30173628814794e+001,-3.68724774297871e-001

1.47426921729110e+004,-2.30173661351763e+001,-3.73871646229612e-001

1.49484924863494e+004,-2.30173694802719e+001,-3.79090351642364e-001

1.51571656651040e+004,-2.30173729193316e+001,-3.84381892692776e-001

1.53687518128801e+004,-2.30173764549925e+001,-3.89747285502199e-001

1.55832915932100e+004,-2.30173800899656e+001,-3.95187560350279e-001

1.58008262372675e+004,-2.30173838270379e+001,-4.00703761870237e-001

1.60213975517924e+004,-2.30173876690747e+001,-4.06296949249438e-001

1.62450479271247e+004,-2.30173916190210e+001,-4.11968196431571e-001

1.64718203453514e+004,-2.30173956799047e+001,-4.17718592320069e-001

1.67017583885674e+004,-2.30173998548384e+001,-4.23549240986658e-001

1.69349062472505e+004,-2.30174041470219e+001,-4.29461261880048e-001

1.71713087287550e+004,-2.30174085597442e+001,-4.35455790043122e-001

1.74110112659224e+004,-2.30174130963870e+001,-4.41533976323521e-001

1.76540599258131e+004,-2.30174177604262e+001,-4.47696987597412e-001

1.79005014185594e+004,-2.30174225554350e+001,-4.53946006989138e-001

1.81503831063432e+004,-2.30174274850867e+001,-4.60282234097896e-001

1.84037530124975e+004,-2.30174325531575e+001,-4.66706885223592e-001

1.86606598307361e+004,-2.30174377635290e+001,-4.73221193600694e-001

1.89211529345119e+004,-2.30174431201914e+001,-4.79826409631512e-001

1.91852823865052e+004,-2.30174486272464e+001,-4.86523801124670e-001

1.94530989482457e+004,-2.30174542889109e+001,-4.93314653533498e-001

1.97246540898671e+004,-2.30174601095190e+001,-5.00200270203791e-001

1.99999999999999e+004,-2.30174660935264e+001,-5.07181972619225e-001

2.02791895958005e+004,-2.30174722455132e+001,-5.14261100651487e-001

2.05622765331213e+004,-2.30174785701875e+001,-5.21439012817389e-001

2.08493152168224e+004,-2.30174850723890e+001,-5.28717086532165e-001

2.11403608112276e+004,-2.30174917570923e+001,-5.36096718376219e-001

2.14354692507258e+004,-2.30174986294115e+001,-5.43579324354919e-001

2.17346972505211e+004,-2.30175056946028e+001,-5.51166340169740e-001

2.20381023175322e+004,-2.30175129580699e+001,-5.58859221488094e-001

2.23457427614443e+004,-2.30175204253669e+001,-5.66659444221118e-001

2.26576777059159e+004,-2.30175281022027e+001,-5.74568504802595e-001

2.29739670999406e+004,-2.30175359944460e+001,-5.82587920470637e-001

2.32946717293690e+004,-2.30175441081289e+001,-5.90719229554802e-001

2.36198532285905e+004,-2.30175524494518e+001,-5.98963991768796e-001

2.39495740923785e+004,-2.30175610247881e+001,-6.07323788502348e-001

2.42838976879009e+004,-2.30175698406886e+001,-6.15800223122155e-001

2.46228882668982e+004,-2.30175789038870e+001,-6.24394921274155e-001

2.49666109780322e+004,-2.30175882213044e+001,-6.33109531188104e-001

2.53151318794055e+004,-2.30175978000549e+001,-6.41945723990316e-001

2.56685179512580e+004,-2.30176076474506e+001,-6.50905194017996e-001

2.60268371088386e+004,-2.30176177710070e+001,-6.59989659139253e-001

2.63901582154578e+004,-2.30176281784493e+001,-6.69200861074021e-001

2.67585510957221e+004,-2.30176388777171e+001,-6.78540565725275e-001

2.71320865489533e+004,-2.30176498769714e+001,-6.88010563506994e-001

2.75108363627948e+004,-2.30176611845996e+001,-6.97612669684728e-001

2.78948733270080e+004,-2.30176728092229e+001,-7.07348724712102e-001

2.82842712474618e+004,-2.30176847597016e+001,-7.17220594581100e-001

2.86791049603164e+004,-2.30176970451425e+001,-7.27230171167006e-001

2.90794503464061e+004,-2.30177096749052e+001,-7.37379372586466e-001

2.94853843458219e+004,-2.30177226586094e+001,-7.47670143555645e-001

2.98969849726987e+004,-2.30177360061414e+001,-7.58104455754589e-001

3.03143313302078e+004,-2.30177497276623e+001,-7.68684308194066e-001

3.07375036257601e+004,-2.30177638336146e+001,-7.79411727592010e-001

3.11665831864199e+004,-2.30177783347305e+001,-7.90288768750246e-001

3.16016524745350e+004,-2.30177932420398e+001,-8.01317514937208e-001

3.20427951035848e+004,-2.30178085668778e+001,-8.12500078278357e-001

3.24900958542493e+004,-2.30178243208933e+001,-8.23838600148985e-001

3.29436406907028e+004,-2.30178405160583e+001,-8.35335251570303e-001

3.34035167771346e+004,-2.30178571646754e+001,-8.46992233617277e-001

3.38698124945009e+004,-2.30178742793877e+001,-8.58811777824740e-001

3.43426174575100e+004,-2.30178918731878e+001,-8.70796146601793e-001

3.48220225318448e+004,-2.30179099594274e+001,-8.82947633652739e-001

3.53081198516260e+004,-2.30179285518266e+001,-8.95268564400746e-001

3.58010028371187e+004,-2.30179476644846e+001,-9.07761296418643e-001

3.63007662126863e+004,-2.30179673118895e+001,-9.20428219864189e-001

3.68075060249948e+004,-2.30179875089286e+001,-9.33271757924223e-001

3.73213196614721e+004,-2.30180082709000e+001,-9.46294367256825e-001

3.78423058690237e+004,-2.30180296135227e+001,-9.59498538448964e-001

3.83705647730104e+004,-2.30180515529487e+001,-9.72886796471690e-001

3.89061978964912e+004,-2.30180741057743e+001,-9.86461701146549e-001

3.94493081797342e+004,-2.30180972890521e+001,-1.00022584761376e+000

3.99999999999998e+004,-2.30181211203034e+001,-1.01418186680946e+000

4.05583791916010e+004,-2.30181456175304e+001,-1.02833242594762e+000

4.11245530662425e+004,-2.30181707992296e+001,-1.04268022900803e+000

4.16986304336447e+004,-2.30181966844047e+001,-1.05722801722899e+000

4.22807216224550e+004,-2.30182232925800e+001,-1.07197856960946e+000

4.28709385014515e+004,-2.30182506438148e+001,-1.08693470341432e+000

4.34693945010421e+004,-2.30182787587169e+001,-1.10209927468777e+000

4.40762046350642e+004,-2.30183076584581e+001,-1.11747517877092e+000

4.46914855228886e+004,-2.30183373647884e+001,-1.13306535082810e+000

4.53153554118317e+004,-2.30183679000517e+001,-1.14887276637849e+000

4.59479341998812e+004,-2.30183992872014e+001,-1.16490044183385e+000

4.65893434587380e+004,-2.30184315498164e+001,-1.18115143504395e+000

4.72397064571810e+004,-2.30184647121180e+001,-1.19762884584550e+000

4.78991481847569e+004,-2.30184987989863e+001,-1.21433581662414e+000

4.85677953758016e+004,-2.30185338359778e+001,-1.23127553287482e+000

4.92457765337964e+004,-2.30185698493430e+001,-1.24845122377588e+000

4.99332219560642e+004,-2.30186068660448e+001,-1.26586616276459e+000

5.06302637588109e+004,-2.30186449137767e+001,-1.28352366812497e+000

5.13370359025159e+004,-2.30186840209822e+001,-1.30142710357758e+000

5.20536742176771e+004,-2.30187242168740e+001,-1.31957987887859e+000

5.27803164309155e+004,-2.30187655314543e+001,-1.33798545042520e+000

5.35171021914442e+004,-2.30188079955349e+001,-1.35664732186980e+000

5.42641730979066e+004,-2.30188516407584e+001,-1.37556904473749e+000

5.50216727255895e+004,-2.30188964996191e+001,-1.39475421905508e+000

5.57897466540159e+004,-2.30189426054857e+001,-1.41420649398438e+000

5.65685424949235e+004,-2.30189899926227e+001,-1.43392956846320e+000

5.73582099206328e+004,-2.30190386962143e+001,-1.45392719185434e+000

5.81589006928121e+004,-2.30190887523870e+001,-1.47420316460146e+000

5.89707686916437e+004,-2.30191401982341e+001,-1.49476133889224e+000

5.97939699453972e+004,-2.30191930718398e+001,-1.51560561932985e+000

6.06286626604156e+004,-2.30192474123047e+001,-1.53673996360894e+000

6.14750072515201e+004,-2.30193032597708e+001,-1.55816838320413e+000

6.23331663728396e+004,-2.30193606554483e+001,-1.57989494405994e+000

6.32033049490698e+004,-2.30194196416417e+001,-1.60192376729458e+000

6.40855902071694e+004,-2.30194802617777e+001,-1.62425902990533e+000

6.49801917084985e+004,-2.30195425604324e+001,-1.64690496548660e+000

6.58872813814055e+004,-2.30196065833604e+001,-1.66986586495161e+000

6.68070335542691e+004,-2.30196723775235e+001,-1.69314607726568e+000

6.77396249890018e+004,-2.30197399911205e+001,-1.71675001018307e+000

6.86852349150199e+004,-2.30198094736175e+001,-1.74068213099491e+000

6.96440450636895e+004,-2.30198808757786e+001,-1.76494696728302e+000

7.06162397032520e+004,-2.30199542496977e+001,-1.78954910768345e+000

7.16020056742374e+004,-2.30200296488305e+001,-1.81449320265511e+000

7.26015324253724e+004,-2.30201071280274e+001,-1.83978396525823e+000

7.36150120499896e+004,-2.30201867435666e+001,-1.86542617194142e+000

7.46426393229441e+004,-2.30202685531885e+001,-1.89142466333388e+000

7.56846117380472e+004,-2.30203526161302e+001,-1.91778434504928e+000

7.67411295460207e+004,-2.30204389931610e+001,-1.94451018849315e+000

7.78123957929823e+004,-2.30205277466184e+001,-1.97160723168336e+000

7.88986163594682e+004,-2.30206189404444e+001,-1.99908058007392e+000

7.99999999999995e+004,-2.30207126402233e+001,-2.02693540739055e+000

8.11167583832018e+004,-2.30208089132194e+001,-2.05517695647204e+000

8.22491061324848e+004,-2.30209078284155e+001,-2.08381054012076e+000

8.33972608672892e+004,-2.30210094565525e+001,-2.11284154196069e+000

8.45614432449099e+004,-2.30211138701689e+001,-2.14227541730526e+000

8.57418770029029e+004,-2.30212211436417e+001,-2.17211769403079e+000

8.69387890020841e+004,-2.30213313532275e+001,-2.20237397346066e+000

8.81524092701283e+004,-2.30214445771043e+001,-2.23304993125591e+000

8.93829710457770e+004,-2.30215608954140e+001,-2.26415131831625e+000

9.06307108236633e+004,-2.30216803903056e+001,-2.29568396168687e+000

9.18958683997622e+004,-2.30218031459786e+001,-2.32765376547592e+000

9.31786869174758e+004,-2.30219292487280e+001,-2.36006671177942e+000

9.44794129143618e+004,-2.30220587869885e+001,-2.39292886161456e+000

9.57982963695136e+004,-2.30221918513809e+001,-2.42624635586210e+000

9.71355907516031e+004,-2.30223285347571e+001,-2.46002541621761e+000

9.84915530675926e+004,-2.30224689322480e+001,-2.49427234615016e+000

9.98664439121282e+004,-2.30226131413100e+001,-2.52899353187106e+000

1.01260527517622e+005,-2.30227612617730e+001,-2.56419544331058e+000

1.02674071805032e+005,-2.30229133958889e+001,-2.59988463510543e+000

1.04107348435354e+005,-2.30230696483801e+001,-2.63606774759205e+000

1.05560632861831e+005,-2.30232301264890e+001,-2.67275150781211e+000

1.07034204382888e+005,-2.30233949400279e+001,-2.70994273052576e+000

1.08528346195813e+005,-2.30235642014291e+001,-2.74764831923464e+000

1.10043345451179e+005,-2.30237380257955e+001,-2.78587526721426e+000

1.11579493308032e+005,-2.30239165309516e+001,-2.82463065855578e+000

1.13137084989847e+005,-2.30240998374953e+001,-2.86392166921938e+000

1.14716419841265e+005,-2.30242880688491e+001,-2.90375556809403e+000

1.16317801385624e+005,-2.30244813513128e+001,-2.94413971807198e+000

1.17941537383287e+005,-2.30246798141151e+001,-2.98508157713004e+000

1.19587939890794e+005,-2.30248835894670e+001,-3.02658869942322e+000

1.21257325320831e+005,-2.30250928126141e+001,-3.06866873638907e+000

1.22950014503040e+005,-2.30253076218898e+001,-3.11132943786304e+000

1.24666332745679e+005,-2.30255281587685e+001,-3.15457865320525e+000

1.26406609898139e+005,-2.30257545679187e+001,-3.19842433243919e+000

1.28171180414339e+005,-2.30259869972567e+001,-3.24287452740249e+000

1.29960383416997e+005,-2.30262255979997e+001,-3.28793739291056e+000

1.31774562762811e+005,-2.30264705247192e+001,-3.33362118793209e+000

1.33614067108538e+005,-2.30267219353949e+001,-3.37993427677895e+000

1.35479249978003e+005,-2.30269799914670e+001,-3.42688513031022e+000

1.37370469830040e+005,-2.30272448578905e+001,-3.47448232714797e+000

1.39288090127379e+005,-2.30275167031875e+001,-3.52273455491175e+000

1.41232479406504e+005,-2.30277956995001e+001,-3.57165061146471e+000

1.43204011348474e+005,-2.30280820226436e+001,-3.62123940617818e+000

1.45203064850745e+005,-2.30283758521579e+001,-3.67150996121205e+000

1.47230024099979e+005,-2.30286773713605e+001,-3.72247141281184e+000

1.49285278645888e+005,-2.30289867673975e+001,-3.77413301262476e+000

1.51369223476094e+005,-2.30293042312955e+001,-3.82650412903436e+000

1.53482259092041e+005,-2.30296299580120e+001,-3.87959424851399e+000

1.55624791585964e+005,-2.30299641464864e+001,-3.93341297700157e+000

1.57797232718936e+005,-2.30303069996896e+001,-3.98797004129549e+000

1.59999999999999e+005,-2.30306587246741e+001,-4.04327529047338e+000

1.62233516766403e+005,-2.30310195326228e+001,-4.09933869733218e+000

1.64498212264969e+005,-2.30313896388975e+001,-4.15617035985567e+000

1.66794521734578e+005,-2.30317692630873e+001,-4.21378050270508e+000

1.69122886489819e+005,-2.30321586290559e+001,-4.27217947873744e+000

1.71483754005805e+005,-2.30325579649889e+001,-4.33137777055186e+000

1.73877578004168e+005,-2.30329675034403e+001,-4.39138599206464e+000

1.76304818540256e+005,-2.30333874813785e+001,-4.45221489011487e+000

1.78765942091554e+005,-2.30338181402323e+001,-4.51387534610264e+000

1.81261421647326e+005,-2.30342597259358e+001,-4.57637837765976e+000

1.83791736799524e+005,-2.30347124889736e+001,-4.63973514035573e+000

1.86357373834951e+005,-2.30351766844252e+001,-4.70395692944009e+000

1.88958825828723e+005,-2.30356525720098e+001,-4.76905518162263e+000

1.91596592739027e+005,-2.30361404161299e+001,-4.83504147689337e+000

1.94271181503206e+005,-2.30366404859164e+001,-4.90192754038383e+000

1.96983106135185e+005,-2.30371530552723e+001,-4.96972524427099e+000

1.99732887824256e+005,-2.30376784029173e+001,-5.03844660972649e+000

2.02521055035243e+005,-2.30382168124330e+001,-5.10810380891259e+000

2.05348143610063e+005,-2.30387685723079e+001,-5.17870916702559e+000

2.08214696870707e+005,-2.30393339759837e+001,-5.25027516439103e+000

2.11121265723661e+005,-2.30399133219022e+001,-5.32281443860953e+000

2.14068408765776e+005,-2.30405069135536e+001,-5.39633978675807e+000

2.17056692391625e+005,-2.30411150595256e+001,-5.47086416764656e+000

2.20086690902357e+005,-2.30417380735548e+001,-5.54640070413195e+000

2.23158986616063e+005,-2.30423762745795e+001,-5.62296268549338e+000

2.26274169979693e+005,-2.30430299867950e+001,-5.70056356986737e+000

2.29432839682530e+005,-2.30436995397114e+001,-5.77921698674843e+000

2.32635602771247e+005,-2.30443852682143e+001,-5.85893673955306e+000

2.35883074766574e+005,-2.30450875126284e+001,-5.93973680825270e+000

2.39175879781588e+005,-2.30458066187859e+001,-6.02163135207401e+000

2.42514650641661e+005,-2.30465429380976e+001,-6.10463471227080e+000

2.45900029006080e+005,-2.30472968276300e+001,-6.18876141496755e+000

2.49332665491357e+005,-2.30480686501864e+001,-6.27402617407651e+000

2.52813219796278e+005,-2.30488587743942e+001,-6.36044389428983e+000

2.56342360828676e+005,-2.30496675747981e+001,-6.44802967414793e+000

2.59920766833993e+005,-2.30504954319608e+001,-6.53679880918470e+000

2.63549125525621e+005,-2.30513427325694e+001,-6.62676679515209e+000

2.67228134217075e+005,-2.30522098695515e+001,-6.71794933132247e+000

2.70958499956006e+005,-2.30530972421991e+001,-6.81036232387150e+000

2.74740939660078e+005,-2.30540052563015e+001,-6.90402188934115e+000

2.78576180254757e+005,-2.30549343242886e+001,-6.99894435818208e+000

2.82464958813007e+005,-2.30558848653853e+001,-7.09514627837788e+000

2.86408022696948e+005,-2.30568573057758e+001,-7.19264441914835e+000

2.90406129701488e+005,-2.30578520787820e+001,-7.29145577473239e+000

2.94460048199957e+005,-2.30588696250536e+001,-7.39159756825046e+000

2.98570557291775e+005,-2.30599103927721e+001,-7.49308725564353e+000

3.02738446952187e+005,-2.30609748378697e+001,-7.59594252969007e+000

3.06964518184081e+005,-2.30620634242630e+001,-7.70018132409629e+000

3.11249583171928e+005,-2.30631766241036e+001,-7.80582181766022e+000

3.15594465437872e+005,-2.30643149180448e+001,-7.91288243850581e+000

3.19999999999997e+005,-2.30654787955264e+001,-8.02138186838475e+000

3.24467033532806e+005,-2.30666687550784e+001,-8.13133904704394e+000

3.28996424529938e+005,-2.30678853046439e+001,-8.24277317665389e+000

3.33589043469155e+005,-2.30691289619216e+001,-8.35570372629458e+000

3.38245772979638e+005,-2.30704002547305e+001,-8.47015043649664e+000

3.42967508011610e+005,-2.30716997213947e+001,-8.58613332383091e+000

3.47755156008335e+005,-2.30730279111523e+001,-8.70367268554277e+000

3.52609637080511e+005,-2.30743853845866e+001,-8.82278910422681e+000

3.57531884183106e+005,-2.30757727140810e+001,-8.94350345253505e+000

3.62522843294651e+005,-2.30771904842992e+001,-9.06583689791431e+000

3.67583473599047e+005,-2.30786392926900e+001,-9.18981090736554e+000

3.72714747669902e+005,-2.30801197500176e+001,-9.31544725221934e+000

3.77917651657445e+005,-2.30816324809191e+001,-9.44276801292119e+000

3.83193185478053e+005,-2.30831781244881e+001,-9.57179558381799e+000

3.88542363006410e+005,-2.30847573348853e+001,-9.70255267794121e+000

3.93966212270369e+005,-2.30863707819770e+001,-9.83506233177693e+000

3.99465775648511e+005,-2.30880191520019e+001,-9.96934791001568e+000

4.05042110070485e+005,-2.30897031482653e+001,-1.01054331102751e+001

4.10696287220124e+005,-2.30914234918621e+001,-1.02433419677861e+001

4.16429393741414e+005,-2.30931809224284e+001,-1.03830988600357e+001

4.22242531447321e+005,-2.30949761989214e+001,-1.05247285113566e+001

4.28136817531551e+005,-2.30968101004280e+001,-1.06682559974568e+001

4.34113384783250e+005,-2.30986834270025e+001,-1.08137067498801e+001

4.40173381804713e+005,-2.31005970005316e+001,-1.09611065603887e+001

4.46317973232124e+005,-2.31025516656288e+001,-1.11104815852604e+001

4.52548339959385e+005,-2.31045482905559e+001,-1.12618583494909e+001

4.58865679365059e+005,-2.31065877681727e+001,-1.14152637508943e+001

4.65271205542494e+005,-2.31086710169140e+001,-1.15707250640931e+001

4.71766149533147e+005,-2.31107989817928e+001,-1.17282699443879e+001

4.78351759563174e+005,-2.31129726354306e+001,-1.18879264315032e+001

4.85029301283321e+005,-2.31151929791126e+001,-1.20497229531965e+001

4.91800058012158e+005,-2.31174610438691e+001,-1.22136883287278e+001

4.98665330982714e+005,-2.31197778915802e+001,-1.23798517721787e+001

5.05626439592555e+005,-2.31221446161051e+001,-1.25482428956173e+001

5.12684721657352e+005,-2.31245623444338e+001,-1.27188917120993e+001

5.19841533667984e+005,-2.31270322378613e+001,-1.28918286385016e+001

5.27098251051240e+005,-2.31295554931830e+001,-1.30670844981811e+001

5.34456268434150e+005,-2.31321333439104e+001,-1.32446905234523e+001

5.41916999912011e+005,-2.31347670615068e+001,-1.34246783578797e+001

