Freq.,VOut,OutRef

1.00000000000000e+004,-2.08558225337770e+001,-1.61685639956819e-001

1.01395947979003e+004,-2.08558238331643e+001,-1.63942552620429e-001

1.02811382665607e+004,-2.08558251690604e+001,-1.66230964890072e-001

1.04246576084112e+004,-2.08558265424903e+001,-1.68551316242183e-001

1.05701804056138e+004,-2.08558279545079e+001,-1.70904052276248e-001

1.07177346253629e+004,-2.08558294061967e+001,-1.73289624802448e-001

1.08673486252606e+004,-2.08558308986704e+001,-1.75708491926227e-001

1.10190511587661e+004,-2.08558324330743e+001,-1.78161118135164e-001

1.11728713807222e+004,-2.08558340105853e+001,-1.80647974390838e-001

1.13288388529580e+004,-2.08558356324136e+001,-1.83169538215644e-001

1.14869835499703e+004,-2.08558372998033e+001,-1.85726293784490e-001

1.16473358646846e+004,-2.08558390140335e+001,-1.88318732016584e-001

1.18099266142953e+004,-2.08558407764186e+001,-1.90947350672806e-001

1.19747870461893e+004,-2.08558425883107e+001,-1.93612654442925e-001

1.21419488439505e+004,-2.08558444510989e+001,-1.96315155050625e-001

1.23114441334492e+004,-2.08558463662121e+001,-1.99055371343373e-001

1.24833054890161e+004,-2.08558483351184e+001,-2.01833829397948e-001

1.26575659397028e+004,-2.08558503593275e+001,-2.04651062614325e-001

1.28342589756290e+004,-2.08558524403913e+001,-2.07507611821290e-001

1.30134185544193e+004,-2.08558545799051e+001,-2.10404025378591e-001

1.31950791077289e+004,-2.08558567795090e+001,-2.13340859279738e-001

1.33792755478611e+004,-2.08558590408890e+001,-2.16318677259134e-001

1.35660432744767e+004,-2.08558613657782e+001,-2.19338050899482e-001

1.37554181813974e+004,-2.08558637559582e+001,-2.22399559739590e-001

1.39474366635040e+004,-2.08558662132606e+001,-2.25503791384387e-001

1.41421356237309e+004,-2.08558687395684e+001,-2.28651341616676e-001

1.43395524801583e+004,-2.08558713368168e+001,-2.31842814511657e-001

1.45397251732031e+004,-2.08558740069957e+001,-2.35078822549049e-001

1.47426921729110e+004,-2.08558767521501e+001,-2.38359986732249e-001

1.49484924863494e+004,-2.08558795743830e+001,-2.41686936702461e-001

1.51571656651040e+004,-2.08558824758555e+001,-2.45060310860901e-001

1.53687518128801e+004,-2.08558854587894e+001,-2.48480756490578e-001

1.55832915932100e+004,-2.08558885254687e+001,-2.51948929874327e-001

1.58008262372675e+004,-2.08558916782410e+001,-2.55465496426250e-001

1.60213975517924e+004,-2.08558949195201e+001,-2.59031130808464e-001

1.62450479271247e+004,-2.08558982517864e+001,-2.62646517069563e-001

1.64718203453514e+004,-2.08559016775903e+001,-2.66312348763349e-001

1.67017583885674e+004,-2.08559051995533e+001,-2.70029329087229e-001

1.69349062472505e+004,-2.08559088203700e+001,-2.73798171012899e-001

1.71713087287550e+004,-2.08559125428102e+001,-2.77619597420435e-001

1.74110112659224e+004,-2.08559163697214e+001,-2.81494341234645e-001

1.76540599258131e+004,-2.08559203040302e+001,-2.85423145565661e-001

1.79005014185594e+004,-2.08559243487451e+001,-2.89406763845771e-001

1.81503831063432e+004,-2.08559285069585e+001,-2.93445959973736e-001

1.84037530124975e+004,-2.08559327818491e+001,-2.97541508457155e-001

1.86606598307361e+004,-2.08559371766844e+001,-3.01694194559993e-001

1.89211529345119e+004,-2.08559416948227e+001,-3.05904814450376e-001

1.91852823865052e+004,-2.08559463397163e+001,-3.10174175346681e-001

1.94530989482457e+004,-2.08559511149136e+001,-3.14503095675221e-001

1.97246540898671e+004,-2.08559560240617e+001,-3.18892405218777e-001

1.99999999999999e+004,-2.08559610709098e+001,-3.23342945274240e-001

2.02791895958005e+004,-2.08559662593110e+001,-3.27855568812268e-001

2.05622765331213e+004,-2.08559715932261e+001,-3.32431140633839e-001

2.08493152168224e+004,-2.08559770767259e+001,-3.37070537535131e-001

2.11403608112276e+004,-2.08559827139947e+001,-3.41774648469343e-001

2.14354692507258e+004,-2.08559885093331e+001,-3.46544374715025e-001

2.17346972505211e+004,-2.08559944671615e+001,-3.51380630043244e-001

2.20381023175322e+004,-2.08560005920233e+001,-3.56284340887687e-001

2.23457427614443e+004,-2.08560068885877e+001,-3.61256446520640e-001

2.26576777059159e+004,-2.08560133616543e+001,-3.66297899223952e-001

2.29739670999406e+004,-2.08560200161556e+001,-3.71409664470313e-001

2.32946717293690e+004,-2.08560268571614e+001,-3.76592721099141e-001

2.36198532285905e+004,-2.08560338898821e+001,-3.81848061502183e-001

2.39495740923785e+004,-2.08560411196727e+001,-3.87176691806997e-001

2.42838976879009e+004,-2.08560485520369e+001,-3.92579632060891e-001

2.46228882668982e+004,-2.08560561926309e+001,-3.98057916425021e-001

2.49666109780322e+004,-2.08560640472678e+001,-4.03612593361383e-001

2.53151318794055e+004,-2.08560721219218e+001,-4.09244725830245e-001

2.56685179512580e+004,-2.08560804227327e+001,-4.14955391483689e-001

2.60268371088386e+004,-2.08560889560100e+001,-4.20745682868288e-001

2.63901582154578e+004,-2.08560977282380e+001,-4.26616707624109e-001

2.67585510957221e+004,-2.08561067460807e+001,-4.32569588688370e-001

2.71320865489533e+004,-2.08561160163859e+001,-4.38605464503768e-001

2.75108363627948e+004,-2.08561255461908e+001,-4.44725489228370e-001

2.78948733270080e+004,-2.08561353427275e+001,-4.50930832943839e-001

2.82842712474618e+004,-2.08561454134269e+001,-4.57222681876151e-001

2.86791049603164e+004,-2.08561557659259e+001,-4.63602238605103e-001

2.90794503464061e+004,-2.08561664080715e+001,-4.70070722292037e-001

2.94853843458219e+004,-2.08561773479272e+001,-4.76629368897566e-001

2.98969849726987e+004,-2.08561885937788e+001,-4.83279431406991e-001

3.03143313302078e+004,-2.08562001541401e+001,-4.90022180062347e-001

3.07375036257601e+004,-2.08562120377596e+001,-4.96858902588390e-001

3.11665831864199e+004,-2.08562242536257e+001,-5.03790904432215e-001

3.16016524745350e+004,-2.08562368109747e+001,-5.10819508993571e-001

3.20427951035848e+004,-2.08562497192962e+001,-5.17946057868794e-001

3.24900958542493e+004,-2.08562629883403e+001,-5.25171911092778e-001

3.29436406907028e+004,-2.08562766281249e+001,-5.32498447381699e-001

3.34035167771346e+004,-2.08562906489423e+001,-5.39927064384868e-001

3.38698124945009e+004,-2.08563050613669e+001,-5.47459178932149e-001

3.43426174575100e+004,-2.08563198762626e+001,-5.55096227292103e-001

3.48220225318448e+004,-2.08563351047903e+001,-5.62839665426290e-001

3.53081198516260e+004,-2.08563507584162e+001,-5.70690969250597e-001

3.58010028371187e+004,-2.08563668489197e+001,-5.78651634897793e-001

3.63007662126863e+004,-2.08563833884016e+001,-5.86723178984668e-001

3.68075060249948e+004,-2.08564003892925e+001,-5.94907138881780e-001

3.73213196614721e+004,-2.08564178643618e+001,-6.03205072984525e-001

3.78423058690237e+004,-2.08564358267266e+001,-6.11618560989162e-001

3.83705647730104e+004,-2.08564542898605e+001,-6.20149204172036e-001

3.89061978964912e+004,-2.08564732676032e+001,-6.28798625671146e-001

3.94493081797342e+004,-2.08564927741701e+001,-6.37568470771157e-001

3.99999999999998e+004,-2.08565128241620e+001,-6.46460407191550e-001

4.05583791916010e+004,-2.08565334325754e+001,-6.55476125377173e-001

4.11245530662425e+004,-2.08565546148121e+001,-6.64617338794701e-001

4.16986304336447e+004,-2.08565763866905e+001,-6.73885784228217e-001

4.22807216224550e+004,-2.08565987644562e+001,-6.83283222081611e-001

4.28709385014515e+004,-2.08566217647924e+001,-6.92811436682484e-001

4.34693945010421e+004,-2.08566454048323e+001,-7.02472236588277e-001

4.40762046350642e+004,-2.08566697021695e+001,-7.12267454899004e-001

4.46914855228886e+004,-2.08566946748704e+001,-7.22198949570367e-001

4.53153554118317e+004,-2.08567203414863e+001,-7.32268603729223e-001

4.59479341998812e+004,-2.08567467210653e+001,-7.42478325997577e-001

4.65893434587380e+004,-2.08567738331656e+001,-7.52830050812362e-001

4.72397064571810e+004,-2.08568016978678e+001,-7.63325738754844e-001

4.78991481847569e+004,-2.08568303357885e+001,-7.73967376879427e-001

4.85677953758016e+004,-2.08568597680930e+001,-7.84756979049005e-001

4.92457765337964e+004,-2.08568900165103e+001,-7.95696586270062e-001

4.99332219560642e+004,-2.08569211033461e+001,-8.06788267031251e-001

5.06302637588109e+004,-2.08569530514977e+001,-8.18034117650558e-001

5.13370359025159e+004,-2.08569858844684e+001,-8.29436262617412e-001

5.20536742176771e+004,-2.08570196263824e+001,-8.40996854946165e-001

5.27803164309155e+004,-2.08570543020007e+001,-8.52718076524709e-001

5.35171021914442e+004,-2.08570899367357e+001,-8.64602138475114e-001

5.42641730979066e+004,-2.08571265566676e+001,-8.76651281509304e-001

5.50216727255895e+004,-2.08571641885610e+001,-8.88867776292372e-001

5.57897466540159e+004,-2.08572028598807e+001,-9.01253923809237e-001

5.65685424949235e+004,-2.08572425988089e+001,-9.13812055731729e-001

5.73582099206328e+004,-2.08572834342624e+001,-9.26544534791306e-001

5.81589006928121e+004,-2.08573253959098e+001,-9.39453755153818e-001

5.89707686916437e+004,-2.08573685141898e+001,-9.52542142796212e-001

5.97939699453972e+004,-2.08574128203289e+001,-9.65812155888851e-001

6.06286626604156e+004,-2.08574583463598e+001,-9.79266285178942e-001

6.14750072515201e+004,-2.08575051251408e+001,-9.92907054376443e-001

6.23331663728396e+004,-2.08575531903740e+001,-1.00673702054515e+000

6.32033049490698e+004,-2.08576025766253e+001,-1.02075877449471e+000

6.40855902071694e+004,-2.08576533193441e+001,-1.03497494117517e+000

6.49801917084985e+004,-2.08577054548831e+001,-1.04938818007701e+000

6.58872813814055e+004,-2.08577590205188e+001,-1.06400118563030e+000

6.68070335542691e+004,-2.08578140544722e+001,-1.07881668760963e+000

6.77396249890018e+004,-2.08578705959294e+001,-1.09383745154068e+000

6.86852349150199e+004,-2.08579286850635e+001,-1.10906627910701e+000

6.96440450636895e+004,-2.08579883630556e+001,-1.12450600856454e+000

7.06162397032520e+004,-2.08580496721168e+001,-1.14015951515385e+000

7.16020056742374e+004,-2.08581126555103e+001,-1.15602971151631e+000

7.26015324253724e+004,-2.08581773575738e+001,-1.17211954811404e+000

7.36150120499896e+004,-2.08582438237422e+001,-1.18843201365109e+000

7.46426393229441e+004,-2.08583121005703e+001,-1.20497013549535e+000

7.56846117380472e+004,-2.08583822357559e+001,-1.22173698010651e+000

7.67411295460207e+004,-2.08584542781631e+001,-1.23873565346266e+000

7.78123957929823e+004,-2.08585282778464e+001,-1.25596930148870e+000

7.88986163594682e+004,-2.08586042860733e+001,-1.27344111049251e+000

7.99999999999995e+004,-2.08586823553494e+001,-1.29115430759366e+000

8.11167583832018e+004,-2.08587625394415e+001,-1.30911216116396e+000

8.22491061324848e+004,-2.08588448934025e+001,-1.32731798126123e+000

8.33972608672892e+004,-2.08589294735948e+001,-1.34577512007200e+000

8.45614432449099e+004,-2.08590163377160e+001,-1.36448697234964e+000

8.57418770029029e+004,-2.08591055448221e+001,-1.38345697586011e+000

8.69387890020841e+004,-2.08591971553526e+001,-1.40268861182382e+000

8.81524092701283e+004,-2.08592912311549e+001,-1.42218540536275e+000

8.93829710457770e+004,-2.08593878355090e+001,-1.44195092594804e+000

9.06307108236633e+004,-2.08594870331514e+001,-1.46198878784838e+000

9.18958683997622e+004,-2.08595888903002e+001,-1.48230265058034e+000

9.31786869174758e+004,-2.08596934746785e+001,-1.50289621935973e+000

9.44794129143618e+004,-2.08598008555393e+001,-1.52377324555528e+000

9.57982963695136e+004,-2.08599111036889e+001,-1.54493752714191e+000

9.71355907516031e+004,-2.08600242915105e+001,-1.56639290915586e+000

9.84915530675926e+004,-2.08601404929879e+001,-1.58814328415304e+000

9.98664439121282e+004,-2.08602597837284e+001,-1.61019259266498e+000

1.01260527517622e+005,-2.08603822409852e+001,-1.63254482365910e+000

1.02674071805032e+005,-2.08605079436801e+001,-1.65520401499856e+000

1.04107348435354e+005,-2.08606369724248e+001,-1.67817425390343e+000

1.05560632861831e+005,-2.08607694095424e+001,-1.70145967741482e+000

1.07034204382888e+005,-2.08609053390877e+001,-1.72506447285837e+000

1.08528346195813e+005,-2.08610448468675e+001,-1.74899287830936e+000

1.10043345451179e+005,-2.08611880204594e+001,-1.77324918306033e+000

1.11579493308032e+005,-2.08613349492305e+001,-1.79783772809047e+000

1.13137084989847e+005,-2.08614857243546e+001,-1.82276290653440e+000

1.14716419841265e+005,-2.08616404388293e+001,-1.84802916415580e+000

1.16317801385624e+005,-2.08617991874911e+001,-1.87364099982128e+000

1.17941537383287e+005,-2.08619620670300e+001,-1.89960296597577e+000

1.19587939890794e+005,-2.08621291760028e+001,-1.92591966912279e+000

1.21257325320831e+005,-2.08623006148452e+001,-1.95259577030471e+000

1.22950014503040e+005,-2.08624764858824e+001,-1.97963598558784e+000

1.24666332745679e+005,-2.08626568933384e+001,-2.00704508654888e+000

1.26406609898139e+005,-2.08628419433437e+001,-2.03482790076631e+000

1.28171180414339e+005,-2.08630317439412e+001,-2.06298931231575e+000

1.29960383416997e+005,-2.08632264050909e+001,-2.09153426226786e+000

1.31774562762811e+005,-2.08634260386719e+001,-2.12046774919353e+000

1.33614067108538e+005,-2.08636307584841e+001,-2.14979482967100e+000

1.35479249978003e+005,-2.08638406802453e+001,-2.17952061880238e+000

1.37370469830040e+005,-2.08640559215890e+001,-2.20965029073317e+000

1.39288090127379e+005,-2.08642766020580e+001,-2.24018907918135e+000

1.41232479406504e+005,-2.08645028430964e+001,-2.27114227797168e+000

1.43204011348474e+005,-2.08647347680391e+001,-2.30251524158020e+000

1.45203064850745e+005,-2.08649725020988e+001,-2.33431338568724e+000

1.47230024099979e+005,-2.08652161723504e+001,-2.36654218773888e+000

1.49285278645888e+005,-2.08654659077122e+001,-2.39920718752291e+000

1.51369223476094e+005,-2.08657218389246e+001,-2.43231398775149e+000

1.53482259092041e+005,-2.08659840985263e+001,-2.46586825466186e+000

1.55624791585964e+005,-2.08662528208262e+001,-2.49987571862679e+000

1.57797232718936e+005,-2.08665281418734e+001,-2.53434217478260e+000

1.59999999999999e+005,-2.08668101994231e+001,-2.56927348367269e+000

1.62233516766403e+005,-2.08670991328997e+001,-2.60467557190832e+000

1.64498212264969e+005,-2.08673950833558e+001,-2.64055443284924e+000

1.66794521734578e+005,-2.08676981934285e+001,-2.67691612730456e+000

1.69122886489819e+005,-2.08680086072916e+001,-2.71376678425447e+000

1.71483754005805e+005,-2.08683264706039e+001,-2.75111260159756e+000

1.73877578004168e+005,-2.08686519304544e+001,-2.78895984692184e+000

1.76304818540256e+005,-2.08689851353034e+001,-2.82731485830420e+000

1.78765942091554e+005,-2.08693262349194e+001,-2.86618404513666e+000

1.81261421647326e+005,-2.08696753803131e+001,-2.90557388898641e+000

1.83791736799524e+005,-2.08700327236663e+001,-2.94549094448636e+000

1.86357373834951e+005,-2.08703984182578e+001,-2.98594184026235e+000

1.88958825828723e+005,-2.08707726183855e+001,-3.02693327989519e+000

1.91596592739027e+005,-2.08711554792835e+001,-3.06847204292562e+000

1.94271181503206e+005,-2.08715471570368e+001,-3.11056498589718e+000

1.96983106135185e+005,-2.08719478084914e+001,-3.15321904344560e+000

1.99732887824256e+005,-2.08723575911606e+001,-3.19644122943446e+000

2.02521055035243e+005,-2.08727766631282e+001,-3.24023863813849e+000

2.05348143610063e+005,-2.08732051829479e+001,-3.28461844548036e+000

2.08214696870707e+005,-2.08736433095392e+001,-3.32958791031952e+000

2.11121265723661e+005,-2.08740912020805e+001,-3.37515437580015e+000

2.14068408765776e+005,-2.08745490198987e+001,-3.42132527075638e+000

2.17056692391625e+005,-2.08750169223559e+001,-3.46810811118205e+000

2.20086690902357e+005,-2.08754950687344e+001,-3.51551050176306e+000

2.23158986616063e+005,-2.08759836181184e+001,-3.56354013747885e+000

2.26274169979693e+005,-2.08764827292737e+001,-3.61220480527480e+000

2.29432839682530e+005,-2.08769925605264e+001,-3.66151238580551e+000

2.32635602771247e+005,-2.08775132696396e+001,-3.71147085525624e+000

2.35883074766574e+005,-2.08780450136890e+001,-3.76208828724279e+000

2.39175879781588e+005,-2.08785879489385e+001,-3.81337285478965e+000

2.42514650641661e+005,-2.08791422307151e+001,-3.86533283239536e+000

2.45900029006080e+005,-2.08797080132844e+001,-3.91797659818226e+000

2.49332665491357e+005,-2.08802854497268e+001,-3.97131263613408e+000

2.52813219796278e+005,-2.08808746918151e+001,-4.02534953842585e+000

2.56342360828676e+005,-2.08814758898943e+001,-4.08009600784487e+000

2.59920766833993e+005,-2.08820891927632e+001,-4.13556086030840e+000

2.63549125525621e+005,-2.08827147475602e+001,-4.19175302747590e+000

2.67228134217075e+005,-2.08833526996522e+001,-4.24868155946117e+000

2.70958499956006e+005,-2.08840031925283e+001,-4.30635562764293e+000

2.74740939660078e+005,-2.08846663676991e+001,-4.36478452757586e+000

2.78576180254757e+005,-2.08853423646010e+001,-4.42397768200573e+000

2.82464958813007e+005,-2.08860313205088e+001,-4.48394464398372e+000

2.86408022696948e+005,-2.08867333704548e+001,-4.54469510008552e+000

2.90406129701488e+005,-2.08874486471563e+001,-4.60623887373316e+000

2.94460048199957e+005,-2.08881772809536e+001,-4.66858592861923e+000

2.98570557291775e+005,-2.08889193997563e+001,-4.73174637223288e+000

3.02738446952187e+005,-2.08896751290025e+001,-4.79573045948813e+000

3.06964518184081e+005,-2.08904445916285e+001,-4.86054859645110e+000

3.11249583171928e+005,-2.08912279080515e+001,-4.92621134416742e+000

3.15594465437872e+005,-2.08920251961669e+001,-4.99272942258446e+000

3.19999999999997e+005,-2.08928365713592e+001,-5.06011371456784e+000

3.24467033532806e+005,-2.08936621465282e+001,-5.12837527001156e+000

3.28996424529938e+005,-2.08945020321327e+001,-5.19752531003319e+000

3.33589043469155e+005,-2.08953563362498e+001,-5.26757523125639e+000

3.38245772979638e+005,-2.08962251646536e+001,-5.33853661017235e+000

3.42967508011610e+005,-2.08971086209117e+001,-5.41042120757917e+000

3.47755156008335e+005,-2.08980068065017e+001,-5.48324097309179e+000

3.52609637080511e+005,-2.08989198209484e+001,-5.55700804971837e+000

3.57531884183106e+005,-2.08998477619809e+001,-5.63173477849815e+000

3.62522843294651e+005,-2.09007907257131e+001,-5.70743370319477e+000

3.67583473599047e+005,-2.09017488068446e+001,-5.78411757503702e+000

3.72714747669902e+005,-2.09027220988863e+001,-5.86179935750274e+000

3.77917651657445e+005,-2.09037106944079e+001,-5.94049223113891e+000

3.83193185478053e+005,-2.09047146853101e+001,-6.02020959840796e+000

3.88542363006410e+005,-2.09057341631211e+001,-6.10096508855668e+000

3.93966212270369e+005,-2.09067692193165e+001,-6.18277256249774e+000

3.99465775648511e+005,-2.09078199456652e+001,-6.26564611769642e+000

4.05042110070485e+005,-2.09088864345996e+001,-6.34960009305496e+000

4.10696287220124e+005,-2.09099687796106e+001,-6.43464907378640e+000

4.16429393741414e+005,-2.09110670756680e+001,-6.52080789626924e+000

4.22242531447321e+005,-2.09121814196652e+001,-6.60809165287538e+000

4.28136817531551e+005,-2.09133119108888e+001,-6.69651569676334e+000

4.34113384783250e+005,-2.09144586515131e+001,-6.78609564662707e+000

4.40173381804713e+005,-2.09156217471179e+001,-6.87684739139424e+000

4.46317973232124e+005,-2.09168013072304e+001,-6.96878709486595e+000

4.52548339959385e+005,-2.09179974458896e+001,-7.06193120028803e+000

4.58865679365059e+005,-2.09192102822348e+001,-7.15629643484962e+000

4.65271205542494e+005,-2.09204399411139e+001,-7.25189981409895e+000

4.71766149533147e+005,-2.09216865537142e+001,-7.34875864627206e+000

4.78351759563174e+005,-2.09229502582133e+001,-7.44689053652537e+000

4.85029301283321e+005,-2.09242312004493e+001,-7.54631339106894e+000

4.91800058012158e+005,-2.09255295346090e+001,-7.64704542119206e+000

4.98665330982714e+005,-2.09268454239349e+001,-7.74910514717682e+000

5.05626439592555e+005,-2.09281790414472e+001,-7.85251140209685e+000

5.12684721657352e+005,-2.09295305706821e+001,-7.95728333549411e+000

5.19841533667984e+005,-2.09309002064440e+001,-8.06344041693210e+000

5.27098251051240e+005,-2.09322881555711e+001,-8.17100243942181e+000

5.34456268434150e+005,-2.09336946377121e+001,-8.27998952271838e+000

5.41916999912011e+005,-2.09351198861149e+001,-8.39042211648610e+000

