Freq.,VOut,OutRef

1.00000000000000e+004,-1.60921890180312e+001,-1.45802590565018e-001

1.01395947979003e+004,-1.60921899865099e+001,-1.47837809167298e-001

1.02811382665607e+004,-1.60921909821980e+001,-1.49901433706835e-001

1.04246576084112e+004,-1.60921920058598e+001,-1.51993860515290e-001

1.05701804056138e+004,-1.60921930582803e+001,-1.54115491454510e-001

1.07177346253629e+004,-1.60921941402672e+001,-1.56266733981445e-001

1.08673486252606e+004,-1.60921952526501e+001,-1.58448001237925e-001

1.10190511587661e+004,-1.60921963962828e+001,-1.60659712116514e-001

1.11728713807222e+004,-1.60921975720419e+001,-1.62902291355062e-001

1.13288388529580e+004,-1.60921987808296e+001,-1.65176169602585e-001

1.14869835499703e+004,-1.60922000235728e+001,-1.67481783515326e-001

1.16473358646846e+004,-1.60922013012244e+001,-1.69819575830608e-001

1.18099266142953e+004,-1.60922026147641e+001,-1.72189995454988e-001

1.19747870461893e+004,-1.60922039651994e+001,-1.74593497549038e-001

1.21419488439505e+004,-1.60922053535653e+001,-1.77030543615373e-001

1.23114441334492e+004,-1.60922067809264e+001,-1.79501601584241e-001

1.24833054890161e+004,-1.60922082483768e+001,-1.82007145906116e-001

1.26575659397028e+004,-1.60922097570414e+001,-1.84547657638873e-001

1.28342589756290e+004,-1.60922113080763e+001,-1.87123624542051e-001

1.30134185544193e+004,-1.60922129026706e+001,-1.89735541165204e-001

1.31950791077289e+004,-1.60922145420458e+001,-1.92383908949563e-001

1.33792755478611e+004,-1.60922162274584e+001,-1.95069236316699e-001

1.35660432744767e+004,-1.60922179601996e+001,-1.97792038767940e-001

1.37554181813974e+004,-1.60922197415970e+001,-2.00552838982493e-001

1.39474366635040e+004,-1.60922215730150e+001,-2.03352166917707e-001

1.41421356237309e+004,-1.60922234558566e+001,-2.06190559907467e-001

1.43395524801583e+004,-1.60922253915638e+001,-2.09068562766543e-001

1.45397251732031e+004,-1.60922273816189e+001,-2.11986727892716e-001

1.47426921729110e+004,-1.60922294275455e+001,-2.14945615374324e-001

1.49484924863494e+004,-1.60922315309105e+001,-2.17945793090324e-001

1.51571656651040e+004,-1.60922336933238e+001,-2.20987836826043e-001

1.53687518128801e+004,-1.60922359164404e+001,-2.24072330379450e-001

1.55832915932100e+004,-1.60922382019624e+001,-2.27199865666384e-001

1.58008262372675e+004,-1.60922405516383e+001,-2.30371042843325e-001

1.60213975517924e+004,-1.60922429672662e+001,-2.33586470411568e-001

1.62450479271247e+004,-1.60922454506940e+001,-2.36846765339938e-001

1.64718203453514e+004,-1.60922480038217e+001,-2.40152553174323e-001

1.67017583885674e+004,-1.60922506286019e+001,-2.43504468162991e-001

1.69349062472505e+004,-1.60922533270418e+001,-2.46903153372909e-001

1.71713087287550e+004,-1.60922561012048e+001,-2.50349260812187e-001

1.74110112659224e+004,-1.60922589532118e+001,-2.53843451552705e-001

1.76540599258131e+004,-1.60922618852428e+001,-2.57386395856754e-001

1.79005014185594e+004,-1.60922648995388e+001,-2.60978773301917e-001

1.81503831063432e+004,-1.60922679984029e+001,-2.64621272911280e-001

1.84037530124975e+004,-1.60922711842027e+001,-2.68314593281691e-001

1.86606598307361e+004,-1.60922744593719e+001,-2.72059442715947e-001

1.89211529345119e+004,-1.60922778264117e+001,-2.75856539357068e-001

1.91852823865052e+004,-1.60922812878933e+001,-2.79706611324009e-001

1.94530989482457e+004,-1.60922848464594e+001,-2.83610396846905e-001

1.97246540898671e+004,-1.60922885048261e+001,-2.87568644407365e-001

1.99999999999999e+004,-1.60922922657856e+001,-2.91582112879481e-001

2.02791895958005e+004,-1.60922961322072e+001,-2.95651571672380e-001

2.05622765331213e+004,-1.60923001070404e+001,-2.99777800874804e-001

2.08493152168224e+004,-1.60923041933168e+001,-3.03961591400987e-001

2.11403608112276e+004,-1.60923083941519e+001,-3.08203745139459e-001

2.14354692507258e+004,-1.60923127127483e+001,-3.12505075104571e-001

2.17346972505211e+004,-1.60923171523972e+001,-3.16866405586763e-001

2.20381023175322e+004,-1.60923217164814e+001,-3.21288572308869e-001

2.23457427614443e+004,-1.60923264084779e+001,-3.25772422580306e-001

2.26576777059159e+004,-1.60923312319597e+001,-3.30318815459423e-001

2.29739670999406e+004,-1.60923361905992e+001,-3.34928621910297e-001

2.32946717293690e+004,-1.60923412881708e+001,-3.39602724965177e-001

2.36198532285905e+004,-1.60923465285534e+001,-3.44342019894494e-001

2.39495740923785e+004,-1.60923519157336e+001,-3.49147414366129e-001

2.42838976879009e+004,-1.60923574538081e+001,-3.54019828621814e-001

2.46228882668982e+004,-1.60923631469874e+001,-3.58960195642700e-001

2.49666109780322e+004,-1.60923689995985e+001,-3.63969461326642e-001

2.53151318794055e+004,-1.60923750160881e+001,-3.69048584661372e-001

2.56685179512580e+004,-1.60923812010259e+001,-3.74198537904718e-001

2.60268371088386e+004,-1.60923875591079e+001,-3.79420306763355e-001

2.63901582154578e+004,-1.60923940951599e+001,-3.84714890575403e-001

2.67585510957221e+004,-1.60924008141412e+001,-3.90083302496436e-001

2.71320865489533e+004,-1.60924077211475e+001,-3.95526569686671e-001

2.75108363627948e+004,-1.60924148214159e+001,-4.01045733497946e-001

2.78948733270080e+004,-1.60924221203269e+001,-4.06641849671825e-001

2.82842712474618e+004,-1.60924296234103e+001,-4.12315988526159e-001

2.86791049603164e+004,-1.60924373363477e+001,-4.18069235158762e-001

2.90794503464061e+004,-1.60924452649772e+001,-4.23902689643527e-001

2.94853843458219e+004,-1.60924534152975e+001,-4.29817467234094e-001

2.98969849726987e+004,-1.60924617934723e+001,-4.35814698566824e-001

3.03143313302078e+004,-1.60924704058349e+001,-4.41895529866935e-001

3.07375036257601e+004,-1.60924792588922e+001,-4.48061123162255e-001

3.11665831864199e+004,-1.60924883593299e+001,-4.54312656490762e-001

3.16016524745350e+004,-1.60924977140170e+001,-4.60651324118814e-001

3.20427951035848e+004,-1.60925073300107e+001,-4.67078336756333e-001

3.24900958542493e+004,-1.60925172145615e+001,-4.73594921779009e-001

3.29436406907028e+004,-1.60925273751186e+001,-4.80202323447709e-001

3.34035167771346e+004,-1.60925378193343e+001,-4.86901803139274e-001

3.38698124945009e+004,-1.60925485550707e+001,-4.93694639569163e-001

3.43426174575100e+004,-1.60925595904039e+001,-5.00582129027353e-001

3.48220225318448e+004,-1.60925709336309e+001,-5.07565585607167e-001

3.53081198516260e+004,-1.60925825932744e+001,-5.14646341447637e-001

3.58010028371187e+004,-1.60925945780894e+001,-5.21825746967467e-001

3.63007662126863e+004,-1.60926068970690e+001,-5.29105171111012e-001

3.68075060249948e+004,-1.60926195594508e+001,-5.36486001591439e-001

3.73213196614721e+004,-1.60926325747231e+001,-5.43969645140087e-001

3.78423058690237e+004,-1.60926459526320e+001,-5.51557527755511e-001

3.83705647730104e+004,-1.60926597031872e+001,-5.59251094958576e-001

3.89061978964912e+004,-1.60926738366698e+001,-5.67051812049284e-001

3.94493081797342e+004,-1.60926883636386e+001,-5.74961164366732e-001

3.99999999999998e+004,-1.60927032949379e+001,-5.82980657549580e-001

4.05583791916010e+004,-1.60927186417043e+001,-5.91111817804540e-001

4.11245530662425e+004,-1.60927344153748e+001,-5.99356192173100e-001

4.16986304336447e+004,-1.60927506276940e+001,-6.07715348803907e-001

4.22807216224550e+004,-1.60927672907225e+001,-6.16190877226864e-001

4.28709385014515e+004,-1.60927844168444e+001,-6.24784388631358e-001

4.34693945010421e+004,-1.60928020187760e+001,-6.33497516147738e-001

4.40762046350642e+004,-1.60928201095740e+001,-6.42331915129406e-001

4.46914855228886e+004,-1.60928387026445e+001,-6.51289263440131e-001

4.53153554118317e+004,-1.60928578117511e+001,-6.60371261745937e-001

4.59479341998812e+004,-1.60928774510247e+001,-6.69579633804878e-001

4.65893434587380e+004,-1.60928976349721e+001,-6.78916126766909e-001

4.72397064571810e+004,-1.60929183784857e+001,-6.88382511469544e-001

4.78991481847569e+004,-1.60929396968530e+001,-6.97980582743811e-001

4.85677953758016e+004,-1.60929616057664e+001,-7.07712159716931e-001

4.92457765337964e+004,-1.60929841213336e+001,-7.17579086121792e-001

4.99332219560642e+004,-1.60930072600870e+001,-7.27583230609666e-001

5.06302637588109e+004,-1.60930310389948e+001,-7.37726487063482e-001

5.13370359025159e+004,-1.60930554754713e+001,-7.48010774918408e-001

5.20536742176771e+004,-1.60930805873881e+001,-7.58438039479140e-001

5.27803164309155e+004,-1.60931063930845e+001,-7.69010252247978e-001

5.35171021914442e+004,-1.60931329113796e+001,-7.79729411251041e-001

5.42641730979066e+004,-1.60931601615830e+001,-7.90597541366661e-001

5.50216727255895e+004,-1.60931881635072e+001,-8.01616694661601e-001

5.57897466540159e+004,-1.60932169374787e+001,-8.12788950727446e-001

5.65685424949235e+004,-1.60932465043511e+001,-8.24116417019205e-001

5.73582099206328e+004,-1.60932768855166e+001,-8.35601229199126e-001

5.81589006928121e+004,-1.60933081029190e+001,-8.47245551482643e-001

5.89707686916437e+004,-1.60933401790663e+001,-8.59051576987065e-001

5.97939699453972e+004,-1.60933731370440e+001,-8.71021528082806e-001

6.06286626604156e+004,-1.60934070005275e+001,-8.83157656751270e-001

6.14750072515201e+004,-1.60934417937965e+001,-8.95462244939478e-001

6.23331663728396e+004,-1.60934775417483e+001,-9.07937604923061e-001

6.32033049490698e+004,-1.60935142699108e+001,-9.20586079670744e-001

6.40855902071694e+004,-1.60935520044580e+001,-9.33410043209265e-001

6.49801917084985e+004,-1.60935907722227e+001,-9.46411900995795e-001

6.58872813814055e+004,-1.60936306007121e+001,-9.59594090287727e-001

6.68070335542691e+004,-1.60936715181217e+001,-9.72959080521831e-001

6.77396249890018e+004,-1.60937135533503e+001,-9.86509373688789e-001

6.86852349150199e+004,-1.60937567360149e+001,-1.00024750471848e+000

6.96440450636895e+004,-1.60938010964659e+001,-1.01417604186033e+000

7.06162397032520e+004,-1.60938466658023e+001,-1.02829758707206e+000

7.16020056742374e+004,-1.60938934758872e+001,-1.04261477640885e+000

7.26015324253724e+004,-1.60939415593633e+001,-1.05713028041596e+000

7.36150120499896e+004,-1.60939909496686e+001,-1.07184680452163e+000

7.46426393229441e+004,-1.60940416810522e+001,-1.08676708943623e+000

7.56846117380472e+004,-1.60940937885907e+001,-1.10189391155088e+000

7.67411295460207e+004,-1.60941473082033e+001,-1.11723008334050e+000

7.78123957929823e+004,-1.60942022766687e+001,-1.13277845376935e+000

7.88986163594682e+004,-1.60942587316412e+001,-1.14854190869592e+000

7.99999999999995e+004,-1.60943167116665e+001,-1.16452337128565e+000

8.11167583832018e+004,-1.60943762561985e+001,-1.18072580241978e+000

8.22491061324848e+004,-1.60944374056150e+001,-1.19715220111281e+000

8.33972608672892e+004,-1.60945002012345e+001,-1.21380560492660e+000

8.45614432449099e+004,-1.60945646853323e+001,-1.23068909039060e+000

8.57418770029029e+004,-1.60946309011566e+001,-1.24780577342178e+000

8.69387890020841e+004,-1.60946988929447e+001,-1.26515880974936e+000

8.81524092701283e+004,-1.60947687059387e+001,-1.28275139533902e+000

8.93829710457770e+004,-1.60948403864022e+001,-1.30058676682033e+000

9.06307108236633e+004,-1.60949139816352e+001,-1.31866820191688e+000

9.18958683997622e+004,-1.60949895399899e+001,-1.33699901987767e+000

9.31786869174758e+004,-1.60950671108864e+001,-1.35558258190985e+000

9.44794129143618e+004,-1.60951467448273e+001,-1.37442229161577e+000

9.57982963695136e+004,-1.60952284934128e+001,-1.39352159542984e+000

9.71355907516031e+004,-1.60953124093548e+001,-1.41288398305821e+000

9.84915530675926e+004,-1.60953985464914e+001,-1.43251298792080e+000

9.98664439121282e+004,-1.60954869598002e+001,-1.45241218759465e+000

1.01260527517622e+005,-1.60955777054119e+001,-1.47258520425919e+000

1.02674071805032e+005,-1.60956708406226e+001,-1.49303570514555e+000

1.04107348435354e+005,-1.60957664239063e+001,-1.51376740298452e+000

1.05560632861831e+005,-1.60958645149262e+001,-1.53478405646044e+000

1.07034204382888e+005,-1.60959651745456e+001,-1.55608947066399e+000

1.08528346195813e+005,-1.60960684648384e+001,-1.57768749754941e+000

1.10043345451179e+005,-1.60961744490980e+001,-1.59958203639340e+000

1.11579493308032e+005,-1.60962831918465e+001,-1.62177703425645e+000

1.13137084989847e+005,-1.60963947588417e+001,-1.64427648644654e+000

1.14716419841265e+005,-1.60965092170844e+001,-1.66708443698583e+000

1.16317801385624e+005,-1.60966266348236e+001,-1.69020497908028e+000

1.17941537383287e+005,-1.60967470815618e+001,-1.71364225559230e+000

1.19587939890794e+005,-1.60968706280576e+001,-1.73740045951598e+000

1.21257325320831e+005,-1.60969973463283e+001,-1.76148383445734e+000

1.22950014503040e+005,-1.60971273096509e+001,-1.78589667511588e+000

1.24666332745679e+005,-1.60972605925614e+001,-1.81064332777210e+000

1.26406609898139e+005,-1.60973972708526e+001,-1.83572819077880e+000

1.28171180414339e+005,-1.60975374215709e+001,-1.86115571505635e+000

1.29960383416997e+005,-1.60976811230108e+001,-1.88693040459309e+000

1.31774562762811e+005,-1.60978284547081e+001,-1.91305681695200e+000

1.33614067108538e+005,-1.60979794974308e+001,-1.93953956378096e+000

1.35479249978003e+005,-1.60981343331687e+001,-1.96638331133160e+000

1.37370469830040e+005,-1.60982930451207e+001,-1.99359278098416e+000

1.39288090127379e+005,-1.60984557176798e+001,-2.02117274977759e+000

1.41232479406504e+005,-1.60986224364160e+001,-2.04912805095027e+000

1.43204011348474e+005,-1.60987932880572e+001,-2.07746357448828e+000

1.45203064850745e+005,-1.60989683604675e+001,-2.10618426768091e+000

1.47230024099979e+005,-1.60991477426229e+001,-2.13529513568975e+000

1.49285278645888e+005,-1.60993315245846e+001,-2.16480124212426e+000

1.51369223476094e+005,-1.60995197974696e+001,-2.19470770963164e+000

1.53482259092041e+005,-1.60997126534183e+001,-2.22501972049800e+000

1.55624791585964e+005,-1.60999101855600e+001,-2.25574251726298e+000

1.57797232718936e+005,-1.61001124879741e+001,-2.28688140334829e+000

1.59999999999999e+005,-1.61003196556498e+001,-2.31844174370145e+000

1.62233516766403e+005,-1.61005317844417e+001,-2.35042896545679e+000

1.64498212264969e+005,-1.61007489710220e+001,-2.38284855861358e+000

1.66794521734578e+005,-1.61009713128305e+001,-2.41570607673193e+000

1.69122886489819e+005,-1.61011989080205e+001,-2.44900713765053e+000

1.71483754005805e+005,-1.61014318554009e+001,-2.48275742422534e+000

1.73877578004168e+005,-1.61016702543757e+001,-2.51696268509016e+000

1.76304818540256e+005,-1.61019142048797e+001,-2.55162873544280e+000

1.78765942091554e+005,-1.61021638073098e+001,-2.58676145785728e+000

1.81261421647326e+005,-1.61024191624541e+001,-2.62236680312238e+000

1.83791736799524e+005,-1.61026803714162e+001,-2.65845079111143e+000

1.86357373834951e+005,-1.61029475355361e+001,-2.69501951168172e+000

1.88958825828723e+005,-1.61032207563076e+001,-2.73207912560678e+000

1.91596592739027e+005,-1.61035001352919e+001,-2.76963586554549e+000

1.94271181503206e+005,-1.61037857740278e+001,-2.80769603704477e+000

1.96983106135185e+005,-1.61040777739375e+001,-2.84626601958412e+000

1.99732887824256e+005,-1.61043762362298e+001,-2.88535226765894e+000

2.02521055035243e+005,-1.61046812617988e+001,-2.92496131190821e+000

2.05348143610063e+005,-1.61049929511198e+001,-2.96509976028584e+000

2.08214696870707e+005,-1.61053114041416e+001,-3.00577429928125e+000

2.11121265723661e+005,-1.61056367201757e+001,-3.04699169518776e+000

2.14068408765776e+005,-1.61059689977819e+001,-3.08875879542386e+000

2.17056692391625e+005,-1.61063083346512e+001,-3.13108252990858e+000

2.20086690902357e+005,-1.61066548274863e+001,-3.17396991249240e+000

2.23158986616063e+005,-1.61070085718789e+001,-3.21742804244906e+000

2.26274169979693e+005,-1.61073696621845e+001,-3.26146410602590e+000

2.29432839682530e+005,-1.61077381913960e+001,-3.30608537805949e+000

2.32635602771247e+005,-1.61081142510140e+001,-3.35129922365665e+000

2.35883074766574e+005,-1.61084979309170e+001,-3.39711309994328e+000

2.39175879781588e+005,-1.61088893192289e+001,-3.44353455788320e+000

2.42514650641661e+005,-1.61092885021867e+001,-3.49057124416984e+000

2.45900029006080e+005,-1.61096955640070e+001,-3.53823090319257e+000

2.49332665491357e+005,-1.61101105867523e+001,-3.58652137908025e+000

2.52813219796278e+005,-1.61105336501982e+001,-3.63545061782056e+000

2.56342360828676e+005,-1.61109648317000e+001,-3.68502666946440e+000

2.59920766833993e+005,-1.61114042060622e+001,-3.73525769040767e+000

2.63549125525621e+005,-1.61118518454079e+001,-3.78615194576029e+000

2.67228134217075e+005,-1.61123078190518e+001,-3.83771781179838e+000

2.70958499956006e+005,-1.61127721933748e+001,-3.88996377850418e+000

2.74740939660078e+005,-1.61132450317028e+001,-3.94289845219287e+000

2.78576180254757e+005,-1.61137263941889e+001,-3.99653055822726e+000

2.82464958813007e+005,-1.61142163377000e+001,-4.05086894382368e+000

2.86408022696948e+005,-1.61147149157091e+001,-4.10592258094580e+000

2.90406129701488e+005,-1.61152221781926e+001,-4.16170056928897e+000

2.94460048199957e+005,-1.61157381715346e+001,-4.21821213935473e+000

2.98570557291775e+005,-1.61162629384383e+001,-4.27546665561463e+000

3.02738446952187e+005,-1.61167965178448e+001,-4.33347361976344e+000

3.06964518184081e+005,-1.61173389448608e+001,-4.39224267406051e+000

3.11249583171928e+005,-1.61178902506953e+001,-4.45178360475891e+000

3.15594465437872e+005,-1.61184504626061e+001,-4.51210634561999e+000

3.19999999999997e+005,-1.61190196038569e+001,-4.57322098151083e+000

3.24467033532806e+005,-1.61195976936861e+001,-4.63513775208654e+000

3.28996424529938e+005,-1.61201847472867e+001,-4.69786705554913e+000

3.33589043469155e+005,-1.61207807757996e+001,-4.76141945248518e+000

3.38245772979638e+005,-1.61213857863198e+001,-4.82580566977706e+000

3.42967508011610e+005,-1.61219997819164e+001,-4.89103660458409e+000

3.47755156008335e+005,-1.61226227616673e+001,-4.95712332839172e+000

3.52609637080511e+005,-1.61232547207091e+001,-5.02407709112236e+000

3.57531884183106e+005,-1.61238956503021e+001,-5.09190932530615e+000

3.62522843294651e+005,-1.61245455379116e+001,-5.16063165030481e+000

3.67583473599047e+005,-1.61252043673065e+001,-5.23025587658562e+000

3.72714747669902e+005,-1.61258721186737e+001,-5.30079401003869e+000

3.77917651657445e+005,-1.61265487687506e+001,-5.37225825633424e+000

3.83193185478053e+005,-1.61272342909754e+001,-5.44466102531182e+000

3.88542363006410e+005,-1.61279286556548e+001,-5.51801493539778e+000

3.93966212270369e+005,-1.61286318301501e+001,-5.59233281804466e+000

3.99465775648511e+005,-1.61293437790820e+001,-5.66762772218559e+000

4.05042110070485e+005,-1.61300644645531e+001,-5.74391291869798e+000

4.10696287220124e+005,-1.61307938463890e+001,-5.82120190487049e+000

4.16429393741414e+005,-1.61315318823982e+001,-5.89950840886715e+000

4.22242531447321e+005,-1.61322785286497e+001,-5.97884639418078e+000

4.28136817531551e+005,-1.61330337397684e+001,-6.05923006407192e+000

4.34113384783250e+005,-1.61337974692489e+001,-6.14067386598530e+000

4.40173381804713e+005,-1.61345696697867e+001,-6.22319249593650e+000

4.46317973232124e+005,-1.61353502936256e+001,-6.30680090286700e+000

4.52548339959385e+005,-1.61361392929226e+001,-6.39151429295691e+000

4.58865679365059e+005,-1.61369366201279e+001,-6.47734813389297e+000

4.65271205542494e+005,-1.61377422283815e+001,-6.56431815908545e+000

4.71766149533147e+005,-1.61385560719233e+001,-6.65244037182780e+000

4.78351759563174e+005,-1.61393781065181e+001,-6.74173104939675e+000

4.85029301283321e+005,-1.61402082898931e+001,-6.83220674708573e+000

4.91800058012158e+005,-1.61410465821888e+001,-6.92388430216928e+000

4.98665330982714e+005,-1.61418929464204e+001,-7.01678083779391e+000

5.05626439592555e+005,-1.61427473489507e+001,-7.11091376679288e+000

5.12684721657352e+005,-1.61436097599718e+001,-7.20630079542141e+000

5.19841533667984e+005,-1.61444801539966e+001,-7.30295992701060e+000

5.27098251051240e+005,-1.61453585103566e+001,-7.40090946553781e+000

5.34456268434150e+005,-1.61462448137078e+001,-7.50016801911226e+000

5.41916999912011e+005,-1.61471390545411e+001,-7.60075450337617e+000

