Freq.,VOut,OutRef

1.00000000000000e+004,-4.01057531089142e-001,-6.60738746938945e-002

1.01395947979003e+004,-4.01057518018506e-001,-6.69962328520437e-002

1.02811382665607e+004,-4.01057504580643e-001,-6.79314667027376e-002

1.04246576084112e+004,-4.01057490765122e-001,-6.88797559867503e-002

1.05701804056138e+004,-4.01057476561438e-001,-6.98412829530314e-002

1.07177346253629e+004,-4.01057461958693e-001,-7.08162323949937e-002

1.08673486252606e+004,-4.01057446945614e-001,-7.18047916864055e-002

1.10190511587661e+004,-4.01057431510692e-001,-7.28071508163281e-002

1.11728713807222e+004,-4.01057415642274e-001,-7.38235024248801e-002

1.13288388529580e+004,-4.01057399327875e-001,-7.48540418444676e-002

1.14869835499703e+004,-4.01057382555219e-001,-7.58989671311831e-002

1.16473358646846e+004,-4.01057365311383e-001,-7.69584791075629e-002

1.18099266142953e+004,-4.01057347583072e-001,-7.80327813998121e-002

1.19747870461893e+004,-4.01057329356659e-001,-7.91220804768438e-002

1.21419488439505e+004,-4.01057310618285e-001,-8.02265856887899e-002

1.23114441334492e+004,-4.01057291353472e-001,-8.13465093091731e-002

1.24833054890161e+004,-4.01057271547535e-001,-8.24820665747722e-002

1.26575659397028e+004,-4.01057251185304e-001,-8.36334757268602e-002

1.28342589756290e+004,-4.01057230250981e-001,-8.48009580546730e-002

1.30134185544193e+004,-4.01057208728702e-001,-8.59847379348497e-002

1.31950791077289e+004,-4.01057186601949e-001,-8.71850428771210e-002

1.33792755478611e+004,-4.01057163853596e-001,-8.84021035683848e-002

1.35660432744767e+004,-4.01057140466416e-001,-8.96361539143505e-002

1.37554181813974e+004,-4.01057116422244e-001,-9.08874310876980e-002

1.39474366635040e+004,-4.01057091702887e-001,-9.21561755701360e-002

1.41421356237309e+004,-4.01057066289344e-001,-9.34426312021413e-002

1.43395524801583e+004,-4.01057040162011e-001,-9.47470452285230e-002

1.45397251732031e+004,-4.01057013301004e-001,-9.60696683446544e-002

1.47426921729110e+004,-4.01056985685555e-001,-9.74107547469815e-002

1.49484924863494e+004,-4.01056957294829e-001,-9.87705621784830e-002

1.51571656651040e+004,-4.01056928106723e-001,-1.00149351983582e-001

1.53687518128801e+004,-4.01056898099135e-001,-1.01547389152105e-001

1.55832915932100e+004,-4.01056867248969e-001,-1.02964942375375e-001

1.58008262372675e+004,-4.01056835532619e-001,-1.04402284094761e-001

1.60213975517924e+004,-4.01056802925803e-001,-1.05859690555791e-001

1.62450479271247e+004,-4.01056769403473e-001,-1.07337441860354e-001

1.64718203453514e+004,-4.01056734940135e-001,-1.08835822019955e-001

1.67017583885674e+004,-4.01056699509260e-001,-1.10355119012443e-001

1.69349062472505e+004,-4.01056663083773e-001,-1.11895624835496e-001

1.71713087287550e+004,-4.01056625635837e-001,-1.13457635562776e-001

1.74110112659224e+004,-4.01056587136681e-001,-1.15041451402755e-001

1.76540599258131e+004,-4.01056547556988e-001,-1.16647376753512e-001

1.79005014185594e+004,-4.01056506866432e-001,-1.18275720263542e-001

1.81503831063432e+004,-4.01056465033841e-001,-1.19926794890994e-001

1.84037530124975e+004,-4.01056422027209e-001,-1.21600917962797e-001

1.86606598307361e+004,-4.01056377813779e-001,-1.23298411234945e-001

1.89211529345119e+004,-4.01056332359618e-001,-1.25019600957512e-001

1.91852823865052e+004,-4.01056285629991e-001,-1.26764817934279e-001

1.94530989482457e+004,-4.01056237589242e-001,-1.28534397587437e-001

1.97246540898671e+004,-4.01056188200593e-001,-1.30328680022613e-001

1.99999999999999e+004,-4.01056137426334e-001,-1.32148010093162e-001

2.02791895958005e+004,-4.01056085227676e-001,-1.33992737467563e-001

2.05622765331213e+004,-4.01056031564838e-001,-1.35863216695648e-001

2.08493152168224e+004,-4.01055976396613e-001,-1.37759807278531e-001

2.11403608112276e+004,-4.01055919681081e-001,-1.39682873734802e-001

2.14354692507258e+004,-4.01055861374819e-001,-1.41632785673691e-001

2.17346972505211e+004,-4.01055801433431e-001,-1.43609917863780e-001

2.20381023175322e+004,-4.01055739811123e-001,-1.45614650306769e-001

2.23457427614443e+004,-4.01055676460868e-001,-1.47647368309870e-001

2.26576777059159e+004,-4.01055611334333e-001,-1.49708462559647e-001

2.29739670999406e+004,-4.01055544381917e-001,-1.51798329197089e-001

2.32946717293690e+004,-4.01055475552491e-001,-1.53917369894853e-001

2.36198532285905e+004,-4.01055404793683e-001,-1.56065991933093e-001

2.39495740923785e+004,-4.01055332051443e-001,-1.58244608279467e-001

2.42838976879009e+004,-4.01055257270434e-001,-1.60453637666160e-001

2.46228882668982e+004,-4.01055180393696e-001,-1.62693504672714e-001

2.49666109780322e+004,-4.01055101362653e-001,-1.64964639806803e-001

2.53151318794055e+004,-4.01055020117178e-001,-1.67267479586544e-001

2.56685179512580e+004,-4.01054936595356e-001,-1.69602466625914e-001

2.60268371088386e+004,-4.01054850733783e-001,-1.71970049717541e-001

2.63901582154578e+004,-4.01054762467010e-001,-1.74370683921760e-001

2.67585510957221e+004,-4.01054671727895e-001,-1.76804830652492e-001

2.71320865489533e+004,-4.01054578447643e-001,-1.79272957764960e-001

2.75108363627948e+004,-4.01054482555148e-001,-1.81775539649234e-001

2.78948733270080e+004,-4.01054383977672e-001,-1.84313057318030e-001

2.82842712474618e+004,-4.01054282640360e-001,-1.86885998500433e-001

2.86791049603164e+004,-4.01054178466254e-001,-1.89494857736131e-001

2.90794503464061e+004,-4.01054071376297e-001,-1.92140136470561e-001

2.94853843458219e+004,-4.01053961289163e-001,-1.94822343150973e-001

2.98969849726987e+004,-4.01053848121527e-001,-1.97541993323382e-001

3.03143313302078e+004,-4.01053731787448e-001,-2.00299609734451e-001

3.07375036257601e+004,-4.01053612198814e-001,-2.03095722429090e-001

3.11665831864199e+004,-4.01053489265085e-001,-2.05930868853960e-001

3.16016524745350e+004,-4.01053362893169e-001,-2.08805593960704e-001

3.20427951035848e+004,-4.01053232987363e-001,-2.11720450311485e-001

3.24900958542493e+004,-4.01053099449350e-001,-2.14675998183937e-001

3.29436406907028e+004,-4.01052962178268e-001,-2.17672805679229e-001

3.34035167771346e+004,-4.01052821070354e-001,-2.20711448832228e-001

3.38698124945009e+004,-4.01052676018986e-001,-2.23792511722488e-001

3.43426174575100e+004,-4.01052526914558e-001,-2.26916586585918e-001

3.48220225318448e+004,-4.01052373644685e-001,-2.30084273927998e-001

3.53081198516260e+004,-4.01052216093605e-001,-2.33296182641931e-001

3.58010028371187e+004,-4.01052054142572e-001,-2.36552930123604e-001

3.63007662126863e+004,-4.01051887669677e-001,-2.39855142390223e-001

3.68075060249948e+004,-4.01051716549409e-001,-2.43203454203263e-001

3.73213196614721e+004,-4.01051540652985e-001,-2.46598509188596e-001

3.78423058690237e+004,-4.01051359848191e-001,-2.50040959960177e-001

3.83705647730104e+004,-4.01051173998982e-001,-2.53531468247655e-001

3.89061978964912e+004,-4.01050982965896e-001,-2.57070705021329e-001

3.94493081797342e+004,-4.01050786605353e-001,-2.60659350624026e-001

3.99999999999998e+004,-4.01050584770110e-001,-2.64298094899413e-001

4.05583791916010e+004,-4.01050377308818e-001,-2.67987637327038e-001

4.11245530662425e+004,-4.01050164066002e-001,-2.71728687155888e-001

4.16986304336447e+004,-4.01049944882056e-001,-2.75521963540673e-001

4.22807216224550e+004,-4.01049719593006e-001,-2.79368195681406e-001

4.28709385014515e+004,-4.01049488030383e-001,-2.83268122963507e-001

4.34693945010421e+004,-4.01049250021270e-001,-2.87222495099536e-001

4.40762046350642e+004,-4.01049005387946e-001,-2.91232072274616e-001

4.46914855228886e+004,-4.01048753948003e-001,-2.95297625292213e-001

4.53153554118317e+004,-4.01048495514040e-001,-2.99419935723086e-001

4.59479341998812e+004,-4.01048229893736e-001,-3.03599796054828e-001

4.65893434587380e+004,-4.01047956889575e-001,-3.07838009845742e-001

4.72397064571810e+004,-4.01047676298530e-001,-3.12135391880153e-001

4.78991481847569e+004,-4.01047387912302e-001,-3.16492768323657e-001

4.85677953758016e+004,-4.01047091517094e-001,-3.20910976883413e-001

4.92457765337964e+004,-4.01046786893228e-001,-3.25390866969676e-001

4.99332219560642e+004,-4.01046473815226e-001,-3.29933299858963e-001

5.06302637588109e+004,-4.01046152051620e-001,-3.34539148860808e-001

5.13370359025159e+004,-4.01045821364772e-001,-3.39209299485294e-001

5.20536742176771e+004,-4.01045481510755e-001,-3.43944649614251e-001

5.27803164309155e+004,-4.01045132238984e-001,-3.48746109675240e-001

5.35171021914442e+004,-4.01044773292478e-001,-3.53614602814957e-001

5.42641730979066e+004,-4.01044404407347e-001,-3.58551065079162e-001

5.50216727255895e+004,-4.01044025312787e-001,-3.63556445592163e-001

5.57897466540159e+004,-4.01043635730800e-001,-3.68631706740538e-001

5.65685424949235e+004,-4.01043235376077e-001,-3.73777824358390e-001

5.73582099206328e+004,-4.01042823955808e-001,-3.78995787915891e-001

5.81589006928121e+004,-4.01042401169613e-001,-3.84286600709208e-001

5.89707686916437e+004,-4.01041966709177e-001,-3.89651280055560e-001

5.97939699453972e+004,-4.01041520258093e-001,-3.95090857488694e-001

6.06286626604156e+004,-4.01041061491855e-001,-4.00606378957621e-001

6.14750072515201e+004,-4.01040590077313e-001,-4.06198905029548e-001

6.23331663728396e+004,-4.01040105672957e-001,-4.11869511092954e-001

6.32033049490698e+004,-4.01039607928214e-001,-4.17619287567090e-001

6.40855902071694e+004,-4.01039096483591e-001,-4.23449340110990e-001

6.49801917084985e+004,-4.01038570970295e-001,-4.29360789837455e-001

6.58872813814055e+004,-4.01038031010014e-001,-4.35354773530395e-001

6.68070335542691e+004,-4.01037476214948e-001,-4.41432443862133e-001

6.77396249890018e+004,-4.01036906187197e-001,-4.47594969618070e-001

6.86852349150199e+004,-4.01036320518798e-001,-4.53843535922319e-001

6.96440450636895e+004,-4.01035718791408e-001,-4.60179344465215e-001

7.06162397032520e+004,-4.01035100576166e-001,-4.66603613736934e-001

7.16020056742374e+004,-4.01034465433342e-001,-4.73117579261613e-001

7.26015324253724e+004,-4.01033812912155e-001,-4.79722493837525e-001

7.36150120499896e+004,-4.01033142550513e-001,-4.86419627778474e-001

7.46426393229441e+004,-4.01032453874794e-001,-4.93210269158521e-001

7.56846117380472e+004,-4.01031746399537e-001,-5.00095724062751e-001

7.67411295460207e+004,-4.01031019627342e-001,-5.07077316837932e-001

7.78123957929823e+004,-4.01030273048434e-001,-5.14156390350065e-001

7.88986163594682e+004,-4.01029506140518e-001,-5.21334306242903e-001

7.99999999999995e+004,-4.01028718368391e-001,-5.28612445202461e-001

8.11167583832018e+004,-4.01027909183888e-001,-5.35992207222713e-001

8.22491061324848e+004,-4.01027078025540e-001,-5.43475011877406e-001

8.33972608672892e+004,-4.01026224318156e-001,-5.51062298594181e-001

8.45614432449099e+004,-4.01025347472717e-001,-5.58755526933734e-001

8.57418770029029e+004,-4.01024446886107e-001,-5.66556176871063e-001

8.69387890020841e+004,-4.01023521940752e-001,-5.74465749083338e-001

8.81524092701283e+004,-4.01022572004426e-001,-5.82485765238777e-001

8.93829710457770e+004,-4.01021596429846e-001,-5.90617768293429e-001

9.06307108236633e+004,-4.01020594554651e-001,-5.98863322786906e-001

9.18958683997622e+004,-4.01019565700915e-001,-6.07224015147977e-001

9.31786869174758e+004,-4.01018509174868e-001,-6.15701454000481e-001

9.44794129143618e+004,-4.01017424266645e-001,-6.24297270475280e-001

9.57982963695136e+004,-4.01016310250233e-001,-6.33013118525760e-001

9.71355907516031e+004,-4.01015166382830e-001,-6.41850675248456e-001

9.84915530675926e+004,-4.01013991904807e-001,-6.50811641208287e-001

9.98664439121282e+004,-4.01012786039329e-001,-6.59897740767964e-001

1.01260527517622e+005,-4.01011547992245e-001,-6.69110722421416e-001

1.02674071805032e+005,-4.01010276951618e-001,-6.78452359133294e-001

1.04107348435354e+005,-4.01008972087510e-001,-6.87924448683171e-001

1.05560632861831e+005,-4.01007632551869e-001,-6.97528814012215e-001

1.07034204382888e+005,-4.01006257478049e-001,-7.07267303578615e-001

1.08528346195813e+005,-4.01004845980687e-001,-7.17141791715036e-001

1.10043345451179e+005,-4.01003397155476e-001,-7.27154178991537e-001

1.11579493308032e+005,-4.01001910078813e-001,-7.37306392584842e-001

1.13137084989847e+005,-4.01000383807707e-001,-7.47600386651894e-001

1.14716419841265e+005,-4.00998817379290e-001,-7.58038142709138e-001

1.16317801385624e+005,-4.00997209810950e-001,-7.68621670015846e-001

1.17941537383287e+005,-4.00995560099742e-001,-7.79353005965317e-001

1.19587939890794e+005,-4.00993867222577e-001,-7.90234216478452e-001

1.21257325320831e+005,-4.00992130135543e-001,-8.01267396406187e-001

1.22950014503040e+005,-4.00990347774162e-001,-8.12454669934504e-001

1.24666332745679e+005,-4.00988519052943e-001,-8.23798190997442e-001

1.26406609898139e+005,-4.00986642865359e-001,-8.35300143694215e-001

1.28171180414339e+005,-4.00984718083573e-001,-8.46962742713760e-001

1.29960383416997e+005,-4.00982743558331e-001,-8.58788233764184e-001

1.31774562762811e+005,-4.00980718118965e-001,-8.70778894007590e-001

1.33614067108538e+005,-4.00978640573007e-001,-8.82937032503559e-001

1.35479249978003e+005,-4.00976509706338e-001,-8.95264990655820e-001

1.37370469830040e+005,-4.00974324283046e-001,-9.07765142666692e-001

1.39288090127379e+005,-4.00972083045245e-001,-9.20439895998262e-001

1.41232479406504e+005,-4.00969784713216e-001,-9.33291691838557e-001

1.43204011348474e+005,-4.00967427985203e-001,-9.46323005576061e-001

1.45203064850745e+005,-4.00965011537508e-001,-9.59536347279164e-001

1.47230024099979e+005,-4.00962534024484e-001,-9.72934262183016e-001

1.49285278645888e+005,-4.00959994078634e-001,-9.86519331183272e-001

1.51369223476094e+005,-4.00957390310468e-001,-1.00029417133670e+000

1.53482259092041e+005,-4.00954721308792e-001,-1.01426143636846e+000

1.55624791585964e+005,-4.00951985640792e-001,-1.02842381718617e+000

1.57797232718936e+005,-4.00949181852060e-001,-1.04278404240176e+000

1.59999999999999e+005,-4.00946308466746e-001,-1.05734487886042e+000

1.62233516766403e+005,-4.00943363987968e-001,-1.07210913217605e+000

1.64498212264969e+005,-4.00940346897696e-001,-1.08707964727557e+000

1.66794521734578e+005,-4.00937255657218e-001,-1.10225930894909e+000

1.69122886489819e+005,-4.00934088707413e-001,-1.11765104240851e+000

1.71483754005805e+005,-4.00930844468900e-001,-1.13325781385411e+000

1.73877578004168e+005,-4.00927521342428e-001,-1.14908263104853e+000

1.76304818540256e+005,-4.00924117709331e-001,-1.16512854389775e+000

1.78765942091554e+005,-4.00920631931796e-001,-1.18139864504183e+000

1.81261421647326e+005,-4.00917062353285e-001,-1.19789607045245e+000

1.83791736799524e+005,-4.00913407299109e-001,-1.21462400003845e+000

1.86357373834951e+005,-4.00909665076701e-001,-1.23158565826081e+000

1.88958825828723e+005,-4.00905833976339e-001,-1.24878431475458e+000

1.91596592739027e+005,-4.00901912271565e-001,-1.26622328496004e+000

1.94271181503206e+005,-4.00897898219768e-001,-1.28390593076275e+000

1.96983106135185e+005,-4.00893790062765e-001,-1.30183566114129e+000

1.99732887824256e+005,-4.00889586027431e-001,-1.32001593282472e+000

2.02521055035243e+005,-4.00885284326482e-001,-1.33845025095771e+000

2.05348143610063e+005,-4.00880883158957e-001,-1.35714216977614e+000

2.08214696870707e+005,-4.00876380711034e-001,-1.37609529329092e+000

2.11121265723661e+005,-4.00871775156675e-001,-1.39531327598076e+000

2.14068408765776e+005,-4.00867064658530e-001,-1.41479982349461e+000

2.17056692391625e+005,-4.00862247368502e-001,-1.43455869336377e+000

2.20086690902357e+005,-4.00857321428697e-001,-1.45459369572343e+000

2.23158986616063e+005,-4.00852284972079e-001,-1.47490869404290e+000

2.26274169979693e+005,-4.00847136123392e-001,-1.49550760586700e+000

2.29432839682530e+005,-4.00841872999974e-001,-1.51639440356643e+000

2.32635602771247e+005,-4.00836493712439e-001,-1.53757311509873e+000

2.35883074766574e+005,-4.00830996365690e-001,-1.55904782477847e+000

2.39175879781588e+005,-4.00825379059583e-001,-1.58082267405876e+000

2.42514650641661e+005,-4.00819639889735e-001,-1.60290186232278e+000

2.45900029006080e+005,-4.00813776948590e-001,-1.62528964768464e+000

2.49332665491357e+005,-4.00807788325722e-001,-1.64799034780359e+000

2.52813219796278e+005,-4.00801672109086e-001,-1.67100834070580e+000

2.56342360828676e+005,-4.00795426385401e-001,-1.69434806561976e+000

2.59920766833993e+005,-4.00789049240977e-001,-1.71801402382114e+000

2.63549125525621e+005,-4.00782538762461e-001,-1.74201077948930e+000

2.67228134217075e+005,-4.00775893037286e-001,-1.76634296057573e+000

2.70958499956006e+005,-4.00769110154174e-001,-1.79101525968321e+000

2.74740939660078e+005,-4.00762188204043e-001,-1.81603243495686e+000

2.78576180254757e+005,-4.00755125279834e-001,-1.84139931098810e+000

2.82464958813007e+005,-4.00747919477415e-001,-1.86712077972853e+000

2.86408022696948e+005,-4.00740568895482e-001,-1.89320180141826e+000

2.90406129701488e+005,-4.00733071635895e-001,-1.91964740552539e+000

2.94460048199957e+005,-4.00725425803712e-001,-1.94646269169847e+000

2.98570557291775e+005,-4.00717629507261e-001,-1.97365283073090e+000

3.02738446952187e+005,-4.00709680857854e-001,-2.00122306554036e+000

3.06964518184081e+005,-4.00701577969564e-001,-2.02917871215878e+000

3.11249583171928e+005,-4.00693318958895e-001,-2.05752516073800e+000

3.15594465437872e+005,-4.00684901944117e-001,-2.08626787656762e+000

3.19999999999997e+005,-4.00676325044713e-001,-2.11541240110714e+000

3.24467033532806e+005,-4.00667586380359e-001,-2.14496435303239e+000

3.28996424529938e+005,-4.00658684070043e-001,-2.17492942929599e+000

3.33589043469155e+005,-4.00649616230845e-001,-2.20531340620213e+000

3.38245772979638e+005,-4.00640380976394e-001,-2.23612214049700e+000

3.42967508011610e+005,-4.00630976415531e-001,-2.26736157047315e+000

3.47755156008335e+005,-4.00621400650286e-001,-2.29903771709035e+000

3.52609637080511e+005,-4.00611651774155e-001,-2.33115668511060e+000

3.57531884183106e+005,-4.00601727869601e-001,-2.36372466425058e+000

3.62522843294651e+005,-4.00591627005847e-001,-2.39674793034931e+000

3.67583473599047e+005,-4.00581347236101e-001,-2.43023284655212e+000

3.72714747669902e+005,-4.00570886594736e-001,-2.46418586451216e+000

3.77917651657445e+005,-4.00560243094038e-001,-2.49861352560799e+000

3.83193185478053e+005,-4.00549414720989e-001,-2.53352246217946e+000

3.88542363006410e+005,-4.00538399433457e-001,-2.56891939878047e+000

3.93966212270369e+005,-4.00527195156437e-001,-2.60481115345014e+000

3.99465775648511e+005,-4.00515799777855e-001,-2.64120463900205e+000

4.05042110070485e+005,-4.00504211144127e-001,-2.67810686433247e+000

4.10696287220124e+005,-4.00492427055577e-001,-2.71552493574723e+000

4.16429393741414e+005,-4.00480445261436e-001,-2.75346605830771e+000

4.22242531447321e+005,-4.00468263454668e-001,-2.79193753719741e+000

4.28136817531551e+005,-4.00455879266466e-001,-2.83094677910728e+000

4.34113384783250e+005,-4.00443290260711e-001,-2.87050129364223e+000

4.40173381804713e+005,-4.00430493927711e-001,-2.91060869474829e+000

4.46317973232124e+005,-4.00417487678229e-001,-2.95127670216024e+000

4.52548339959385e+005,-4.00404268836839e-001,-2.99251314287155e+000

4.58865679365059e+005,-4.00390834635216e-001,-3.03432595262528e+000

4.65271205542494e+005,-4.00377182205317e-001,-3.07672317742738e+000

4.71766149533147e+005,-4.00363308571814e-001,-3.11971297508318e+000

4.78351759563174e+005,-4.00349210645002e-001,-3.16330361675542e+000

4.85029301283321e+005,-4.00334885212963e-001,-3.20750348854655e+000

4.91800058012158e+005,-4.00320328933608e-001,-3.25232109310438e+000

4.98665330982714e+005,-4.00305538326646e-001,-3.29776505125153e+000

5.05626439592555e+005,-4.00290509765306e-001,-3.34384410363909e+000

5.12684721657352e+005,-4.00275239467849e-001,-3.39056711242545e+000

5.19841533667984e+005,-4.00259723488654e-001,-3.43794306297980e+000

5.27098251051240e+005,-4.00243957709677e-001,-3.48598106561114e+000

5.34456268434150e+005,-4.00227937831179e-001,-3.53469035732303e+000

5.41916999912011e+005,-4.00211659362615e-001,-3.58408030359444e+000

