Freq.,VOut,OutRef

1.00000000000000e+004,-2.32824432661557e+001,-5.25888428206556e-001

1.01395947979003e+004,-2.32824479757480e+001,-5.33229299066337e-001

1.02811382665607e+004,-2.32824528177116e+001,-5.40672633711258e-001

1.04246576084112e+004,-2.32824577957661e+001,-5.48219862017798e-001

1.05701804056138e+004,-2.32824629137356e+001,-5.55872433802436e-001

1.07177346253629e+004,-2.32824681755512e+001,-5.63631819101186e-001

1.08673486252606e+004,-2.32824735852551e+001,-5.71499508447108e-001

1.10190511587661e+004,-2.32824791470024e+001,-5.79477013160991e-001

1.11728713807222e+004,-2.32824848650653e+001,-5.87565865634940e-001

1.13288388529580e+004,-2.32824907438356e+001,-5.95767619629863e-001

1.14869835499703e+004,-2.32824967878287e+001,-6.04083850570259e-001

1.16473358646846e+004,-2.32825030016867e+001,-6.12516155846720e-001

1.18099266142953e+004,-2.32825093901819e+001,-6.21066155121146e-001

1.19747870461893e+004,-2.32825159582208e+001,-6.29735490636801e-001

1.21419488439505e+004,-2.32825227108476e+001,-6.38525827530244e-001

1.23114441334492e+004,-2.32825296532480e+001,-6.47438854153386e-001

1.24833054890161e+004,-2.32825367907535e+001,-6.56476282393239e-001

1.26575659397028e+004,-2.32825441288449e+001,-6.65639848000149e-001

1.28342589756290e+004,-2.32825516731572e+001,-6.74931310919048e-001

1.30134185544193e+004,-2.32825594294834e+001,-6.84352455626796e-001

1.31950791077289e+004,-2.32825674037793e+001,-6.93905091471869e-001

1.33792755478611e+004,-2.32825756021675e+001,-7.03591053019967e-001

1.35660432744767e+004,-2.32825840309428e+001,-7.13412200405892e-001

1.37554181813974e+004,-2.32825926965764e+001,-7.23370419686416e-001

1.39474366635040e+004,-2.32826016057213e+001,-7.33467623201756e-001

1.41421356237309e+004,-2.32826107652171e+001,-7.43705749941135e-001

1.43395524801583e+004,-2.32826201820953e+001,-7.54086765910589e-001

1.45397251732031e+004,-2.32826298635847e+001,-7.64612664510231e-001

1.47426921729110e+004,-2.32826398171169e+001,-7.75285466913708e-001

1.49484924863494e+004,-2.32826500503321e+001,-7.86107222453286e-001

1.51571656651040e+004,-2.32826605710849e+001,-7.97080009010157e-001

1.53687518128801e+004,-2.32826713874499e+001,-8.08205933412887e-001

1.55832915932100e+004,-2.32826825077286e+001,-8.19487131835499e-001

1.58008262372675e+004,-2.32826939404551e+001,-8.30925770207198e-001

1.60213975517924e+004,-2.32827056944029e+001,-8.42524044624413e-001

1.62450479271247e+004,-2.32827177785915e+001,-8.54284181767628e-001

1.64718203453514e+004,-2.32827302022936e+001,-8.66208439326641e-001

1.67017583885674e+004,-2.32827429750416e+001,-8.78299106430348e-001

1.69349062472505e+004,-2.32827561066354e+001,-8.90558504081313e-001

1.71713087287550e+004,-2.32827696071495e+001,-9.02988985597756e-001

1.74110112659224e+004,-2.32827834869410e+001,-9.15592937062503e-001

1.76540599258131e+004,-2.32827977566571e+001,-9.28372777774052e-001

1.79005014185594e+004,-2.32828124272437e+001,-9.41330960708189e-001

1.81503831063432e+004,-2.32828275099534e+001,-9.54469972983871e-001

1.84037530124975e+004,-2.32828430163542e+001,-9.67792336335084e-001

1.86606598307361e+004,-2.32828589583382e+001,-9.81300607590392e-001

1.89211529345119e+004,-2.32828753481307e+001,-9.94997379157341e-001

1.91852823865052e+004,-2.32828921982996e+001,-1.00888527951548e+000

1.94530989482457e+004,-2.32829095217650e+001,-1.02296697371393e+000

1.97246540898671e+004,-2.32829273318086e+001,-1.03724516387766e+000

1.99999999999999e+004,-2.32829456420845e+001,-1.05172258971894e+000

2.02791895958005e+004,-2.32829644666291e+001,-1.06640202905635e+000

2.05622765331213e+004,-2.32829838198717e+001,-1.08128629834207e+000

2.08493152168224e+004,-2.32830037166458e+001,-1.09637825319345e+000

2.11403608112276e+004,-2.32830241722001e+001,-1.11168078893491e+000

2.14354692507258e+004,-2.32830452022103e+001,-1.12719684114488e+000

2.17346972505211e+004,-2.32830668227909e+001,-1.14292938621020e+000

2.20381023175322e+004,-2.32830890505073e+001,-1.15888144188987e+000

2.23457427614443e+004,-2.32831119023884e+001,-1.17505606788525e+000

2.26576777059159e+004,-2.32831353959399e+001,-1.19145636641558e+000

2.29739670999406e+004,-2.32831595491569e+001,-1.20808548280623e+000

2.32946717293690e+004,-2.32831843805380e+001,-1.22494660608040e+000

2.36198532285905e+004,-2.32832099090993e+001,-1.24204296956032e+000

2.39495740923785e+004,-2.32832361543886e+001,-1.25937785147687e+000

2.42838976879009e+004,-2.32832631365003e+001,-1.27695457558705e+000

2.46228882668982e+004,-2.32832908760905e+001,-1.29477651179921e+000

2.49666109780322e+004,-2.32833193943930e+001,-1.31284707680659e+000

2.53151318794055e+004,-2.32833487132344e+001,-1.33116973473155e+000

2.56685179512580e+004,-2.32833788550520e+001,-1.34974799777310e+000

2.60268371088386e+004,-2.32834098429092e+001,-1.36858542686981e+000

2.63901582154578e+004,-2.32834417005143e+001,-1.38768563236478e+000

2.67585510957221e+004,-2.32834744522374e+001,-1.40705227468546e+000

2.71320865489533e+004,-2.32835081231290e+001,-1.42668906502758e+000

2.75108363627948e+004,-2.32835427389393e+001,-1.44659976605084e+000

2.78948733270080e+004,-2.32835783261370e+001,-1.46678819258264e+000

2.82842712474618e+004,-2.32836149119296e+001,-1.48725821233162e+000

2.86791049603164e+004,-2.32836525242836e+001,-1.50801374661066e+000

2.90794503464061e+004,-2.32836911919457e+001,-1.52905877106804e+000

2.94853843458219e+004,-2.32837309444645e+001,-1.55039731642879e+000

2.98969849726987e+004,-2.32837718122121e+001,-1.57203346924784e+000

3.03143313302078e+004,-2.32838138264078e+001,-1.59397137266849e+000

3.07375036257601e+004,-2.32838570191405e+001,-1.61621522719554e+000

3.11665831864199e+004,-2.32839014233936e+001,-1.63876929147431e+000

3.16016524745350e+004,-2.32839470730690e+001,-1.66163788308294e+000

3.20427951035848e+004,-2.32839940030128e+001,-1.68482537933206e+000

3.24900958542493e+004,-2.32840422490416e+001,-1.70833621807791e+000

3.29436406907028e+004,-2.32840918479684e+001,-1.73217489854253e+000

3.34035167771346e+004,-2.32841428376311e+001,-1.75634598214658e+000

3.38698124945009e+004,-2.32841952569199e+001,-1.78085409335283e+000

3.43426174575100e+004,-2.32842491458067e+001,-1.80570392051881e+000

3.48220225318448e+004,-2.32843045453745e+001,-1.83090021676220e+000

3.53081198516260e+004,-2.32843614978483e+001,-1.85644780083578e+000

3.58010028371187e+004,-2.32844200466264e+001,-1.88235155801277e+000

3.63007662126863e+004,-2.32844802363124e+001,-1.90861644098670e+000

3.68075060249948e+004,-2.32845421127483e+001,-1.93524747077815e+000

3.73213196614721e+004,-2.32846057230487e+001,-1.96224973765655e+000

3.78423058690237e+004,-2.32846711156352e+001,-1.98962840207105e+000

3.83705647730104e+004,-2.32847383402728e+001,-2.01738869559248e+000

3.89061978964912e+004,-2.32848074481060e+001,-2.04553592187158e+000

3.94493081797342e+004,-2.32848784916971e+001,-2.07407545760224e+000

3.99999999999998e+004,-2.32849515250643e+001,-2.10301275350250e+000

4.05583791916010e+004,-2.32850266037219e+001,-2.13235333530365e+000

4.11245530662425e+004,-2.32851037847210e+001,-2.16210280475389e+000

4.16986304336447e+004,-2.32851831266911e+001,-2.19226684063254e+000

4.22807216224550e+004,-2.32852646898834e+001,-2.22285119977769e+000

4.28709385014515e+004,-2.32853485362148e+001,-2.25386171812527e+000

4.34693945010421e+004,-2.32854347293129e+001,-2.28530431176185e+000

4.40762046350642e+004,-2.32855233345628e+001,-2.31718497798787e+000

4.46914855228886e+004,-2.32856144191545e+001,-2.34950979639686e+000

4.53153554118317e+004,-2.32857080521319e+001,-2.38228492996361e+000

4.59479341998812e+004,-2.32858043044430e+001,-2.41551662614856e+000

4.65893434587380e+004,-2.32859032489913e+001,-2.44921121801242e+000

4.72397064571810e+004,-2.32860049606885e+001,-2.48337512534613e+000

4.78991481847569e+004,-2.32861095165089e+001,-2.51801485581256e+000

4.85677953758016e+004,-2.32862169955447e+001,-2.55313700610119e+000

4.92457765337964e+004,-2.32863274790631e+001,-2.58874826309750e+000

4.99332219560642e+004,-2.32864410505651e+001,-2.62485540506396e+000

5.06302637588109e+004,-2.32865577958449e+001,-2.66146530283571e+000

5.13370359025159e+004,-2.32866778030513e+001,-2.69858492103014e+000

5.20536742176771e+004,-2.32868011627518e+001,-2.73622131926733e+000

5.27803164309155e+004,-2.32869279679957e+001,-2.77438165340801e+000

5.35171021914442e+004,-2.32870583143818e+001,-2.81307317680235e+000

5.42641730979066e+004,-2.32871923001254e+001,-2.85230324155361e+000

5.50216727255895e+004,-2.32873300261283e+001,-2.89207929979520e+000

5.57897466540159e+004,-2.32874715960504e+001,-2.93240890498218e+000

5.65685424949235e+004,-2.32876171163825e+001,-2.97329971319621e+000

5.73582099206328e+004,-2.32877666965217e+001,-3.01475948446480e+000

5.81589006928121e+004,-2.32879204488478e+001,-3.05679608409403e+000

5.89707686916437e+004,-2.32880784888028e+001,-3.09941748401568e+000

5.97939699453972e+004,-2.32882409349710e+001,-3.14263176414853e+000

6.06286626604156e+004,-2.32884079091617e+001,-3.18644711377413e+000

6.14750072515201e+004,-2.32885795364946e+001,-3.23087183292547e+000

6.23331663728396e+004,-2.32887559454856e+001,-3.27591433379047e+000

6.32033049490698e+004,-2.32889372681368e+001,-3.32158314213029e+000

6.40855902071694e+004,-2.32891236400265e+001,-3.36788689871132e+000

6.49801917084985e+004,-2.32893152004031e+001,-3.41483436075009e+000

6.58872813814055e+004,-2.32895120922805e+001,-3.46243440337461e+000

6.68070335542691e+004,-2.32897144625356e+001,-3.51069602109854e+000

6.77396249890018e+004,-2.32899224620086e+001,-3.55962832930927e+000

6.86852349150199e+004,-2.32901362456051e+001,-3.60924056577063e+000

6.96440450636895e+004,-2.32903559724014e+001,-3.65954209214033e+000

7.06162397032520e+004,-2.32905818057514e+001,-3.71054239549992e+000

7.16020056742374e+004,-2.32908139133967e+001,-3.76225108989977e+000

7.26015324253724e+004,-2.32910524675787e+001,-3.81467791791839e+000

7.36150120499896e+004,-2.32912976451534e+001,-3.86783275223474e+000

7.46426393229441e+004,-2.32915496277091e+001,-3.92172559721508e+000

7.56846117380472e+004,-2.32918086016869e+001,-3.97636659051343e+000

7.67411295460207e+004,-2.32920747585028e+001,-4.03176600468576e+000

7.78123957929823e+004,-2.32923482946744e+001,-4.08793424881777e+000

7.88986163594682e+004,-2.32926294119486e+001,-4.14488187016670e+000

7.99999999999995e+004,-2.32929183174331e+001,-4.20261955581614e+000

8.11167583832018e+004,-2.32932152237309e+001,-4.26115813434439e+000

8.22491061324848e+004,-2.32935203490772e+001,-4.32050857750664e+000

8.33972608672892e+004,-2.32938339174797e+001,-4.38068200192953e+000

8.45614432449099e+004,-2.32941561588616e+001,-4.44168967081938e+000

8.57418770029029e+004,-2.32944873092079e+001,-4.50354299568311e+000

8.69387890020841e+004,-2.32948276107147e+001,-4.56625353806237e+000

8.81524092701283e+004,-2.32951773119417e+001,-4.62983301128052e+000

8.93829710457770e+004,-2.32955366679677e+001,-4.69429328220130e+000

9.06307108236633e+004,-2.32959059405499e+001,-4.75964637300066e+000

9.18958683997622e+004,-2.32962853982855e+001,-4.82590446295136e+000

9.31786869174758e+004,-2.32966753167774e+001,-4.89307989021919e+000

9.44794129143618e+004,-2.32970759788031e+001,-4.96118515367040e+000

9.57982963695136e+004,-2.32974876744864e+001,-5.03023291469322e+000

9.71355907516031e+004,-2.32979107014735e+001,-5.10023599902874e+000

9.84915530675926e+004,-2.32983453651117e+001,-5.17120739861497e+000

9.98664439121282e+004,-2.32987919786320e+001,-5.24316027344158e+000

1.01260527517622e+005,-2.32992508633349e+001,-5.31610795341624e+000

1.02674071805032e+005,-2.32997223487802e+001,-5.39006394024198e+000

1.04107348435354e+005,-2.33002067729797e+001,-5.46504190930492e+000

1.05560632861831e+005,-2.33007044825942e+001,-5.54105571157441e+000

1.07034204382888e+005,-2.33012158331340e+001,-5.61811937551156e+000

1.08528346195813e+005,-2.33017411891621e+001,-5.69624710899021e+000

1.10043345451179e+005,-2.33022809245027e+001,-5.77545330122766e+000

1.11579493308032e+005,-2.33028354224519e+001,-5.85575252472460e+000

1.13137084989847e+005,-2.33034050759931e+001,-5.93715953721714e+000

1.14716419841265e+005,-2.33039902880154e+001,-6.01968928363667e+000

1.16317801385624e+005,-2.33045914715368e+001,-6.10335689808145e+000

1.17941537383287e+005,-2.33052090499298e+001,-6.18817770579692e+000

1.19587939890794e+005,-2.33058434571516e+001,-6.27416722516554e+000

1.21257325320831e+005,-2.33064951379786e+001,-6.36134116970725e+000

1.22950014503040e+005,-2.33071645482434e+001,-6.44971545008839e+000

1.24666332745679e+005,-2.33078521550768e+001,-6.53930617614100e+000

1.26406609898139e+005,-2.33085584371530e+001,-6.63012965889127e+000

1.28171180414339e+005,-2.33092838849392e+001,-6.72220241259677e+000

1.29960383416997e+005,-2.33100290009481e+001,-6.81554115679536e+000

1.31774562762811e+005,-2.33107942999955e+001,-6.91016281836104e+000

1.33614067108538e+005,-2.33115803094613e+001,-7.00608453357131e+000

1.35479249978003e+005,-2.33123875695537e+001,-7.10332365018334e+000

1.37370469830040e+005,-2.33132166335788e+001,-7.20189772952090e+000

1.39288090127379e+005,-2.33140680682126e+001,-7.30182454857039e+000

1.41232479406504e+005,-2.33149424537780e+001,-7.40312210208824e+000

1.43204011348474e+005,-2.33158403845255e+001,-7.50580860471743e+000

1.45203064850745e+005,-2.33167624689176e+001,-7.60990249311601e+000

1.47230024099979e+005,-2.33177093299179e+001,-7.71542242809652e+000

1.49285278645888e+005,-2.33186816052831e+001,-7.82238729677618e+000

1.51369223476094e+005,-2.33196799478604e+001,-7.93081621473981e+000

1.53482259092041e+005,-2.33207050258881e+001,-8.04072852821388e+000

1.55624791585964e+005,-2.33217575233007e+001,-8.15214381625509e+000

1.57797232718936e+005,-2.33228381400381e+001,-8.26508189295031e+000

1.59999999999999e+005,-2.33239475923591e+001,-8.37956280963188e+000

1.62233516766403e+005,-2.33250866131592e+001,-8.49560685710621e+000

1.64498212264969e+005,-2.33262559522927e+001,-8.61323456789896e+000

1.66794521734578e+005,-2.33274563768992e+001,-8.73246671851413e+000

1.69122886489819e+005,-2.33286886717354e+001,-8.85332433171214e+000

1.71483754005805e+005,-2.33299536395096e+001,-8.97582867880327e+000

1.73877578004168e+005,-2.33312521012239e+001,-9.10000128196015e+000

1.76304818540256e+005,-2.33325848965183e+001,-9.22586391655021e+000

1.78765942091554e+005,-2.33339528840217e+001,-9.35343861348705e+000

1.81261421647326e+005,-2.33353569417075e+001,-9.48274766160276e+000

1.83791736799524e+005,-2.33367979672546e+001,-9.61381361004401e+000

1.86357373834951e+005,-2.33382768784139e+001,-9.74665927068893e+000

1.88958825828723e+005,-2.33397946133803e+001,-9.88130772059009e+000

1.91596592739027e+005,-2.33413521311713e+001,-1.00177823044413e+001

1.94271181503206e+005,-2.33429504120113e+001,-1.01561066370715e+001

1.96983106135185e+005,-2.33445904577226e+001,-1.02963046059655e+001

1.99732887824256e+005,-2.33462732921231e+001,-1.04384003738138e+001

2.02521055035243e+005,-2.33479999614315e+001,-1.05824183810908e+001

2.05348143610063e+005,-2.33497715346793e+001,-1.07283833486650e+001

2.08214696870707e+005,-2.33515891041316e+001,-1.08763202804394e+001

2.11121265723661e+005,-2.33534537857155e+001,-1.10262544660249e+001

2.14068408765776e+005,-2.33553667194571e+001,-1.11782114834478e+001

2.17056692391625e+005,-2.33573290699287e+001,-1.13322172018901e+001

2.20086690902357e+005,-2.33593420267045e+001,-1.14882977844657e+001

2.23158986616063e+005,-2.33614068048276e+001,-1.16464796910321e+001

2.26274169979693e+005,-2.33635246452871e+001,-1.18067896810375e+001

2.29432839682530e+005,-2.33656968155072e+001,-1.19692548164048e+001

2.32635602771247e+005,-2.33679246098479e+001,-1.21339024644522e+001

2.35883074766574e+005,-2.33702093501191e+001,-1.23007603008494e+001

2.39175879781588e+005,-2.33725523861079e+001,-1.24698563126115e+001

2.42514650641661e+005,-2.33749550961199e+001,-1.26412188011273e+001

2.45900029006080e+005,-2.33774188875361e+001,-1.28148763852240e+001

2.49332665491357e+005,-2.33799451973856e+001,-1.29908580042645e+001

2.52813219796278e+005,-2.33825354929346e+001,-1.31691929212784e+001

2.56342360828676e+005,-2.33851912722940e+001,-1.33499107261244e+001

2.59920766833993e+005,-2.33879140650443e+001,-1.35330413386805e+001

2.63549125525621e+005,-2.33907054328817e+001,-1.37186150120617e+001

2.67228134217075e+005,-2.33935669702829e+001,-1.39066623358615e+001

2.70958499956006e+005,-2.33965003051930e+001,-1.40972142394129e+001

2.74740939660078e+005,-2.33995070997354e+001,-1.42903019950675e+001

2.78576180254757e+005,-2.34025890509447e+001,-1.44859572214853e+001

2.82464958813007e+005,-2.34057478915257e+001,-1.46842118869327e+001

2.86408022696948e+005,-2.34089853906369e+001,-1.48850983125837e+001

2.90406129701488e+005,-2.34123033547011e+001,-1.50886491758149e+001

2.94460048199957e+005,-2.34157036282450e+001,-1.52948975134913e+001

2.98570557291775e+005,-2.34191880947659e+001,-1.55038767252349e+001

3.02738446952187e+005,-2.34227586776305e+001,-1.57156205766655e+001

3.06964518184081e+005,-2.34264173410029e+001,-1.59301632026093e+001

3.11249583171928e+005,-2.34301660908064e+001,-1.61475391102624e+001

3.15594465437872e+005,-2.34340069757172e+001,-1.63677831823011e+001

3.19999999999997e+005,-2.34379420881926e+001,-1.65909306799277e+001

3.24467033532806e+005,-2.34419735655343e+001,-1.68170172458404e+001

3.28996424529938e+005,-2.34461035909875e+001,-1.70460789071143e+001

3.33589043469155e+005,-2.34503343948759e+001,-1.72781520779827e+001

3.38245772979638e+005,-2.34546682557746e+001,-1.75132735625016e+001

3.42967508011610e+005,-2.34591075017211e+001,-1.77514805570863e+001

3.47755156008335e+005,-2.34636545114636e+001,-1.79928106529024e+001

3.52609637080511e+005,-2.34683117157494e+001,-1.82373018380974e+001

3.57531884183106e+005,-2.34730815986516e+001,-1.84849924998535e+001

3.62522843294651e+005,-2.34779666989350e+001,-1.87359214262483e+001

3.67583473599047e+005,-2.34829696114624e+001,-1.89901278079012e+001

3.72714747669902e+005,-2.34880929886385e+001,-1.92476512393904e+001

3.77917651657445e+005,-2.34933395418942e+001,-1.95085317204197e+001

3.83193185478053e+005,-2.34987120432090e+001,-1.97728096567157e+001

3.88542363006410e+005,-2.35042133266713e+001,-2.00405258606365e+001

3.93966212270369e+005,-2.35098462900761e+001,-2.03117215514698e+001

3.99465775648511e+005,-2.35156138965594e+001,-2.05864383554011e+001

4.05042110070485e+005,-2.35215191762668e+001,-2.08647183051299e+001

4.10696287220124e+005,-2.35275652280573e+001,-2.11466038391134e+001

4.16429393741414e+005,-2.35337552212385e+001,-2.14321378004164e+001

4.22242531447321e+005,-2.35400923973329e+001,-2.17213634351445e+001

4.28136817531551e+005,-2.35465800718724e+001,-2.20143243904422e+001

4.34113384783250e+005,-2.35532216362198e+001,-2.23110647120304e+001

4.40173381804713e+005,-2.35600205594139e+001,-2.26116288412671e+001

4.46317973232124e+005,-2.35669803900362e+001,-2.29160616117053e+001

4.52548339959385e+005,-2.35741047580963e+001,-2.32244082451331e+001

4.58865679365059e+005,-2.35813973769323e+001,-2.35367143470714e+001

4.65271205542494e+005,-2.35888620451239e+001,-2.38530259017127e+001

4.71766149533147e+005,-2.35965026484136e+001,-2.41733892662814e+001

4.78351759563174e+005,-2.36043231616332e+001,-2.44978511647971e+001

4.85029301283321e+005,-2.36123276506304e+001,-2.48264586812262e+001

4.91800058012158e+005,-2.36205202741930e+001,-2.51592592520017e+001

4.98665330982714e+005,-2.36289052859643e+001,-2.54963006579003e+001

5.05626439592555e+005,-2.36374870363469e+001,-2.58376310152607e+001

5.12684721657352e+005,-2.36462699743882e+001,-2.61832987665299e+001

5.19841533667984e+005,-2.36552586496449e+001,-2.65333526701285e+001

5.27098251051240e+005,-2.36644577140187e+001,-2.68878417896223e+001

5.34456268434150e+005,-2.36738719235602e+001,-2.72468154821941e+001

5.41916999912011e+005,-2.36835061402333e+001,-2.76103233864064e+001

