Freq.,VOut,OutRef

1.00000000000000e+004,-1.42095096933321e+001,-3.92465241675551e-002

1.01395947979003e+004,-1.42095100011579e+001,-3.97943467785273e-002

1.02811382665607e+004,-1.42095103176313e+001,-4.03498150782474e-002

1.04246576084112e+004,-1.42095106429953e+001,-4.09130357242241e-002

1.05701804056138e+004,-1.42095109774995e+001,-4.14841168641494e-002

1.07177346253629e+004,-1.42095113214006e+001,-4.20631681498898e-002

1.08673486252606e+004,-1.42095116749619e+001,-4.26503007641881e-002

1.10190511587661e+004,-1.42095120384548e+001,-4.32456274361855e-002

1.11728713807222e+004,-1.42095124121580e+001,-4.38492624643607e-002

1.13288388529580e+004,-1.42095127963580e+001,-4.44613217409598e-002

1.14869835499703e+004,-1.42095131913495e+001,-4.50819227709158e-002

1.16473358646846e+004,-1.42095135974355e+001,-4.57111846947791e-002

1.18099266142953e+004,-1.42095140149267e+001,-4.63492283180460e-002

1.19747870461893e+004,-1.42095144441436e+001,-4.69961761193193e-002

1.21419488439505e+004,-1.42095148854150e+001,-4.76521522896036e-002

1.23114441334492e+004,-1.42095153390793e+001,-4.83172827439318e-002

1.24833054890161e+004,-1.42095158054842e+001,-4.89916951528474e-002

1.26575659397028e+004,-1.42095162849866e+001,-4.96755189672152e-002

1.28342589756290e+004,-1.42095167779545e+001,-5.03688854319984e-002

1.30134185544193e+004,-1.42095172847651e+001,-5.10719276263881e-002

1.31950791077289e+004,-1.42095178058070e+001,-5.17847804752870e-002

1.33792755478611e+004,-1.42095183414792e+001,-5.25075807856276e-002

1.35660432744767e+004,-1.42095188921917e+001,-5.32404672683908e-002

1.37554181813974e+004,-1.42095194583667e+001,-5.39835805588011e-002

1.39474366635040e+004,-1.42095200404375e+001,-5.47370632546495e-002

1.41421356237309e+004,-1.42095206388498e+001,-5.55010599339281e-002

1.43395524801583e+004,-1.42095212540618e+001,-5.62757171860966e-002

1.45397251732031e+004,-1.42095218865443e+001,-5.70611836407195e-002

1.47426921729110e+004,-1.42095225367814e+001,-5.78576099934183e-002

1.49484924863494e+004,-1.42095232052708e+001,-5.86651490341054e-002

1.51571656651040e+004,-1.42095238925242e+001,-5.94839556766869e-002

1.53687518128801e+004,-1.42095245990673e+001,-6.03141869907727e-002

1.55832915932100e+004,-1.42095253254403e+001,-6.11560022295363e-002

1.58008262372675e+004,-1.42095260721992e+001,-6.20095628559435e-002

1.60213975517924e+004,-1.42095268399148e+001,-6.28750325810154e-002

1.62450479271247e+004,-1.42095276291742e+001,-6.37525773868172e-002

1.64718203453514e+004,-1.42095284405809e+001,-6.46423655635899e-002

1.67017583885674e+004,-1.42095292747555e+001,-6.55445677358448e-002

1.69349062472505e+004,-1.42095301323351e+001,-6.64593569037203e-002

1.71713087287550e+004,-1.42095310139751e+001,-6.73869084665844e-002

1.74110112659224e+004,-1.42095319203493e+001,-6.83274002582698e-002

1.76540599258131e+004,-1.42095328521497e+001,-6.92810125846519e-002

1.79005014185594e+004,-1.42095338100888e+001,-7.02479282482096e-002

1.81503831063432e+004,-1.42095347948974e+001,-7.12283325969878e-002

1.84037530124975e+004,-1.42095358073276e+001,-7.22224135450089e-002

1.86606598307361e+004,-1.42095368481526e+001,-7.32303616133953e-002

1.89211529345119e+004,-1.42095379181660e+001,-7.42523699719304e-002

1.91852823865052e+004,-1.42095390181852e+001,-7.52886344610930e-002

1.94530989482457e+004,-1.42095401490487e+001,-7.63393536439717e-002

1.97246540898671e+004,-1.42095413116191e+001,-7.74047288348036e-002

1.99999999999999e+004,-1.42095425067834e+001,-7.84849641339575e-002

2.02791895958005e+004,-1.42095437354523e+001,-7.95802664773105e-002

2.05622765331213e+004,-1.42095449985626e+001,-8.06908456630861e-002

2.08493152168224e+004,-1.42095462970765e+001,-8.18169143985983e-002

2.11403608112276e+004,-1.42095476319834e+001,-8.29586883361536e-002

2.14354692507258e+004,-1.42095490043001e+001,-8.41163861120254e-002

2.17346972505211e+004,-1.42095504150715e+001,-8.52902293937302e-002

2.20381023175322e+004,-1.42095518653714e+001,-8.64804429138576e-002

2.23457427614443e+004,-1.42095533563033e+001,-8.76872545165381e-002

2.26576777059159e+004,-1.42095548890021e+001,-8.89108951942917e-002

2.29739670999406e+004,-1.42095564646330e+001,-9.01515991398410e-002

2.32946717293690e+004,-1.42095580843941e+001,-9.14096037798344e-002

2.36198532285905e+004,-1.42095597495170e+001,-9.26851498225821e-002

2.39495740923785e+004,-1.42095614612666e+001,-9.39784813073276e-002

2.42838976879009e+004,-1.42095632209431e+001,-9.52898456424620e-002

2.46228882668982e+004,-1.42095650298829e+001,-9.66194936519015e-002

2.49666109780322e+004,-1.42095668894593e+001,-9.79676796238035e-002

2.53151318794055e+004,-1.42095688010829e+001,-9.93346613593351e-002

2.56685179512580e+004,-1.42095707662044e+001,-1.00720700211360e-001

2.60268371088386e+004,-1.42095727863134e+001,-1.02126061143282e-001

2.63901582154578e+004,-1.42095748629412e+001,-1.03551012770854e-001

2.67585510957221e+004,-1.42095769976612e+001,-1.04995827410879e-001

2.71320865489533e+004,-1.42095791920903e+001,-1.06460781134180e-001

2.75108363627948e+004,-1.42095814478895e+001,-1.07946153816508e-001

2.78948733270080e+004,-1.42095837667658e+001,-1.09452229184730e-001

2.82842712474618e+004,-1.42095861504734e+001,-1.10979294872276e-001

2.86791049603164e+004,-1.42095886008143e+001,-1.12527642470897e-001

2.90794503464061e+004,-1.42095911196399e+001,-1.14097567583354e-001

2.94853843458219e+004,-1.42095937088529e+001,-1.15689369876523e-001

2.98969849726987e+004,-1.42095963704080e+001,-1.17303353134402e-001

3.03143313302078e+004,-1.42095991063132e+001,-1.18939825315189e-001

3.07375036257601e+004,-1.42096019186321e+001,-1.20599098604762e-001

3.11665831864199e+004,-1.42096048094840e+001,-1.22281489476771e-001

3.16016524745350e+004,-1.42096077810469e+001,-1.23987318741437e-001

3.20427951035848e+004,-1.42096108355580e+001,-1.25716911610735e-001

3.24900958542493e+004,-1.42096139753155e+001,-1.27470597754721e-001

3.29436406907028e+004,-1.42096172026805e+001,-1.29248711356010e-001

3.34035167771346e+004,-1.42096205200784e+001,-1.31051591174973e-001

3.38698124945009e+004,-1.42096239300007e+001,-1.32879580606494e-001

3.43426174575100e+004,-1.42096274350067e+001,-1.34733027741363e-001

3.48220225318448e+004,-1.42096310377249e+001,-1.36612285430324e-001

3.53081198516260e+004,-1.42096347408559e+001,-1.38517711339977e-001

3.58010028371187e+004,-1.42096385471731e+001,-1.40449668023001e-001

3.63007662126863e+004,-1.42096424595252e+001,-1.42408522977819e-001

3.68075060249948e+004,-1.42096464808381e+001,-1.44394648713507e-001

3.73213196614721e+004,-1.42096506141166e+001,-1.46408422814646e-001

3.78423058690237e+004,-1.42096548624471e+001,-1.48450228007984e-001

3.83705647730104e+004,-1.42096592289988e+001,-1.50520452228887e-001

3.89061978964912e+004,-1.42096637170267e+001,-1.52619488686504e-001

3.94493081797342e+004,-1.42096683298736e+001,-1.54747735932758e-001

3.99999999999998e+004,-1.42096730709715e+001,-1.56905597934666e-001

4.05583791916010e+004,-1.42096779438453e+001,-1.59093484135732e-001

4.11245530662425e+004,-1.42096829521138e+001,-1.61311809534472e-001

4.16986304336447e+004,-1.42096880994935e+001,-1.63560994747603e-001

4.22807216224550e+004,-1.42096933897995e+001,-1.65841466088440e-001

4.28709385014515e+004,-1.42096988269492e+001,-1.68153655634260e-001

4.34693945010421e+004,-1.42097044149646e+001,-1.70498001299331e-001

4.40762046350642e+004,-1.42097101579744e+001,-1.72874946913513e-001

4.46914855228886e+004,-1.42097160602174e+001,-1.75284942289223e-001

4.53153554118317e+004,-1.42097221260446e+001,-1.77728443303248e-001

4.59479341998812e+004,-1.42097283599223e+001,-1.80205911969008e-001

4.65893434587380e+004,-1.42097347664357e+001,-1.82717816510514e-001

4.72397064571810e+004,-1.42097413502898e+001,-1.85264631448035e-001

4.78991481847569e+004,-1.42097481163146e+001,-1.87846837666241e-001

4.85677953758016e+004,-1.42097550694668e+001,-1.90464922499288e-001

4.92457765337964e+004,-1.42097622148329e+001,-1.93119379808950e-001

4.99332219560642e+004,-1.42097695576333e+001,-1.95810710060611e-001

5.06302637588109e+004,-1.42097771032245e+001,-1.98539420410571e-001

5.13370359025159e+004,-1.42097848571028e+001,-2.01306024781887e-001

5.20536742176771e+004,-1.42097928249076e+001,-2.04111043948746e-001

5.27803164309155e+004,-1.42098010124249e+001,-2.06955005619372e-001

5.35171021914442e+004,-1.42098094255905e+001,-2.09838444518441e-001

5.42641730979066e+004,-1.42098180704936e+001,-2.12761902472488e-001

5.50216727255895e+004,-1.42098269533807e+001,-2.15725928491710e-001

5.57897466540159e+004,-1.42098360806584e+001,-2.18731078860823e-001

5.65685424949235e+004,-1.42098454588983e+001,-2.21777917216746e-001

5.73582099206328e+004,-1.42098550948398e+001,-2.24867014642969e-001

5.81589006928121e+004,-1.42098649953940e+001,-2.27998949754898e-001

5.89707686916437e+004,-1.42098751676480e+001,-2.31174308782664e-001

5.97939699453972e+004,-1.42098856188690e+001,-2.34393685664021e-001

6.06286626604156e+004,-1.42098963565070e+001,-2.37657682136132e-001

6.14750072515201e+004,-1.42099073882006e+001,-2.40966907815723e-001

6.23331663728396e+004,-1.42099187217798e+001,-2.44321980298650e-001

6.32033049490698e+004,-1.42099303652707e+001,-2.47723525244953e-001

6.40855902071694e+004,-1.42099423268997e+001,-2.51172176471173e-001

6.49801917084985e+004,-1.42099546150974e+001,-2.54668576042736e-001

6.58872813814055e+004,-1.42099672385033e+001,-2.58213374364725e-001

6.68070335542691e+004,-1.42099802059697e+001,-2.61807230276471e-001

6.77396249890018e+004,-1.42099935265668e+001,-2.65450811141024e-001

6.86852349150199e+004,-1.42100072095863e+001,-2.69144792941581e-001

6.96440450636895e+004,-1.42100212645465e+001,-2.72889860373476e-001

7.06162397032520e+004,-1.42100357011962e+001,-2.76686706940620e-001

7.16020056742374e+004,-1.42100505295195e+001,-2.80536035047609e-001

7.26015324253724e+004,-1.42100657597406e+001,-2.84438556095393e-001

7.36150120499896e+004,-1.42100814023280e+001,-2.88394990576797e-001

7.46426393229441e+004,-1.42100974679991e+001,-2.92406068171438e-001

7.56846117380472e+004,-1.42101139677251e+001,-2.96472527841965e-001

7.67411295460207e+004,-1.42101309127351e+001,-3.00595117930065e-001

7.78123957929823e+004,-1.42101483145211e+001,-3.04774596254015e-001

7.88986163594682e+004,-1.42101661848422e+001,-3.09011730202240e-001

7.99999999999995e+004,-1.42101845357300e+001,-3.13307296831799e-001

8.11167583832018e+004,-1.42102033794916e+001,-3.17662082967502e-001

8.22491061324848e+004,-1.42102227287159e+001,-3.22076885293538e-001

8.33972608672892e+004,-1.42102425962770e+001,-3.26552510456102e-001

8.45614432449099e+004,-1.42102629953387e+001,-3.31089775156847e-001

8.57418770029029e+004,-1.42102839393591e+001,-3.35689506253188e-001

8.69387890020841e+004,-1.42103054420954e+001,-3.40352540852154e-001

8.81524092701283e+004,-1.42103275176070e+001,-3.45079726412643e-001

8.93829710457770e+004,-1.42103501802607e+001,-3.49871920837361e-001

9.06307108236633e+004,-1.42103734447343e+001,-3.54729992575936e-001

9.18958683997622e+004,-1.42103973260205e+001,-3.59654820717896e-001

9.31786869174758e+004,-1.42104218394311e+001,-3.64647295092105e-001

9.44794129143618e+004,-1.42104470006007e+001,-3.69708316362745e-001

9.57982963695136e+004,-1.42104728254894e+001,-3.74838796131011e-001

9.71355907516031e+004,-1.42104993303875e+001,-3.80039657025733e-001

9.84915530675926e+004,-1.42105265319180e+001,-3.85311832804920e-001

9.98664439121282e+004,-1.42105544470393e+001,-3.90656268453345e-001

1.01260527517622e+005,-1.42105830930490e+001,-3.96073920275320e-001

1.02674071805032e+005,-1.42106124875854e+001,-4.01565755997294e-001

1.04107348435354e+005,-1.42106426486307e+001,-4.07132754859453e-001

1.05560632861831e+005,-1.42106735945126e+001,-4.12775907714652e-001

1.07034204382888e+005,-1.42107053439064e+001,-4.18496217126170e-001

1.08528346195813e+005,-1.42107379158358e+001,-4.24294697463733e-001

1.10043345451179e+005,-1.42107713296753e+001,-4.30172374996339e-001

1.11579493308032e+005,-1.42108056051494e+001,-4.36130287995634e-001

1.13137084989847e+005,-1.42108407623345e+001,-4.42169486826013e-001

1.14716419841265e+005,-1.42108768216580e+001,-4.48291034043822e-001

1.16317801385624e+005,-1.42109138038980e+001,-4.54496004496282e-001

1.17941537383287e+005,-1.42109517301827e+001,-4.60785485413811e-001

1.19587939890794e+005,-1.42109906219890e+001,-4.67160576508721e-001

1.21257325320831e+005,-1.42110305011404e+001,-4.73622390074170e-001

1.22950014503040e+005,-1.42110713898049e+001,-4.80172051079584e-001

1.24666332745679e+005,-1.42111133104916e+001,-4.86810697269174e-001

1.26406609898139e+005,-1.42111562860476e+001,-4.93539479260917e-001

1.28171180414339e+005,-1.42112003396537e+001,-5.00359560643599e-001

1.29960383416997e+005,-1.42112454948192e+001,-5.07272118079114e-001

1.31774562762811e+005,-1.42112917753765e+001,-5.14278341402081e-001

1.33614067108538e+005,-1.42113392054752e+001,-5.21379433719710e-001

1.35479249978003e+005,-1.42113878095742e+001,-5.28576611517895e-001

1.37370469830040e+005,-1.42114376124349e+001,-5.35871104760811e-001

1.39288090127379e+005,-1.42114886391114e+001,-5.43264156999735e-001

1.41232479406504e+005,-1.42115409149419e+001,-5.50757025478068e-001

1.43204011348474e+005,-1.42115944655373e+001,-5.58350981241988e-001

1.45203064850745e+005,-1.42116493167706e+001,-5.66047309249071e-001

1.47230024099979e+005,-1.42117054947639e+001,-5.73847308483579e-001

1.49285278645888e+005,-1.42117630258755e+001,-5.81752292070056e-001

1.51369223476094e+005,-1.42118219366848e+001,-5.89763587395318e-001

1.53482259092041e+005,-1.42118822539772e+001,-5.97882536226261e-001

1.55624791585964e+005,-1.42119440047274e+001,-6.06110494838107e-001

1.57797232718936e+005,-1.42120072160809e+001,-6.14448834142934e-001

1.59999999999999e+005,-1.42120719153359e+001,-6.22898939821110e-001

1.62233516766403e+005,-1.42121381299223e+001,-6.31462212461224e-001

1.64498212264969e+005,-1.42122058873804e+001,-6.40140067701716e-001

1.66794521734578e+005,-1.42122752153380e+001,-6.48933936379328e-001

1.69122886489819e+005,-1.42123461414863e+001,-6.57845264680984e-001

1.71483754005805e+005,-1.42124186935543e+001,-6.66875514307509e-001

1.73877578004168e+005,-1.42124928992818e+001,-6.76026162637939e-001

1.76304818540256e+005,-1.42125687863911e+001,-6.85298702902784e-001

1.78765942091554e+005,-1.42126463825576e+001,-6.94694644369071e-001

1.81261421647326e+005,-1.42127257153781e+001,-7.04215512528133e-001

1.83791736799524e+005,-1.42128068123384e+001,-7.13862849294557e-001

1.86357373834951e+005,-1.42128897007793e+001,-7.23638213217124e-001

1.88958825828723e+005,-1.42129744078606e+001,-7.33543179696881e-001

1.91596592739027e+005,-1.42130609605246e+001,-7.43579341215686e-001

1.94271181503206e+005,-1.42131493854570e+001,-7.53748307579701e-001

1.96983106135185e+005,-1.42132397090470e+001,-7.64051706170965e-001

1.99732887824256e+005,-1.42133319573459e+001,-7.74491182215747e-001

2.02521055035243e+005,-1.42134261560240e+001,-7.85068399063164e-001

2.05348143610063e+005,-1.42135223303260e+001,-7.95785038481823e-001

2.08214696870707e+005,-1.42136205050257e+001,-8.06642800966476e-001

2.11121265723661e+005,-1.42137207043782e+001,-8.17643406067355e-001

2.14068408765776e+005,-1.42138229520716e+001,-8.28788592730175e-001

2.17056692391625e+005,-1.42139272711771e+001,-8.40080119657932e-001

2.20086690902357e+005,-1.42140336840981e+001,-8.51519765686540e-001

2.23158986616063e+005,-1.42141422125176e+001,-8.63109330187239e-001

2.26274169979693e+005,-1.42142528773451e+001,-8.74850633478616e-001

2.29432839682530e+005,-1.42143656986621e+001,-8.86745517269640e-001

2.32635602771247e+005,-1.42144806956666e+001,-8.98795845117201e-001

2.35883074766574e+005,-1.42145978866175e+001,-9.11003502908364e-001

2.39175879781588e+005,-1.42147172887767e+001,-9.23370399367421e-001

2.42514650641661e+005,-1.42148389183523e+001,-9.35898466584626e-001

2.45900029006080e+005,-1.42149627904402e+001,-9.48589660569537e-001

2.49332665491357e+005,-1.42150889189656e+001,-9.61445961832333e-001

2.52813219796278e+005,-1.42152173166246e+001,-9.74469375986185e-001

2.56342360828676e+005,-1.42153479948247e+001,-9.87661934384634e-001

2.59920766833993e+005,-1.42154809636268e+001,-1.00102569477676e+000

2.63549125525621e+005,-1.42156162316863e+001,-1.01456274199650e+000

2.67228134217075e+005,-1.42157538061949e+001,-1.02827518867845e+000

2.70958499956006e+005,-1.42158936928233e+001,-1.04216517600257e+000

2.74740939660078e+005,-1.42160358956641e+001,-1.05623487446910e+000

2.78576180254757e+005,-1.42161804171767e+001,-1.07048648470000e+000

2.82464958813007e+005,-1.42163272581315e+001,-1.08492223827543e+000

2.86408022696948e+005,-1.42164764175580e+001,-1.09954439859381e+000

2.90406129701488e+005,-1.42166278926924e+001,-1.11435526176806e+000

2.94460048199957e+005,-1.42167816789278e+001,-1.12935715754774e+000

2.98570557291775e+005,-1.42169377697669e+001,-1.14455245027352e+000

3.02738446952187e+005,-1.42170961567764e+001,-1.15994353985952e+000

3.06964518184081e+005,-1.42172568295437e+001,-1.17553286280781e+000

3.11249583171928e+005,-1.42174197756373e+001,-1.19132289324946e+000

3.15594465437872e+005,-1.42175849805694e+001,-1.20731614401473e+000

3.19999999999997e+005,-1.42177524277620e+001,-1.22351516773414e+000

3.24467033532806e+005,-1.42179220985159e+001,-1.23992255796333e+000

3.28996424529938e+005,-1.42180939719849e+001,-1.25654095033457e+000

3.33589043469155e+005,-1.42182680251519e+001,-1.27337302373826e+000

3.38245772979638e+005,-1.42184442328105e+001,-1.29042150152290e+000

3.42967508011610e+005,-1.42186225675506e+001,-1.30768915272257e+000

3.47755156008335e+005,-1.42188029997481e+001,-1.32517879330631e+000

3.52609637080511e+005,-1.42189854975602e+001,-1.34289328744518e+000

3.57531884183106e+005,-1.42191700269245e+001,-1.36083554880212e+000

3.62522843294651e+005,-1.42193565515638e+001,-1.37900854183802e+000

3.67583473599047e+005,-1.42195450329965e+001,-1.39741528313219e+000

3.72714747669902e+005,-1.42197354305509e+001,-1.41605884272037e+000

3.77917651657445e+005,-1.42199277013868e+001,-1.43494234544233e+000

3.83193185478053e+005,-1.42201218005213e+001,-1.45406897230052e+000

3.88542363006410e+005,-1.42203176808606e+001,-1.47344196182760e+000

3.93966212270369e+005,-1.42205152932377e+001,-1.49306461146039e+000

3.99465775648511e+005,-1.42207145864555e+001,-1.51294027891743e+000

4.05042110070485e+005,-1.42209155073361e+001,-1.53307238357788e+000

4.10696287220124e+005,-1.42211180007749e+001,-1.55346440786267e+000

4.16429393741414e+005,-1.42213220098016e+001,-1.57411989861082e+000

4.22242531447321e+005,-1.42215274756456e+001,-1.59504246845289e+000

4.28136817531551e+005,-1.42217343378078e+001,-1.61623579717633e+000

4.34113384783250e+005,-1.42219425341375e+001,-1.63770363308353e+000

4.40173381804713e+005,-1.42221520009145e+001,-1.65944979433767e+000

4.46317973232124e+005,-1.42223626729363e+001,-1.68147817029477e+000

4.52548339959385e+005,-1.42225744836103e+001,-1.70379272282427e+000

4.58865679365059e+005,-1.42227873650510e+001,-1.72639748760627e+000

4.65271205542494e+005,-1.42230012481808e+001,-1.74929657541694e+000

4.71766149533147e+005,-1.42232160628362e+001,-1.77249417338734e+000

4.78351759563174e+005,-1.42234317378770e+001,-1.79599454624318e+000

4.85029301283321e+005,-1.42236482012995e+001,-1.81980203752032e+000

4.91800058012158e+005,-1.42238653803530e+001,-1.84392107075384e+000

4.98665330982714e+005,-1.42240832016594e+001,-1.86835615064159e+000

5.05626439592555e+005,-1.42243015913349e+001,-1.89311186418126e+000

5.12684721657352e+005,-1.42245204751150e+001,-1.91819288177588e+000

5.19841533667984e+005,-1.42247397784800e+001,-1.94360395831346e+000

5.27098251051240e+005,-1.42249594267834e+001,-1.96934993421539e+000

5.34456268434150e+005,-1.42251793453802e+001,-1.99543573645501e+000

5.41916999912011e+005,-1.42253994597571e+001,-2.02186637954521e+000

