Freq.,VOut,OutRef

1.00000000000000e+004,-7.93344522590874e-001,-1.18886362657514e-001

1.01395947979003e+004,-7.93344487955278e-001,-1.20545955400015e-001

1.02811382665607e+004,-7.93344452346080e-001,-1.22228715234995e-001

1.04246576084112e+004,-7.93344415735935e-001,-1.23934965564232e-001

1.05701804056138e+004,-7.93344378096642e-001,-1.25665034305283e-001

1.07177346253629e+004,-7.93344339399340e-001,-1.27419253952377e-001

1.08673486252606e+004,-7.93344299614284e-001,-1.29197961641446e-001

1.10190511587661e+004,-7.93344258710878e-001,-1.31001499215085e-001

1.11728713807222e+004,-7.93344216657685e-001,-1.32830213287523e-001

1.13288388529580e+004,-7.93344173422485e-001,-1.34684455311609e-001

1.14869835499703e+004,-7.93344128971873e-001,-1.36564581647596e-001

1.16473358646846e+004,-7.93344083271793e-001,-1.38470953628657e-001

1.18099266142953e+004,-7.93344036287174e-001,-1.40403937632754e-001

1.19747870461893e+004,-7.93343987981920e-001,-1.42363905152420e-001

1.21419488439505e+004,-7.93343938318808e-001,-1.44351232867194e-001

1.23114441334492e+004,-7.93343887259762e-001,-1.46366302712900e-001

1.24833054890161e+004,-7.93343834765546e-001,-1.48409501958797e-001

1.26575659397028e+004,-7.93343780795698e-001,-1.50481223280314e-001

1.28342589756290e+004,-7.93343725308982e-001,-1.52581864832814e-001

1.30134185544193e+004,-7.93343668262614e-001,-1.54711830331983e-001

1.31950791077289e+004,-7.93343609612829e-001,-1.56871529127907e-001

1.33792755478611e+004,-7.93343549314512e-001,-1.59061376285930e-001

1.35660432744767e+004,-7.93343487321380e-001,-1.61281792665065e-001

1.37554181813974e+004,-7.93343423585820e-001,-1.63533204999836e-001

1.39474366635040e+004,-7.93343358058775e-001,-1.65816045981967e-001

1.41421356237309e+004,-7.93343290689993e-001,-1.68130754343425e-001

1.43395524801583e+004,-7.93343221427720e-001,-1.70477774940436e-001

1.45397251732031e+004,-7.93343150218751e-001,-1.72857558839813e-001

1.47426921729110e+004,-7.93343077008451e-001,-1.75270563404652e-001

1.49484924863494e+004,-7.93343001740309e-001,-1.77717252384628e-001

1.51571656651040e+004,-7.93342924356794e-001,-1.80198096001085e-001

1.53687518128801e+004,-7.93342844798445e-001,-1.82713571039938e-001

1.55832915932100e+004,-7.93342763003891e-001,-1.85264160945337e-001

1.58008262372675e+004,-7.93342678910695e-001,-1.87850355906620e-001

1.60213975517924e+004,-7.93342592454010e-001,-1.90472652959445e-001

1.62450479271247e+004,-7.93342503567501e-001,-1.93131556076321e-001

1.64718203453514e+004,-7.93342412182837e-001,-1.95827576266106e-001

1.67017583885674e+004,-7.93342318229903e-001,-1.98561231670791e-001

1.69349062472505e+004,-7.93342221636538e-001,-2.01333047665768e-001

1.71713087287550e+004,-7.93342122328649e-001,-2.04143556960148e-001

1.74110112659224e+004,-7.93342020229810e-001,-2.06993299701352e-001

1.76540599258131e+004,-7.93341915261690e-001,-2.09882823575948e-001

1.79005014185594e+004,-7.93341807343713e-001,-2.12812683916624e-001

1.81503831063432e+004,-7.93341696393046e-001,-2.15783443808057e-001

1.84037530124975e+004,-7.93341582324311e-001,-2.18795674197609e-001

1.86606598307361e+004,-7.93341465050230e-001,-2.21849953999968e-001

1.89211529345119e+004,-7.93341344480483e-001,-2.24946870215281e-001

1.91852823865052e+004,-7.93341220522667e-001,-2.28087018035002e-001

1.94530989482457e+004,-7.93341093081526e-001,-2.31271000962137e-001

1.97246540898671e+004,-7.93340962059290e-001,-2.34499430922964e-001

1.99999999999999e+004,-7.93340827355273e-001,-2.37772928388029e-001

2.02791895958005e+004,-7.93340688866249e-001,-2.41092122488075e-001

2.05622765331213e+004,-7.93340546485797e-001,-2.44457651137966e-001

2.08493152168224e+004,-7.93340400104602e-001,-2.47870161158184e-001

2.11403608112276e+004,-7.93340249610406e-001,-2.51330308398014e-001

2.14354692507258e+004,-7.93340094887604e-001,-2.54838757864009e-001

2.17346972505211e+004,-7.93339935817548e-001,-2.58396183845053e-001

2.20381023175322e+004,-7.93339772278165e-001,-2.62003270044212e-001

2.23457427614443e+004,-7.93339604143911e-001,-2.65660709709767e-001

2.26576777059159e+004,-7.93339431285667e-001,-2.69369205768041e-001

2.29739670999406e+004,-7.93339253570998e-001,-2.73129470957285e-001

2.32946717293690e+004,-7.93339070863478e-001,-2.76942227967049e-001

2.36198532285905e+004,-7.93338883022866e-001,-2.80808209576561e-001

2.39495740923785e+004,-7.93338689905089e-001,-2.84728158794212e-001

2.42838976879009e+004,-7.93338491362023e-001,-2.88702829001451e-001

2.46228882668982e+004,-7.93338287241391e-001,-2.92732984097427e-001

2.49666109780322e+004,-7.93338077386551e-001,-2.96819398646226e-001

2.53151318794055e+004,-7.93337861636633e-001,-3.00962858025168e-001

2.56685179512580e+004,-7.93337639826033e-001,-3.05164158576689e-001

2.60268371088386e+004,-7.93337411784823e-001,-3.09424107759297e-001

2.63901582154578e+004,-7.93337177338027e-001,-3.13743524306082e-001

2.67585510957221e+004,-7.93336936305877e-001,-3.18123238379652e-001

2.71320865489533e+004,-7.93336688503575e-001,-3.22564091732256e-001

2.75108363627948e+004,-7.93336433741124e-001,-3.27066937868281e-001

2.78948733270080e+004,-7.93336171823253e-001,-3.31632642207595e-001

2.82842712474618e+004,-7.93335902549190e-001,-3.36262082252257e-001

2.86791049603164e+004,-7.93335625712470e-001,-3.40956147755723e-001

2.90794503464061e+004,-7.93335341101080e-001,-3.45715740892570e-001

2.94853843458219e+004,-7.93335048496717e-001,-3.50541776433940e-001

2.98969849726987e+004,-7.93334747675221e-001,-3.55435181921799e-001

3.03143313302078e+004,-7.93334438406096e-001,-3.60396897847660e-001

3.07375036257601e+004,-7.93334120452453e-001,-3.65427877833366e-001

3.11665831864199e+004,-7.93333793570697e-001,-3.70529088815324e-001

3.16016524745350e+004,-7.93333457510381e-001,-3.75701511229635e-001

3.20427951035848e+004,-7.93333112014081e-001,-3.80946139200886e-001

3.24900958542493e+004,-7.93332756817277e-001,-3.86263980732421e-001

3.29436406907028e+004,-7.93332391647926e-001,-3.91656057901928e-001

3.34035167771346e+004,-7.93332016226458e-001,-3.97123407056502e-001

3.38698124945009e+004,-7.93331630265357e-001,-4.02667079013019e-001

3.43426174575100e+004,-7.93331233469275e-001,-4.08288139258748e-001

3.48220225318448e+004,-7.93330825534453e-001,-4.13987668157888e-001

3.53081198516260e+004,-7.93330406148705e-001,-4.19766761158419e-001

3.58010028371187e+004,-7.93329974991087e-001,-4.25626529002999e-001

3.63007662126863e+004,-7.93329531731622e-001,-4.31568097943095e-001

3.68075060249948e+004,-7.93329076031301e-001,-4.37592609954234e-001

3.73213196614721e+004,-7.93328607541568e-001,-4.43701222956437e-001

3.78423058690237e+004,-7.93328125904037e-001,-4.49895111037763e-001

3.83705647730104e+004,-7.93327630750312e-001,-4.56175464679398e-001

3.89061978964912e+004,-7.93327121701954e-001,-4.62543490983469e-001

3.94493081797342e+004,-7.93326598369735e-001,-4.69000413906793e-001

3.99999999999998e+004,-7.93326060353632e-001,-4.75547474496675e-001

4.05583791916010e+004,-7.93325507242449e-001,-4.82185931127649e-001

4.11245530662425e+004,-7.93324938613513e-001,-4.88917059745698e-001

4.16986304336447e+004,-7.93324354032484e-001,-4.95742154111435e-001

4.22807216224550e+004,-7.93323753052661e-001,-5.02662526051963e-001

4.28709385014515e+004,-7.93323135215225e-001,-5.09679505709614e-001

4.34693945010421e+004,-7.93322500048340e-001,-5.16794441800836e-001

4.40762046350642e+004,-7.93321847067003e-001,-5.24008701874919e-001

4.46914855228886e+004,-7.93321175772823e-001,-5.31323672575926e-001

4.53153554118317e+004,-7.93320485653570e-001,-5.38740759910295e-001

4.59479341998812e+004,-7.93319776182636e-001,-5.46261389517848e-001

4.65893434587380e+004,-7.93319046818755e-001,-5.53887006945635e-001

4.72397064571810e+004,-7.93318297005698e-001,-5.61619077925390e-001

4.78991481847569e+004,-7.93317526171693e-001,-5.69459088656803e-001

4.85677953758016e+004,-7.93316733729097e-001,-5.77408546092988e-001

4.92457765337964e+004,-7.93315919073962e-001,-5.85468978229798e-001

4.99332219560642e+004,-7.93315081585451e-001,-5.93641934400833e-001

5.06302637588109e+004,-7.93314220625653e-001,-6.01928985574928e-001

5.13370359025159e+004,-7.93313335538761e-001,-6.10331724659409e-001

5.20536742176771e+004,-7.93312425650883e-001,-6.18851766805383e-001

5.27803164309155e+004,-7.93311490269443e-001,-6.27490749719080e-001

5.35171021914442e+004,-7.93310528682465e-001,-6.36250333978302e-001

5.42641730979066e+004,-7.93309540158418e-001,-6.45132203350032e-001

5.50216727255895e+004,-7.93308523945489e-001,-6.54138065115245e-001

5.57897466540159e+004,-7.93307479270914e-001,-6.63269650398489e-001

5.65685424949235e+004,-7.93306405340602e-001,-6.72528714499854e-001

5.73582099206328e+004,-7.93305301338425e-001,-6.81917037233862e-001

5.81589006928121e+004,-7.93304166425741e-001,-6.91436423271087e-001

5.89707686916437e+004,-7.93302999740632e-001,-7.01088702486629e-001

5.97939699453972e+004,-7.93301800397395e-001,-7.10875730311836e-001

6.06286626604156e+004,-7.93300567485827e-001,-7.20799388091371e-001

6.14750072515201e+004,-7.93299300070557e-001,-7.30861583445993e-001

6.23331663728396e+004,-7.93297997190341e-001,-7.41064250640003e-001

6.32033049490698e+004,-7.93296657857562e-001,-7.51409350952580e-001

6.40855902071694e+004,-7.93295281057062e-001,-7.61898873057291e-001

6.49801917084985e+004,-7.93293865746092e-001,-7.72534833402316e-001

6.58872813814055e+004,-7.93292410852763e-001,-7.83319276602392e-001

6.68070335542691e+004,-7.93290915275908e-001,-7.94254275829865e-001

6.77396249890018e+004,-7.93289377883914e-001,-8.05341933214650e-001

6.86852349150199e+004,-7.93287797514069e-001,-8.16584380250116e-001

6.96440450636895e+004,-7.93286172971635e-001,-8.27983778202285e-001

7.06162397032520e+004,-7.93284503029194e-001,-8.39542318526801e-001

7.16020056742374e+004,-7.93282786425415e-001,-8.51262223291644e-001

7.26015324253724e+004,-7.93281021864345e-001,-8.63145745604749e-001

7.36150120499896e+004,-7.93279208014587e-001,-8.75195170047677e-001

7.46426393229441e+004,-7.93277343508167e-001,-8.87412813116587e-001

7.56846117380472e+004,-7.93275426939612e-001,-8.99801023667949e-001

7.67411295460207e+004,-7.93273456864926e-001,-9.12362183372588e-001

7.78123957929823e+004,-7.93271431800672e-001,-9.25098707172187e-001

7.88986163594682e+004,-7.93269350222742e-001,-9.38013043747118e-001

7.99999999999995e+004,-7.93267210565445e-001,-9.51107675987285e-001

8.11167583832018e+004,-7.93265011220310e-001,-9.64385121470743e-001

8.22491061324848e+004,-7.93262750534938e-001,-9.77847932949148e-001

8.33972608672892e+004,-7.93260426811838e-001,-9.91498698839936e-001

8.45614432449099e+004,-7.93258038307298e-001,-1.00534004372548e+000

8.57418770029029e+004,-7.93255583230126e-001,-1.01937462885854e+000

8.69387890020841e+004,-7.93253059740383e-001,-1.03360515267603e+000

8.81524092701283e+004,-7.93250465948023e-001,-1.04803435131944e+000

8.93829710457770e+004,-7.93247799911781e-001,-1.06266499916116e+000

9.06307108236633e+004,-7.93245059637669e-001,-1.07749990934104e+000

9.18958683997622e+004,-7.93242243077521e-001,-1.09254193430902e+000

9.31786869174758e+004,-7.93239348127703e-001,-1.10779396637404e+000

9.44794129143618e+004,-7.93236372627733e-001,-1.12325893826259e+000

9.57982963695136e+004,-7.93233314358581e-001,-1.13893982368469e+000

9.71355907516031e+004,-7.93230171041238e-001,-1.15483963790770e+000

9.84915530675926e+004,-7.93226940335245e-001,-1.17096143833700e+000

9.98664439121282e+004,-7.93223619836926e-001,-1.18730832510742e+000

1.01260527517622e+005,-7.93220207077938e-001,-1.20388344167995e+000

1.02674071805032e+005,-7.93216699523316e-001,-1.22068997545003e+000

1.04107348435354e+005,-7.93213094570065e-001,-1.23773115836081e+000

1.05560632861831e+005,-7.93209389545175e-001,-1.25501026752834e+000

1.07034204382888e+005,-7.93205581703930e-001,-1.27253062587338e+000

1.08528346195813e+005,-7.93201668228087e-001,-1.29029560276292e+000

1.10043345451179e+005,-7.93197646223764e-001,-1.30830861466115e+000

1.11579493308032e+005,-7.93193512719723e-001,-1.32657312578832e+000

1.13137084989847e+005,-7.93189264665385e-001,-1.34509264878976e+000

1.14716419841265e+005,-7.93184898928668e-001,-1.36387074541414e+000

1.16317801385624e+005,-7.93180412293961e-001,-1.38291102720158e+000

1.17941537383287e+005,-7.93175801460077e-001,-1.40221715618011e+000

1.19587939890794e+005,-7.93171063037903e-001,-1.42179284557432e+000

1.21257325320831e+005,-7.93166193548353e-001,-1.44164186052094e+000

1.22950014503040e+005,-7.93161189419968e-001,-1.46176801879697e+000

1.24666332745679e+005,-7.93156046986531e-001,-1.48217519155723e+000

1.26406609898139e+005,-7.93150762484890e-001,-1.50286730408112e+000

1.28171180414339e+005,-7.93145332052271e-001,-1.52384833653214e+000

1.29960383416997e+005,-7.93139751723909e-001,-1.54512232472589e+000

1.31774562762811e+005,-7.93134017430372e-001,-1.56669336091038e+000

1.33614067108538e+005,-7.93128124995185e-001,-1.58856559455584e+000

1.35479249978003e+005,-7.93122070131666e-001,-1.61074323315788e+000

1.37370469830040e+005,-7.93115848440764e-001,-1.63323054304868e+000

1.39288090127379e+005,-7.93109455407695e-001,-1.65603185022331e+000

1.41232479406504e+005,-7.93102886399584e-001,-1.67915154117375e+000

1.43204011348474e+005,-7.93096136661961e-001,-1.70259406373842e+000

1.45203064850745e+005,-7.93089201316203e-001,-1.72636392796029e+000

1.47230024099979e+005,-7.93082075356229e-001,-1.75046570695926e+000

1.49285278645888e+005,-7.93074753645297e-001,-1.77490403781623e+000

1.51369223476094e+005,-7.93067230913000e-001,-1.79968362246825e+000

1.53482259092041e+005,-7.93059501751575e-001,-1.82480922861868e+000

1.55624791585964e+005,-7.93051560612906e-001,-1.85028569065777e+000

1.57797232718936e+005,-7.93043401804819e-001,-1.87611791059718e+000

1.59999999999999e+005,-7.93035019487510e-001,-1.90231085901799e+000

1.62233516766403e+005,-7.93026407670008e-001,-1.92886957603092e+000

1.64498212264969e+005,-7.93017560206425e-001,-1.95579917225104e+000

1.66794521734578e+005,-7.93008470792091e-001,-1.98310482978496e+000

1.69122886489819e+005,-7.92999132959637e-001,-2.01079180323341e+000

1.71483754005805e+005,-7.92989540074997e-001,-2.03886542070603e+000

1.73877578004168e+005,-7.92979685333426e-001,-2.06733108485149e+000

1.76304818540256e+005,-7.92969561755035e-001,-2.09619427390223e+000

1.78765942091554e+005,-7.92959162180652e-001,-2.12546054273293e+000

1.81261421647326e+005,-7.92948479267413e-001,-2.15513552393402e+000

1.83791736799524e+005,-7.92937505484137e-001,-2.18522492890025e+000

1.86357373834951e+005,-7.92926233106776e-001,-2.21573454893523e+000

1.88958825828723e+005,-7.92914654213514e-001,-2.24667025636992e+000

1.91596592739027e+005,-7.92902760679928e-001,-2.27803800569788e+000

1.94271181503206e+005,-7.92890544174153e-001,-2.30984383472563e+000

1.96983106135185e+005,-7.92877996151468e-001,-2.34209386573954e+000

1.99732887824256e+005,-7.92865107849090e-001,-2.37479430668936e+000

2.02521055035243e+005,-7.92851870280821e-001,-2.40795145238661e+000

2.05348143610063e+005,-7.92838274231486e-001,-2.44157168572160e+000

2.08214696870707e+005,-7.92824310251094e-001,-2.47566147889637e+000

2.11121265723661e+005,-7.92809968648979e-001,-2.51022739467503e+000

2.14068408765776e+005,-7.92795239487880e-001,-2.54527608765151e+000

2.17056692391625e+005,-7.92780112577610e-001,-2.58081430553474e+000

2.20086690902357e+005,-7.92764577468718e-001,-2.61684889045228e+000

2.23158986616063e+005,-7.92748623445911e-001,-2.65338678027146e+000

2.26274169979693e+005,-7.92732239521264e-001,-2.69043500993954e+000

2.29432839682530e+005,-7.92715414427265e-001,-2.72800071284214e+000

2.32635602771247e+005,-7.92698136609775e-001,-2.76609112218021e+000

2.35883074766574e+005,-7.92680394220476e-001,-2.80471357236740e+000

2.39175879781588e+005,-7.92662175109457e-001,-2.84387550044532e+000

2.42514650641661e+005,-7.92643466817194e-001,-2.88358444752015e+000

2.45900029006080e+005,-7.92624256566606e-001,-2.92384806021778e+000

2.49332665491357e+005,-7.92604531254898e-001,-2.96467409215995e+000

2.52813219796278e+005,-7.92584277444690e-001,-3.00607040546135e+000

2.56342360828676e+005,-7.92563481355297e-001,-3.04804497224712e+000

2.59920766833993e+005,-7.92542128853866e-001,-3.09060587619072e+000

2.63549125525621e+005,-7.92520205445536e-001,-3.13376131407547e+000

2.67228134217075e+005,-7.92497696264150e-001,-3.17751959737550e+000

2.70958499956006e+005,-7.92474586061980e-001,-3.22188915386067e+000

2.74740939660078e+005,-7.92450859199482e-001,-3.26687852922237e+000

2.78576180254757e+005,-7.92426499634754e-001,-3.31249638872350e+000

2.82464958813007e+005,-7.92401490912226e-001,-3.35875151887088e+000

2.86408022696948e+005,-7.92375816151610e-001,-3.40565282911097e+000

2.90406129701488e+005,-7.92349458035839e-001,-3.45320935354997e+000

2.94460048199957e+005,-7.92322398799250e-001,-3.50143025269737e+000

2.98570557291775e+005,-7.92294620214690e-001,-3.55032481523509e+000

3.02738446952187e+005,-7.92266103580930e-001,-3.59990245981018e+000

3.06964518184081e+005,-7.92236829708960e-001,-3.65017273685442e+000

3.11249583171928e+005,-7.92206778908257e-001,-3.70114533042824e+000

3.15594465437872e+005,-7.92175930972614e-001,-3.75283006009139e+000

3.19999999999997e+005,-7.92144265165153e-001,-3.80523688280065e+000

3.24467033532806e+005,-7.92111760203213e-001,-3.85837589483313e+000

3.28996424529938e+005,-7.92078394242501e-001,-3.91225733373821e+000

3.33589043469155e+005,-7.92044144860860e-001,-3.96689158031703e+000

3.38245772979638e+005,-7.92008989041351e-001,-4.02228916062962e+000

3.42967508011610e+005,-7.91972903154822e-001,-4.07846074803154e+000

3.47755156008335e+005,-7.91935862942190e-001,-4.13541716523901e+000

3.52609637080511e+005,-7.91897843495523e-001,-4.19316938642488e+000

3.57531884183106e+005,-7.91858819239181e-001,-4.25172853934304e+000

3.62522843294651e+005,-7.91818763909790e-001,-4.31110590748526e+000

3.67583473599047e+005,-7.91777650536037e-001,-4.37131293226752e+000

3.72714747669902e+005,-7.91735451417478e-001,-4.43236121524965e+000

3.77917651657445e+005,-7.91692138102639e-001,-4.49426252038636e+000

3.83193185478053e+005,-7.91647681366942e-001,-4.55702877631040e+000

3.88542363006410e+005,-7.91602051189142e-001,-4.62067207865056e+000

3.93966212270369e+005,-7.91555216727758e-001,-4.68520469238224e+000

3.99465775648511e+005,-7.91507146296302e-001,-4.75063905421305e+000

4.05042110070485e+005,-7.91457807337998e-001,-4.81698777500320e+000

4.10696287220124e+005,-7.91407166399615e-001,-4.88426364222166e+000

4.16429393741414e+005,-7.91355189104475e-001,-4.95247962243854e+000

4.22242531447321e+005,-7.91301840124881e-001,-5.02164886385407e+000

4.28136817531551e+005,-7.91247083153380e-001,-5.09178469886544e+000

4.34113384783250e+005,-7.91190880873575e-001,-5.16290064667094e+000

4.40173381804713e+005,-7.91133194929775e-001,-5.23501041591373e+000

4.46317973232124e+005,-7.91073985895905e-001,-5.30812790736447e+000

4.52548339959385e+005,-7.91013213243526e-001,-5.38226721664408e+000

4.58865679365059e+005,-7.90950835309036e-001,-5.45744263698736e+000

4.65271205542494e+005,-7.90886809259849e-001,-5.53366866204731e+000

4.71766149533147e+005,-7.90821091059563e-001,-5.61095998874283e+000

4.78351759563174e+005,-7.90753635432469e-001,-5.68933152014795e+000

4.85029301283321e+005,-7.90684395826862e-001,-5.76879836842508e+000

4.91800058012158e+005,-7.90613324377511e-001,-5.84937585780284e+000

4.98665330982714e+005,-7.90540371866916e-001,-5.93107952759826e+000

5.05626439592555e+005,-7.90465487685997e-001,-6.01392513528469e+000

5.12684721657352e+005,-7.90388619793186e-001,-6.09792865960714e+000

5.19841533667984e+005,-7.90309714673108e-001,-6.18310630374338e+000

5.27098251051240e+005,-7.90228717293717e-001,-6.26947449851421e+000

5.34456268434150e+005,-7.90145571062515e-001,-6.35704990564225e+000

5.41916999912011e+005,-7.90060217781788e-001,-6.44584942106036e+000

