Freq.,VOut,OutRef

1.00000000000000e+004,-1.58267691401731e+000,-8.15946903249766e-002

1.01395947979003e+004,-1.58267690337484e+000,-8.27337077619136e-002

1.02811382665607e+004,-1.58267689243275e+000,-8.38886252058727e-002

1.04246576084112e+004,-1.58267688118265e+000,-8.50596646082766e-002

1.05701804056138e+004,-1.58267686961589e+000,-8.62470510196257e-002

1.07177346253629e+004,-1.58267685772348e+000,-8.74510126320796e-002

1.08673486252606e+004,-1.58267684549634e+000,-8.86717808221451e-002

1.10190511587661e+004,-1.58267683292489e+000,-8.99095901975159e-002

1.11728713807222e+004,-1.58267681999959e+000,-9.11646786388571e-002

1.13288388529580e+004,-1.58267680671057e+000,-9.24372873478247e-002

1.14869835499703e+004,-1.58267679304723e+000,-9.37276608955174e-002

1.16473358646846e+004,-1.58267677899909e+000,-9.50360472641148e-002

1.18099266142953e+004,-1.58267676455546e+000,-9.63626978974159e-002

1.19747870461893e+004,-1.58267674970524e+000,-9.77078677490855e-002

1.21419488439505e+004,-1.58267673443670e+000,-9.90718153336369e-002

1.23114441334492e+004,-1.58267671873834e+000,-1.00454802770889e-001

1.24833054890161e+004,-1.58267670259781e+000,-1.01857095842409e-001

1.26575659397028e+004,-1.58267668600263e+000,-1.03278964038249e-001

1.28342589756290e+004,-1.58267666894014e+000,-1.04720680609632e-001

1.30134185544193e+004,-1.58267665139707e+000,-1.06182522622825e-001

1.31950791077289e+004,-1.58267663335968e+000,-1.07664771012470e-001

1.33792755478611e+004,-1.58267661481442e+000,-1.09167710630951e-001

1.35660432744767e+004,-1.58267659574655e+000,-1.10691630311517e-001

1.37554181813974e+004,-1.58267657614158e+000,-1.12236822915182e-001

1.39474366635040e+004,-1.58267655598425e+000,-1.13803585392892e-001

1.41421356237309e+004,-1.58267653525890e+000,-1.15392218839991e-001

1.43395524801583e+004,-1.58267651394968e+000,-1.17003028553887e-001

1.45397251732031e+004,-1.58267649203990e+000,-1.18636324094960e-001

1.47426921729110e+004,-1.58267646951261e+000,-1.20292419343394e-001

1.49484924863494e+004,-1.58267644635052e+000,-1.21971632559792e-001

1.51571656651040e+004,-1.58267642253558e+000,-1.23674286448804e-001

1.53687518128801e+004,-1.58267639804940e+000,-1.25400708218015e-001

1.55832915932100e+004,-1.58267637287305e+000,-1.27151229642363e-001

1.58008262372675e+004,-1.58267634698683e+000,-1.28926187129641e-001

1.60213975517924e+004,-1.58267632037073e+000,-1.30725921780750e-001

1.62450479271247e+004,-1.58267629300433e+000,-1.32550779457548e-001

1.64718203453514e+004,-1.58267626486612e+000,-1.34401110851736e-001

1.67017583885674e+004,-1.58267623593462e+000,-1.36277271546493e-001

1.69349062472505e+004,-1.58267620618699e+000,-1.38179622092363e-001

1.71713087287550e+004,-1.58267617560037e+000,-1.40108528068993e-001

1.74110112659224e+004,-1.58267614415091e+000,-1.42064360160091e-001

1.76540599258131e+004,-1.58267611181437e+000,-1.44047494221899e-001

1.79005014185594e+004,-1.58267607856541e+000,-1.46058311358870e-001

1.81503831063432e+004,-1.58267604437833e+000,-1.48097197992725e-001

1.84037530124975e+004,-1.58267600922666e+000,-1.50164545938893e-001

1.86606598307361e+004,-1.58267597308281e+000,-1.52260752483556e-001

1.89211529345119e+004,-1.58267593591897e+000,-1.54386220454553e-001

1.91852823865052e+004,-1.58267589770594e+000,-1.56541358305672e-001

1.94530989482457e+004,-1.58267585841418e+000,-1.58726580188656e-001

1.97246540898671e+004,-1.58267581801306e+000,-1.60942306037087e-001

1.99999999999999e+004,-1.58267577647114e+000,-1.63188961645322e-001

2.02791895958005e+004,-1.58267573375597e+000,-1.65466978750630e-001

2.05622765331213e+004,-1.58267568983449e+000,-1.67776795114756e-001

2.08493152168224e+004,-1.58267564467218e+000,-1.70118854612163e-001

2.11403608112276e+004,-1.58267559823402e+000,-1.72493607308804e-001

2.14354692507258e+004,-1.58267555048361e+000,-1.74901509555260e-001

2.17346972505211e+004,-1.58267550138386e+000,-1.77343024068491e-001

2.20381023175322e+004,-1.58267545089641e+000,-1.79818620024743e-001

2.23457427614443e+004,-1.58267539898183e+000,-1.82328773148226e-001

2.26576777059159e+004,-1.58267534559950e+000,-1.84873965802772e-001

2.29739670999406e+004,-1.58267529070763e+000,-1.87454687084179e-001

2.32946717293690e+004,-1.58267523426348e+000,-1.90071432912939e-001

2.36198532285905e+004,-1.58267517622269e+000,-1.92724706132732e-001

2.39495740923785e+004,-1.58267511653995e+000,-1.95415016602994e-001

2.42838976879009e+004,-1.58267505516841e+000,-1.98142881300121e-001

2.46228882668982e+004,-1.58267499206013e+000,-2.00908824414089e-001

2.49666109780322e+004,-1.58267492716554e+000,-2.03713377451336e-001

2.53151318794055e+004,-1.58267486043368e+000,-2.06557079335779e-001

2.56685179512580e+004,-1.58267479181227e+000,-2.09440476511662e-001

2.60268371088386e+004,-1.58267472124733e+000,-2.12364123049529e-001

2.63901582154578e+004,-1.58267464868345e+000,-2.15328580752068e-001

2.67585510957221e+004,-1.58267457406371e+000,-2.18334419260822e-001

2.71320865489533e+004,-1.58267449732912e+000,-2.21382216170034e-001

2.75108363627948e+004,-1.58267441841953e+000,-2.24472557130014e-001

2.78948733270080e+004,-1.58267433727262e+000,-2.27606035967044e-001

2.82842712474618e+004,-1.58267425382450e+000,-2.30783254791894e-001

2.86791049603164e+004,-1.58267416800931e+000,-2.34004824119030e-001

2.90794503464061e+004,-1.58267407975938e+000,-2.37271362980936e-001

2.94853843458219e+004,-1.58267398900490e+000,-2.40583499049643e-001

2.98969849726987e+004,-1.58267389567413e+000,-2.43941868755138e-001

3.03143313302078e+004,-1.58267379969328e+000,-2.47347117407702e-001

3.07375036257601e+004,-1.58267370098638e+000,-2.50799899322650e-001

3.11665831864199e+004,-1.58267359947525e+000,-2.54300877945030e-001

3.16016524745350e+004,-1.58267349507929e+000,-2.57850725978286e-001

3.20427951035848e+004,-1.58267338771567e+000,-2.61450125511305e-001

3.24900958542493e+004,-1.58267327729915e+000,-2.65099768150687e-001

3.29436406907028e+004,-1.58267316374192e+000,-2.68800355153117e-001

3.34035167771346e+004,-1.58267304695358e+000,-2.72552597559734e-001

3.38698124945009e+004,-1.58267292684117e+000,-2.76357216332173e-001

3.43426174575100e+004,-1.58267280330889e+000,-2.80214942492137e-001

3.48220225318448e+004,-1.58267267625813e+000,-2.84126517260222e-001

3.53081198516260e+004,-1.58267254558749e+000,-2.88092692198444e-001

3.58010028371187e+004,-1.58267241119235e+000,-2.92114229355184e-001

3.63007662126863e+004,-1.58267227296529e+000,-2.96191901409573e-001

3.68075060249948e+004,-1.58267213079536e+000,-3.00326491822835e-001

3.73213196614721e+004,-1.58267198456870e+000,-3.04518794983605e-001

3.78423058690237e+004,-1.58267183416770e+000,-3.08769616365701e-001

3.83705647730104e+004,-1.58267167947151e+000,-3.13079772678811e-001

3.89061978964912e+004,-1.58267152035551e+000,-3.17450092026304e-001

3.94493081797342e+004,-1.58267135669151e+000,-3.21881414064054e-001

3.99999999999998e+004,-1.58267118834739e+000,-3.26374590161034e-001

4.05583791916010e+004,-1.58267101518724e+000,-3.30930483562316e-001

4.11245530662425e+004,-1.58267083707080e+000,-3.35549969556044e-001

4.16986304336447e+004,-1.58267065385386e+000,-3.40233935639270e-001

4.22807216224550e+004,-1.58267046538768e+000,-3.44983281689353e-001

4.28709385014515e+004,-1.58267027151920e+000,-3.49798920135002e-001

4.34693945010421e+004,-1.58267007209069e+000,-3.54681776132838e-001

4.40762046350642e+004,-1.58266986693962e+000,-3.59632787743122e-001

4.46914855228886e+004,-1.58266965589855e+000,-3.64652906111254e-001

4.53153554118317e+004,-1.58266943879506e+000,-3.69743095647584e-001

4.59479341998812e+004,-1.58266921545129e+000,-3.74904334214373e-001

4.65893434587380e+004,-1.58266898568421e+000,-3.80137613311861e-001

4.72397064571810e+004,-1.58266874930503e+000,-3.85443938268150e-001

4.78991481847569e+004,-1.58266850611933e+000,-3.90824328432421e-001

4.85677953758016e+004,-1.58266825592672e+000,-3.96279817369274e-001

4.92457765337964e+004,-1.58266799852051e+000,-4.01811453058149e-001

4.99332219560642e+004,-1.58266773368791e+000,-4.07420298091402e-001

5.06302637588109e+004,-1.58266746120941e+000,-4.13107429880526e-001

5.13370359025159e+004,-1.58266718085879e+000,-4.18873940860385e-001

5.20536742176771e+004,-1.58266689240283e+000,-4.24720938699288e-001

5.27803164309155e+004,-1.58266659560101e+000,-4.30649546510971e-001

5.35171021914442e+004,-1.58266629020568e+000,-4.36660903067510e-001

5.42641730979066e+004,-1.58266597596093e+000,-4.42756163022035e-001

5.50216727255895e+004,-1.58266565260335e+000,-4.48936497123856e-001

5.57897466540159e+004,-1.58266531986115e+000,-4.55203092446057e-001

5.65685424949235e+004,-1.58266497745397e+000,-4.61557152611783e-001

5.73582099206328e+004,-1.58266462509272e+000,-4.67999898023732e-001

5.81589006928121e+004,-1.58266426247919e+000,-4.74532566098941e-001

5.89707686916437e+004,-1.58266388930574e+000,-4.81156411503813e-001

5.97939699453972e+004,-1.58266350525506e+000,-4.87872706394966e-001

6.06286626604156e+004,-1.58266310999986e+000,-4.94682740661592e-001

6.14750072515201e+004,-1.58266270320226e+000,-5.01587822173663e-001

6.23331663728396e+004,-1.58266228451370e+000,-5.08589277030484e-001

6.32033049490698e+004,-1.58266185357456e+000,-5.15688449813962e-001

6.40855902071694e+004,-1.58266141001366e+000,-5.22886703846380e-001

6.49801917084985e+004,-1.58266095344799e+000,-5.30185421449899e-001

6.58872813814055e+004,-1.58266048348197e+000,-5.37586004212552e-001

6.68070335542691e+004,-1.58265999970755e+000,-5.45089873253317e-001

6.77396249890018e+004,-1.58265950170333e+000,-5.52698469495408e-001

6.86852349150199e+004,-1.58265898903432e+000,-5.60413253940190e-001

6.96440450636895e+004,-1.58265846125124e+000,-5.68235707947699e-001

7.06162397032520e+004,-1.58265791789021e+000,-5.76167333518132e-001

7.16020056742374e+004,-1.58265735847232e+000,-5.84209653578224e-001

7.26015324253724e+004,-1.58265678250274e+000,-5.92364212273401e-001

7.36150120499896e+004,-1.58265618947049e+000,-6.00632575260805e-001

7.46426393229441e+004,-1.58265557884773e+000,-6.09016330009486e-001

7.56846117380472e+004,-1.58265495008900e+000,-6.17517086102344e-001

7.67411295460207e+004,-1.58265430263105e+000,-6.26136475541995e-001

7.78123957929823e+004,-1.58265363589153e+000,-6.34876153065541e-001

7.88986163594682e+004,-1.58265294926891e+000,-6.43737796456128e-001

7.99999999999995e+004,-1.58265224214140e+000,-6.52723106865161e-001

8.11167583832018e+004,-1.58265151386631e+000,-6.61833809136195e-001

8.22491061324848e+004,-1.58265076377934e+000,-6.71071652133068e-001

8.33972608672892e+004,-1.58264999119384e+000,-6.80438409073450e-001

8.45614432449099e+004,-1.58264919539970e+000,-6.89935877867261e-001

8.57418770029029e+004,-1.58264837566289e+000,-6.99565881458184e-001

8.69387890020841e+004,-1.58264753122417e+000,-7.09330268172040e-001

8.81524092701283e+004,-1.58264666129848e+000,-7.19230912067839e-001

8.93829710457770e+004,-1.58264576507367e+000,-7.29269713295734e-001

9.06307108236633e+004,-1.58264484170980e+000,-7.39448598457138e-001

9.18958683997622e+004,-1.58264389033793e+000,-7.49769520973212e-001

9.31786869174758e+004,-1.58264291005902e+000,-7.60234461455385e-001

9.44794129143618e+004,-1.58264189994275e+000,-7.70845428084007e-001

9.57982963695136e+004,-1.58264085902654e+000,-7.81604456988079e-001

9.71355907516031e+004,-1.58263978631408e+000,-7.92513612634849e-001

9.84915530675926e+004,-1.58263868077427e+000,-8.03574988221310e-001

9.98664439121282e+004,-1.58263754133966e+000,-8.14790706073366e-001

1.01260527517622e+005,-1.58263636690531e+000,-8.26162918047876e-001

1.02674071805032e+005,-1.58263515632714e+000,-8.37693805944265e-001

1.04107348435354e+005,-1.58263390842066e+000,-8.49385581916740e-001

1.05560632861831e+005,-1.58263262195907e+000,-8.61240488897624e-001

1.07034204382888e+005,-1.58263129567207e+000,-8.73260801021077e-001

1.08528346195813e+005,-1.58262992824383e+000,-8.85448824057577e-001

1.10043345451179e+005,-1.58262851831138e+000,-8.97806895851005e-001

1.11579493308032e+005,-1.58262706446279e+000,-9.10337386763840e-001

1.13137084989847e+005,-1.58262556523522e+000,-9.23042700126777e-001

1.14716419841265e+005,-1.58262401911301e+000,-9.35925272695953e-001

1.16317801385624e+005,-1.58262242452561e+000,-9.48987575115980e-001

1.17941537383287e+005,-1.58262077984531e+000,-9.62232112389860e-001

1.19587939890794e+005,-1.58261908338543e+000,-9.75661424353102e-001

1.21257325320831e+005,-1.58261733339734e+000,-9.89278086159808e-001

1.22950014503040e+005,-1.58261552806883e+000,-1.00308470876792e+000

1.24666332745679e+005,-1.58261366552090e+000,-1.01708393943916e+000

1.26406609898139e+005,-1.58261174380570e+000,-1.03127846223900e+000

1.28171180414339e+005,-1.58260976090360e+000,-1.04567099854832e+000

1.29960383416997e+005,-1.58260771472042e+000,-1.06026430757992e+000

1.31774562762811e+005,-1.58260560308454e+000,-1.07506118690338e+000

1.33614067108538e+005,-1.58260342374374e+000,-1.09006447297690e+000

1.35479249978003e+005,-1.58260117436236e+000,-1.10527704168512e+000

1.37370469830040e+005,-1.58259885251777e+000,-1.12070180888706e+000

1.39288090127379e+005,-1.58259645569710e+000,-1.13634173097025e+000

1.41232479406504e+005,-1.58259398129360e+000,-1.15219980541276e+000

1.43204011348474e+005,-1.58259142660322e+000,-1.16827907135281e+000

1.45203064850745e+005,-1.58258878882052e+000,-1.18458261016786e+000

1.47230024099979e+005,-1.58258606503512e+000,-1.20111354605905e+000

1.49285278645888e+005,-1.58258325222721e+000,-1.21787504664794e+000

1.51369223476094e+005,-1.58258034726355e+000,-1.23487032357797e+000

1.53482259092041e+005,-1.58257734689312e+000,-1.25210263312618e+000

1.55624791585964e+005,-1.58257424774237e+000,-1.26957527682356e+000

1.57797232718936e+005,-1.58257104631067e+000,-1.28729160208427e+000

1.59999999999999e+005,-1.58256773896546e+000,-1.30525500284222e+000

1.62233516766403e+005,-1.58256432193700e+000,-1.32346892020011e+000

1.64498212264969e+005,-1.58256079131323e+000,-1.34193684308483e+000

1.66794521734578e+005,-1.58255714303442e+000,-1.36066230891259e+000

1.69122886489819e+005,-1.58255337288743e+000,-1.37964890426486e+000

1.71483754005805e+005,-1.58254947649995e+000,-1.39890026557339e+000

1.73877578004168e+005,-1.58254544933445e+000,-1.41842007981515e+000

1.76304818540256e+005,-1.58254128668215e+000,-1.43821208521616e+000

1.78765942091554e+005,-1.58253698365623e+000,-1.45828007196877e+000

1.81261421647326e+005,-1.58253253518552e+000,-1.47862788295520e+000

1.83791736799524e+005,-1.58252793600751e+000,-1.49925941448490e+000

1.86357373834951e+005,-1.58252318066128e+000,-1.52017861704029e+000

1.88958825828723e+005,-1.58251826348016e+000,-1.54138949603583e+000

1.91596592739027e+005,-1.58251317858433e+000,-1.56289611258535e+000

1.94271181503206e+005,-1.58250791987277e+000,-1.58470258428363e+000

1.96983106135185e+005,-1.58250248101561e+000,-1.60681308599723e+000

1.99732887824256e+005,-1.58249685544543e+000,-1.62923185066803e+000

2.02521055035243e+005,-1.58249103634929e+000,-1.65196317012797e+000

2.05348143610063e+005,-1.58248501665942e+000,-1.67501139592714e+000

2.08214696870707e+005,-1.58247878904450e+000,-1.69838094017285e+000

2.11121265723661e+005,-1.58247234590053e+000,-1.72207627638127e+000

2.14068408765776e+005,-1.58246567934092e+000,-1.74610194034309e+000

2.17056692391625e+005,-1.58245878118694e+000,-1.77046253099994e+000

2.20086690902357e+005,-1.58245164295765e+000,-1.79516271133671e+000

2.23158986616063e+005,-1.58244425585950e+000,-1.82020720928424e+000

2.26274169979693e+005,-1.58243661077572e+000,-1.84560081863792e+000

2.29432839682530e+005,-1.58242869825560e+000,-1.87134839998864e+000

2.32635602771247e+005,-1.58242050850315e+000,-1.89745488166864e+000

2.35883074766574e+005,-1.58241203136580e+000,-1.92392526071170e+000

2.39175879781588e+005,-1.58240325632263e+000,-1.95076460382656e+000

2.42514650641661e+005,-1.58239417247259e+000,-1.97797804838612e+000

2.45900029006080e+005,-1.58238476852193e+000,-2.00557080343254e+000

2.49332665491357e+005,-1.58237503277211e+000,-2.03354815069457e+000

2.52813219796278e+005,-1.58236495310668e+000,-2.06191544562364e+000

2.56342360828676e+005,-1.58235451697830e+000,-2.09067811844397e+000

2.59920766833993e+005,-1.58234371139557e+000,-2.11984167521772e+000

2.63549125525621e+005,-1.58233252290915e+000,-2.14941169892876e+000

2.67228134217075e+005,-1.58232093759832e+000,-2.17939385058042e+000

2.70958499956006e+005,-1.58230894105628e+000,-2.20979387031212e+000

2.74740939660078e+005,-1.58229651837632e+000,-2.24061757852990e+000

2.78576180254757e+005,-1.58228365413674e+000,-2.27187087705833e+000

2.82464958813007e+005,-1.58227033238629e+000,-2.30355975030479e+000

2.86408022696948e+005,-1.58225653662863e+000,-2.33569026644617e+000

2.90406129701488e+005,-1.58224224980730e+000,-2.36826857862953e+000

2.94460048199957e+005,-1.58222745428975e+000,-2.40130092619415e+000

2.98570557291775e+005,-1.58221213185154e+000,-2.43479363590882e+000

3.02738446952187e+005,-1.58219626366031e+000,-2.46875312323039e+000

3.06964518184081e+005,-1.58217983025906e+000,-2.50318589357971e+000

3.11249583171928e+005,-1.58216281154987e+000,-2.53809854363610e+000

3.15594465437872e+005,-1.58214518677677e+000,-2.57349776265347e+000

3.19999999999997e+005,-1.58212693450877e+000,-2.60939033379316e+000

3.24467033532806e+005,-1.58210803262248e+000,-2.64578313547820e+000

3.28996424529938e+005,-1.58208845828451e+000,-2.68268314276710e+000

3.33589043469155e+005,-1.58206818793367e+000,-2.72009742874868e+000

3.38245772979638e+005,-1.58204719726301e+000,-2.75803316595502e+000

3.42967508011610e+005,-1.58202546120135e+000,-2.79649762779837e+000

3.47755156008335e+005,-1.58200295389514e+000,-2.83549819002568e+000

3.52609637080511e+005,-1.58197964868925e+000,-2.87504233219685e+000

3.57531884183106e+005,-1.58195551810840e+000,-2.91513763918280e+000

3.62522843294651e+005,-1.58193053383767e+000,-2.95579180268547e+000

3.67583473599047e+005,-1.58190466670306e+000,-2.99701262277985e+000

3.72714747669902e+005,-1.58187788665189e+000,-3.03880800947769e+000

3.77917651657445e+005,-1.58185016273266e+000,-3.08118598431342e+000

3.83193185478053e+005,-1.58182146307470e+000,-3.12415468195323e+000

3.88542363006410e+005,-1.58179175486774e+000,-3.16772235182534e+000

3.93966212270369e+005,-1.58176100434089e+000,-3.21189735977516e+000

3.99465775648511e+005,-1.58172917674164e+000,-3.25668818974118e+000

4.05042110070485e+005,-1.58169623631402e+000,-3.30210344545683e+000

4.10696287220124e+005,-1.58166214627692e+000,-3.34815185217415e+000

4.16429393741414e+005,-1.58162686880188e+000,-3.39484225841142e+000

4.22242531447321e+005,-1.58159036499018e+000,-3.44218363772627e+000

4.28136817531551e+005,-1.58155259485000e+000,-3.49018509051151e+000

4.34113384783250e+005,-1.58151351727279e+000,-3.53885584581653e+000

4.40173381804713e+005,-1.58147309000923e+000,-3.58820526319370e+000

4.46317973232124e+005,-1.58143126964487e+000,-3.63824283456961e+000

4.52548339959385e+005,-1.58138801157493e+000,-3.68897818614181e+000

4.58865679365059e+005,-1.58134326997889e+000,-3.74042108030153e+000

4.65271205542494e+005,-1.58129699779416e+000,-3.79258141758268e+000

4.71766149533147e+005,-1.58124914668917e+000,-3.84546923863775e+000

4.78351759563174e+005,-1.58119966703610e+000,-3.89909472623901e+000

4.85029301283321e+005,-1.58114850788241e+000,-3.95346820730886e+000

4.91800058012158e+005,-1.58109561692197e+000,-4.00860015497637e+000

4.98665330982714e+005,-1.58104094046524e+000,-4.06450119066311e+000

5.05626439592555e+005,-1.58098442340855e+000,-4.12118208619578e+000

5.12684721657352e+005,-1.58092600920273e+000,-4.17865376594940e+000

5.19841533667984e+005,-1.58086563982043e+000,-4.23692730901876e+000

5.27098251051240e+005,-1.58080325572286e+000,-4.29601395141986e+000

5.34456268434150e+005,-1.58073879582496e+000,-4.35592508832255e+000

5.41916999912011e+005,-1.58067219746017e+000,-4.41667227631233e+000

