Freq.,VOut,OutRef

1.00000000000000e+004,-1.11303435077366e+001,-7.29661533807446e-002

1.01395947979003e+004,-1.11303438281946e+001,-7.39846803445418e-002

1.02811382665607e+004,-1.11303441576551e+001,-7.50174236061701e-002

1.04246576084112e+004,-1.11303444963704e+001,-7.60645815437359e-002

1.05701804056138e+004,-1.11303448446006e+001,-7.71263552964937e-002

1.07177346253629e+004,-1.11303452026123e+001,-7.82029488119420e-002

1.08673486252606e+004,-1.11303455706804e+001,-7.92945688788940e-002

1.10190511587661e+004,-1.11303459490870e+001,-8.04014251689208e-002

1.11728713807222e+004,-1.11303463381222e+001,-8.15237302778755e-002

1.13288388529580e+004,-1.11303467380843e+001,-8.26616997656425e-002

1.14869835499703e+004,-1.11303471492798e+001,-8.38155521952215e-002

1.16473358646846e+004,-1.11303475720240e+001,-8.49855091779711e-002

1.18099266142953e+004,-1.11303480066410e+001,-8.61717954117534e-002

1.19747870461893e+004,-1.11303484534637e+001,-8.73746387306421e-002

1.21419488439505e+004,-1.11303489128345e+001,-8.85942701417621e-002

1.23114441334492e+004,-1.11303493851055e+001,-8.98309238710792e-002

1.24833054890161e+004,-1.11303498706385e+001,-9.10848374098259e-002

1.26575659397028e+004,-1.11303503698059e+001,-9.23562515568072e-002

1.28342589756290e+004,-1.11303508829892e+001,-9.36454104730410e-002

1.30134185544193e+004,-1.11303514105822e+001,-9.49525617134491e-002

1.31950791077289e+004,-1.11303519529886e+001,-9.62779562881336e-002

1.33792755478611e+004,-1.11303525106241e+001,-9.76218487012998e-002

1.35660432744767e+004,-1.11303530839154e+001,-9.89844970056359e-002

1.37554181813974e+004,-1.11303536733015e+001,-1.00366162847199e-001

1.39474366635040e+004,-1.11303542792337e+001,-1.01767111517323e-001

1.41421356237309e+004,-1.11303549021757e+001,-1.03187612003633e-001

1.43395524801583e+004,-1.11303555426042e+001,-1.04627937040710e-001

1.45397251732031e+004,-1.11303562010097e+001,-1.06088363159155e-001

1.47426921729110e+004,-1.11303568778955e+001,-1.07569170745055e-001

1.49484924863494e+004,-1.11303575737799e+001,-1.09070644085842e-001

1.51571656651040e+004,-1.11303582891947e+001,-1.10593071432535e-001

1.53687518128801e+004,-1.11303590246876e+001,-1.12136745043382e-001

1.55832915932100e+004,-1.11303597808208e+001,-1.13701961252181e-001

1.58008262372675e+004,-1.11303605581727e+001,-1.15289020514312e-001

1.60213975517924e+004,-1.11303613573370e+001,-1.16898227472566e-001

1.62450479271247e+004,-1.11303621789253e+001,-1.18529891005175e-001

1.64718203453514e+004,-1.11303630235653e+001,-1.20184324292623e-001

1.67017583885674e+004,-1.11303638919021e+001,-1.21861844876882e-001

1.69349062472505e+004,-1.11303647845995e+001,-1.23562774715311e-001

1.71713087287550e+004,-1.11303657023392e+001,-1.25287440247533e-001

1.74110112659224e+004,-1.11303666458222e+001,-1.27036172456021e-001

1.76540599258131e+004,-1.11303676157689e+001,-1.28809306928490e-001

1.79005014185594e+004,-1.11303686129200e+001,-1.30607183918896e-001

1.81503831063432e+004,-1.11303696380364e+001,-1.32430148419501e-001

1.84037530124975e+004,-1.11303706919005e+001,-1.34278550217442e-001

1.86606598307361e+004,-1.11303717753164e+001,-1.36152743966791e-001

1.89211529345119e+004,-1.11303728891108e+001,-1.38053089252321e-001

1.91852823865052e+004,-1.11303740341328e+001,-1.39979950662015e-001

1.94530989482457e+004,-1.11303752112556e+001,-1.41933697849961e-001

1.97246540898671e+004,-1.11303764213765e+001,-1.43914705612745e-001

1.99999999999999e+004,-1.11303776654180e+001,-1.45923353953287e-001

2.02791895958005e+004,-1.11303789443278e+001,-1.47960028159029e-001

2.05622765331213e+004,-1.11303802590802e+001,-1.50025118871880e-001

2.08493152168224e+004,-1.11303816106766e+001,-1.52119022161092e-001

2.11403608112276e+004,-1.11303830001458e+001,-1.54242139601312e-001

2.14354692507258e+004,-1.11303844285456e+001,-1.56394878342243e-001

2.17346972505211e+004,-1.11303858969629e+001,-1.58577651193931e-001

2.20381023175322e+004,-1.11303874065146e+001,-1.60790876697429e-001

2.23457427614443e+004,-1.11303889583490e+001,-1.63034979204413e-001

2.26576777059159e+004,-1.11303905536458e+001,-1.65310388961868e-001

2.29739670999406e+004,-1.11303921936174e+001,-1.67617542188001e-001

2.32946717293690e+004,-1.11303938795099e+001,-1.69956881156819e-001

2.36198532285905e+004,-1.11303956126037e+001,-1.72328854280367e-001

2.39495740923785e+004,-1.11303973942148e+001,-1.74733916192300e-001

2.42838976879009e+004,-1.11303992256954e+001,-1.77172527834992e-001

2.46228882668982e+004,-1.11304011084352e+001,-1.79645156543130e-001

2.49666109780322e+004,-1.11304030438622e+001,-1.82152276134575e-001

2.53151318794055e+004,-1.11304050334436e+001,-1.84694366997928e-001

2.56685179512580e+004,-1.11304070786873e+001,-1.87271916179999e-001

2.60268371088386e+004,-1.11304091811428e+001,-1.89885417480215e-001

2.63901582154578e+004,-1.11304113424021e+001,-1.92535371541854e-001

2.67585510957221e+004,-1.11304135641012e+001,-1.95222285943023e-001

2.71320865489533e+004,-1.11304158479210e+001,-1.97946675295969e-001

2.75108363627948e+004,-1.11304181955885e+001,-2.00709061340342e-001

2.78948733270080e+004,-1.11304206088786e+001,-2.03509973037296e-001

2.82842712474618e+004,-1.11304230896144e+001,-2.06349946674696e-001

2.86791049603164e+004,-1.11304256396694e+001,-2.09229525961378e-001

2.90794503464061e+004,-1.11304282609684e+001,-2.12149262130290e-001

2.94853843458219e+004,-1.11304309554889e+001,-2.15109714040508e-001

2.98969849726987e+004,-1.11304337252625e+001,-2.18111448280684e-001

3.03143313302078e+004,-1.11304365723766e+001,-2.21155039273193e-001

3.07375036257601e+004,-1.11304394989755e+001,-2.24241069382400e-001

3.11665831864199e+004,-1.11304425072621e+001,-2.27370129019580e-001

3.16016524745350e+004,-1.11304455994996e+001,-2.30542816754881e-001

3.20427951035848e+004,-1.11304487780128e+001,-2.33759739425500e-001

3.24900958542493e+004,-1.11304520451895e+001,-2.37021512248573e-001

3.29436406907028e+004,-1.11304554034835e+001,-2.40328758931626e-001

3.34035167771346e+004,-1.11304588554142e+001,-2.43682111792683e-001

3.38698124945009e+004,-1.11304624035704e+001,-2.47082211870419e-001

3.43426174575100e+004,-1.11304660506107e+001,-2.50529709044952e-001

3.48220225318448e+004,-1.11304697992659e+001,-2.54025262157058e-001

3.53081198516260e+004,-1.11304736523408e+001,-2.57569539126180e-001

3.58010028371187e+004,-1.11304776127161e+001,-2.61163217075409e-001

3.63007662126863e+004,-1.11304816833506e+001,-2.64806982451637e-001

3.68075060249948e+004,-1.11304858672825e+001,-2.68501531153409e-001

3.73213196614721e+004,-1.11304901676327e+001,-2.72247568654807e-001

3.78423058690237e+004,-1.11304945876055e+001,-2.76045810136563e-001

3.83705647730104e+004,-1.11304991304920e+001,-2.79896980611139e-001

3.89061978964912e+004,-1.11305037996712e+001,-2.83801815060514e-001

3.94493081797342e+004,-1.11305085986131e+001,-2.87761058562402e-001

3.99999999999998e+004,-1.11305135308809e+001,-2.91775466426537e-001

4.05583791916010e+004,-1.11305186001329e+001,-2.95845804333767e-001

4.11245530662425e+004,-1.11305238101251e+001,-2.99972848469467e-001

4.16986304336447e+004,-1.11305291647141e+001,-3.04157385665636e-001

4.22807216224550e+004,-1.11305346678591e+001,-3.08400213538894e-001

4.28709385014515e+004,-1.11305403236246e+001,-3.12702140635988e-001

4.34693945010421e+004,-1.11305461361831e+001,-3.17063986576978e-001

4.40762046350642e+004,-1.11305521098177e+001,-3.21486582200256e-001

4.46914855228886e+004,-1.11305582489252e+001,-3.25970769709354e-001

4.53153554118317e+004,-1.11305645580184e+001,-3.30517402825120e-001

4.59479341998812e+004,-1.11305710417290e+001,-3.35127346935176e-001

4.65893434587380e+004,-1.11305777048111e+001,-3.39801479244869e-001

4.72397064571810e+004,-1.11305845521434e+001,-3.44540688934743e-001

4.78991481847569e+004,-1.11305915887326e+001,-3.49345877314459e-001

4.85677953758016e+004,-1.11305988197165e+001,-3.54217957983229e-001

4.92457765337964e+004,-1.11306062503673e+001,-3.59157856985239e-001

4.99332219560642e+004,-1.11306138860944e+001,-3.64166512975018e-001

5.06302637588109e+004,-1.11306217324480e+001,-3.69244877379127e-001

5.13370359025159e+004,-1.11306297951221e+001,-3.74393914562227e-001

5.20536742176771e+004,-1.11306380799584e+001,-3.79614601992330e-001

5.27803164309155e+004,-1.11306465929492e+001,-3.84907930410408e-001

5.35171021914442e+004,-1.11306553402414e+001,-3.90274903999319e-001

5.42641730979066e+004,-1.11306643281393e+001,-3.95716540560019e-001

5.50216727255895e+004,-1.11306735631093e+001,-4.01233871680212e-001

5.57897466540159e+004,-1.11306830517828e+001,-4.06827942913839e-001

5.65685424949235e+004,-1.11306928009598e+001,-4.12499813959575e-001

5.73582099206328e+004,-1.11307028176134e+001,-4.18250558836556e-001

5.81589006928121e+004,-1.11307131088932e+001,-4.24081266068804e-001

5.89707686916437e+004,-1.11307236821291e+001,-4.29993038867626e-001

5.97939699453972e+004,-1.11307345448355e+001,-4.35986995317358e-001

6.06286626604156e+004,-1.11307457047151e+001,-4.42064268561066e-001

6.14750072515201e+004,-1.11307571696635e+001,-4.48226006988859e-001

6.23331663728396e+004,-1.11307689477721e+001,-4.54473374432768e-001

6.32033049490698e+004,-1.11307810473336e+001,-4.60807550352733e-001

6.40855902071694e+004,-1.11307934768456e+001,-4.67229730035087e-001

6.49801917084985e+004,-1.11308062450142e+001,-4.73741124790962e-001

6.58872813814055e+004,-1.11308193607595e+001,-4.80342962147901e-001

6.68070335542691e+004,-1.11308328332190e+001,-4.87036486055334e-001

6.77396249890018e+004,-1.11308466717523e+001,-4.93822957083105e-001

6.86852349150199e+004,-1.11308608859454e+001,-5.00703652627064e-001

6.96440450636895e+004,-1.11308754856149e+001,-5.07679867114857e-001

7.06162397032520e+004,-1.11308904808128e+001,-5.14752912210366e-001

7.16020056742374e+004,-1.11309058818303e+001,-5.21924117026228e-001

7.26015324253724e+004,-1.11309216992029e+001,-5.29194828333636e-001

7.36150120499896e+004,-1.11309379437147e+001,-5.36566410773586e-001

7.46426393229441e+004,-1.11309546264021e+001,-5.44040247075579e-001

7.56846117380472e+004,-1.11309717585595e+001,-5.51617738268220e-001

7.67411295460207e+004,-1.11309893517425e+001,-5.59300303904780e-001

7.78123957929823e+004,-1.11310074177730e+001,-5.67089382277844e-001

7.88986163594682e+004,-1.11310259687436e+001,-5.74986430643246e-001

7.99999999999995e+004,-1.11310450170213e+001,-5.82992925444946e-001

8.11167583832018e+004,-1.11310645752528e+001,-5.91110362537982e-001

8.22491061324848e+004,-1.11310846563676e+001,-5.99340257420038e-001

8.33972608672892e+004,-1.11311052735828e+001,-6.07684145457793e-001

8.45614432449099e+004,-1.11311264404078e+001,-6.16143582117445e-001

8.57418770029029e+004,-1.11311481706467e+001,-6.24720143201520e-001

8.69387890020841e+004,-1.11311704784038e+001,-6.33415425079675e-001

8.81524092701283e+004,-1.11311933780868e+001,-6.42231044927594e-001

8.93829710457770e+004,-1.11312168844104e+001,-6.51168640964219e-001

9.06307108236633e+004,-1.11312410123999e+001,-6.60229872693802e-001

9.18958683997622e+004,-1.11312657773951e+001,-6.69416421144969e-001

9.31786869174758e+004,-1.11312911950526e+001,-6.78729989118415e-001

9.44794129143618e+004,-1.11313172813501e+001,-6.88172301429612e-001

9.57982963695136e+004,-1.11313440525883e+001,-6.97745105158726e-001

9.71355907516031e+004,-1.11313715253941e+001,-7.07450169897831e-001

9.84915530675926e+004,-1.11313997167229e+001,-7.17289288005638e-001

9.98664439121282e+004,-1.11314286438610e+001,-7.27264274856663e-001

1.01260527517622e+005,-1.11314583244272e+001,-7.37376969100466e-001

1.02674071805032e+005,-1.11314887763747e+001,-7.47629232916590e-001

1.04107348435354e+005,-1.11315200179925e+001,-7.58022952274235e-001

1.05560632861831e+005,-1.11315520679062e+001,-7.68560037194865e-001

1.07034204382888e+005,-1.11315849450791e+001,-7.79242422013045e-001

1.08528346195813e+005,-1.11316186688116e+001,-7.90072065644519e-001

1.10043345451179e+005,-1.11316532587424e+001,-8.01050951852071e-001

1.11579493308032e+005,-1.11316887348466e+001,-8.12181089516991e-001

1.13137084989847e+005,-1.11317251174356e+001,-8.23464512909158e-001

1.14716419841265e+005,-1.11317624271552e+001,-8.34903281964085e-001

1.16317801385624e+005,-1.11318006849839e+001,-8.46499482557395e-001

1.17941537383287e+005,-1.11318399122299e+001,-8.58255226786503e-001

1.19587939890794e+005,-1.11318801305281e+001,-8.70172653251611e-001

1.21257325320831e+005,-1.11319213618369e+001,-8.82253927340361e-001

1.22950014503040e+005,-1.11319636284328e+001,-8.94501241517031e-001

1.24666332745679e+005,-1.11320069529061e+001,-9.06916815610956e-001

1.26406609898139e+005,-1.11320513581550e+001,-9.19502897112276e-001

1.28171180414339e+005,-1.11320968673786e+001,-9.32261761468027e-001

1.29960383416997e+005,-1.11321435040699e+001,-9.45195712383916e-001

1.31774562762811e+005,-1.11321912920078e+001,-9.58307082126109e-001

1.33614067108538e+005,-1.11322402552477e+001,-9.71598231830951e-001

1.35479249978003e+005,-1.11322904181119e+001,-9.85071551815786e-001

1.37370469830040e+005,-1.11323418051782e+001,-9.98729461896168e-001

1.39288090127379e+005,-1.11323944412687e+001,-1.01257441170529e+000

1.41232479406504e+005,-1.11324483514364e+001,-1.02660888101852e+000

1.43204011348474e+005,-1.11325035609512e+001,-1.04083538008637e+000

1.45203064850745e+005,-1.11325600952851e+001,-1.05525644996667e+000

1.47230024099979e+005,-1.11326179800960e+001,-1.06987466286687e+000

1.49285278645888e+005,-1.11326772412098e+001,-1.08469262249180e+000

1.51369223476094e+005,-1.11327379046021e+001,-1.09971296439511e+000

1.53482259092041e+005,-1.11327999963779e+001,-1.11493835634045e+000

1.55624791585964e+005,-1.11328635427507e+001,-1.13037149866662e+000

1.57797232718936e+005,-1.11329285700196e+001,-1.14601512466297e+000

1.59999999999999e+005,-1.11329951045452e+001,-1.16187200095111e+000

1.62233516766403e+005,-1.11330631727240e+001,-1.17794492787540e+000

1.64498212264969e+005,-1.11331328009616e+001,-1.19423673990179e+000

1.66794521734578e+005,-1.11332040156441e+001,-1.21075030602567e+000

1.69122886489819e+005,-1.11332768431078e+001,-1.22748853019195e+000

1.71483754005805e+005,-1.11333513096078e+001,-1.24445435172353e+000

1.73877578004168e+005,-1.11334274412845e+001,-1.26165074575892e+000

1.76304818540256e+005,-1.11335052641285e+001,-1.27908072370773e+000

1.78765942091554e+005,-1.11335848039445e+001,-1.29674733371060e+000

1.81261421647326e+005,-1.11336660863121e+001,-1.31465366111963e+000

1.83791736799524e+005,-1.11337491365465e+001,-1.33280282898589e+000

1.86357373834951e+005,-1.11338339796562e+001,-1.35119799856764e+000

1.88958825828723e+005,-1.11339206402996e+001,-1.36984236984742e+000

1.91596592739027e+005,-1.11340091427396e+001,-1.38873918207110e+000

1.94271181503206e+005,-1.11340995107965e+001,-1.40789171429804e+000

1.96983106135185e+005,-1.11341917677991e+001,-1.42730328597428e+000

1.99732887824256e+005,-1.11342859365342e+001,-1.44697725752093e+000

2.02521055035243e+005,-1.11343820391942e+001,-1.46691703094089e+000

2.05348143610063e+005,-1.11344800973225e+001,-1.48712605045040e+000

2.08214696870707e+005,-1.11345801317588e+001,-1.50760780312585e+000

2.11121265723661e+005,-1.11346821625805e+001,-1.52836581957822e+000

2.14068408765776e+005,-1.11347862090441e+001,-1.54940367464622e+000

2.17056692391625e+005,-1.11348922895246e+001,-1.57072498811572e+000

2.20086690902357e+005,-1.11350004214533e+001,-1.59233342546358e+000

2.23158986616063e+005,-1.11351106212538e+001,-1.61423269862783e+000

2.26274169979693e+005,-1.11352229042775e+001,-1.63642656680244e+000

2.29432839682530e+005,-1.11353372847367e+001,-1.65891883726340e+000

2.32635602771247e+005,-1.11354537756373e+001,-1.68171336622197e+000

2.35883074766574e+005,-1.11355723887104e+001,-1.70481405970533e+000

2.39175879781588e+005,-1.11356931343420e+001,-1.72822487447295e+000

2.42514650641661e+005,-1.11358160215030e+001,-1.75194981895949e+000

2.45900029006080e+005,-1.11359410576775e+001,-1.77599295425416e+000

2.49332665491357e+005,-1.11360682487911e+001,-1.80035839511017e+000

2.52813219796278e+005,-1.11361975991382e+001,-1.82505031099149e+000

2.56342360828676e+005,-1.11363291113098e+001,-1.85007292715123e+000

2.59920766833993e+005,-1.11364627861202e+001,-1.87543052574925e+000

2.63549125525621e+005,-1.11365986225341e+001,-1.90112744700396e+000

2.67228134217075e+005,-1.11367366175946e+001,-1.92716809038173e+000

2.70958499956006e+005,-1.11368767663503e+001,-1.95355691582389e+000

2.74740939660078e+005,-1.11370190617844e+001,-1.98029844501304e+000

2.78576180254757e+005,-1.11371634947435e+001,-2.00739726267607e+000

2.82464958813007e+005,-1.11373100538686e+001,-2.03485801792796e+000

2.86408022696948e+005,-1.11374587255260e+001,-2.06268542565414e+000

2.90406129701488e+005,-1.11376094937410e+001,-2.09088426793252e+000

2.94460048199957e+005,-1.11377623401328e+001,-2.11945939549452e+000

2.98570557291775e+005,-1.11379172438512e+001,-2.14841572922695e+000

3.02738446952187e+005,-1.11380741815164e+001,-2.17775826171200e+000

3.06964518184081e+005,-1.11382331271598e+001,-2.20749205880815e+000

3.11249583171928e+005,-1.11383940521695e+001,-2.23762226126851e+000

3.15594465437872e+005,-1.11385569252373e+001,-2.26815408639755e+000

3.19999999999997e+005,-1.11387217123091e+001,-2.29909282974882e+000

3.24467033532806e+005,-1.11388883765400e+001,-2.33044386685511e+000

3.28996424529938e+005,-1.11390568782517e+001,-2.36221265499870e+000

3.33589043469155e+005,-1.11392271748946e+001,-2.39440473501689e+000

3.38245772979638e+005,-1.11393992210141e+001,-2.42702573314055e+000

3.42967508011610e+005,-1.11395729682214e+001,-2.46008136286507e+000

3.47755156008335e+005,-1.11397483651683e+001,-2.49357742685835e+000

3.52609637080511e+005,-1.11399253575279e+001,-2.52751981889352e+000

3.57531884183106e+005,-1.11401038879796e+001,-2.56191452581324e+000

3.62522843294651e+005,-1.11402838961993e+001,-2.59676762952216e+000

3.67583473599047e+005,-1.11404653188552e+001,-2.63208530900478e+000

3.72714747669902e+005,-1.11406480896093e+001,-2.66787384236517e+000

3.77917651657445e+005,-1.11408321391240e+001,-2.70413960889148e+000

3.83193185478053e+005,-1.11410173950745e+001,-2.74088909113871e+000

3.88542363006410e+005,-1.11412037821677e+001,-2.77812887702905e+000

3.93966212270369e+005,-1.11413912221656e+001,-2.81586566196961e+000

3.99465775648511e+005,-1.11415796339159e+001,-2.85410625098110e+000

4.05042110070485e+005,-1.11417689333876e+001,-2.89285756083990e+000

4.10696287220124e+005,-1.11419590337124e+001,-2.93212662222920e+000

4.16429393741414e+005,-1.11421498452330e+001,-2.97192058189338e+000

4.22242531447321e+005,-1.11423412755549e+001,-3.01224670480231e+000

4.28136817531551e+005,-1.11425332296064e+001,-3.05311237631267e+000

4.34113384783250e+005,-1.11427256097016e+001,-3.09452510433185e+000

4.40173381804713e+005,-1.11429183156105e+001,-3.13649252148011e+000

4.46317973232124e+005,-1.11431112446332e+001,-3.17902238724475e+000

4.52548339959385e+005,-1.11433042916788e+001,-3.22212259013223e+000

4.58865679365059e+005,-1.11434973493498e+001,-3.26580114980897e+000

4.65271205542494e+005,-1.11436903080298e+001,-3.31006621923228e+000

4.71766149533147e+005,-1.11438830559758e+001,-3.35492608676925e+000

4.78351759563174e+005,-1.11440754794141e+001,-3.40038917830246e+000

4.85029301283321e+005,-1.11442674626392e+001,-3.44646405931971e+000

4.91800058012158e+005,-1.11444588881160e+001,-3.49315943698743e+000

4.98665330982714e+005,-1.11446496365844e+001,-3.54048416220625e+000

5.05626439592555e+005,-1.11448395871662e+001,-3.58844723164828e+000

5.12684721657352e+005,-1.11450286174732e+001,-3.63705778977360e+000

5.19841533667984e+005,-1.11452166037175e+001,-3.68632513082945e+000

5.27098251051240e+005,-1.11454034208215e+001,-3.73625870082484e+000

5.34456268434150e+005,-1.11455889425296e+001,-3.78686809948868e+000

5.41916999912011e+005,-1.11457730415183e+001,-3.83816308220389e+000

