Freq.,VOut,OutRef

1.00000000000000e+004,-7.46866609112877e+000,-6.17300505023320e-002

1.01395947979003e+004,-7.46866607766699e+000,-6.25917691088481e-002

1.02811382665607e+004,-7.46866606382660e+000,-6.34655168260008e-002

1.04246576084112e+004,-7.46866604959705e+000,-6.43514615721449e-002

1.05701804056138e+004,-7.46866603496745e+000,-6.52497736093942e-002

1.07177346253629e+004,-7.46866601992655e+000,-6.61606255772506e-002

1.08673486252606e+004,-7.46866600446267e+000,-6.70841925258896e-002

1.10190511587661e+004,-7.46866598856413e+000,-6.80206519462147e-002

1.11728713807222e+004,-7.46866597221833e+000,-6.89701838118835e-002

1.13288388529580e+004,-7.46866595541301e+000,-6.99329706030341e-002

1.14869835499703e+004,-7.46866593813517e+000,-7.09091973503955e-002

1.16473358646846e+004,-7.46866592037149e+000,-7.18990516667395e-002

1.18099266142953e+004,-7.46866590210816e+000,-7.29027237849206e-002

1.19747870461893e+004,-7.46866588333164e+000,-7.39204065887916e-002

1.21419488439505e+004,-7.46866586402670e+000,-7.49522956630363e-002

1.23114441334492e+004,-7.46866584417932e+000,-7.59985893122034e-002

1.24833054890161e+004,-7.46866582377353e+000,-7.70594886186800e-002

1.26575659397028e+004,-7.46866580279422e+000,-7.81351974635568e-002

1.28342589756290e+004,-7.46866578122478e+000,-7.92259225808121e-002

1.30134185544193e+004,-7.46866575904883e+000,-8.03318735854933e-002

1.31950791077289e+004,-7.46866573624958e+000,-8.14532630184820e-002

1.33792755478611e+004,-7.46866571280891e+000,-8.25903063929468e-002

1.35660432744767e+004,-7.46866568870915e+000,-8.37432222245840e-002

1.37554181813974e+004,-7.46866566393173e+000,-8.49122320811907e-002

1.39474366635040e+004,-7.46866563845742e+000,-8.60975606248412e-002

1.41421356237309e+004,-7.46866561226678e+000,-8.72994356514128e-002

1.43395524801583e+004,-7.46866558533988e+000,-8.85180881360888e-002

1.45397251732031e+004,-7.46866555765552e+000,-8.97537522825546e-002

1.47426921729110e+004,-7.46866552919278e+000,-9.10066655586916e-002

1.49484924863494e+004,-7.46866549992953e+000,-9.22770687502007e-002

1.51571656651040e+004,-7.46866546984339e+000,-9.35652060022644e-002

1.53687518128801e+004,-7.46866543891113e+000,-9.48713248692039e-002

1.55832915932100e+004,-7.46866540710893e+000,-9.61956763601851e-002

1.58008262372675e+004,-7.46866537441261e+000,-9.75385149864796e-002

1.60213975517924e+004,-7.46866534079661e+000,-9.89000988163436e-002

1.62450479271247e+004,-7.46866530623518e+000,-1.00280689516567e-001

1.64718203453514e+004,-7.46866527070197e+000,-1.01680552406802e-001

1.67017583885674e+004,-7.46866523416910e+000,-1.03099956513544e-001

1.69349062472505e+004,-7.46866519660908e+000,-1.04539174612616e-001

1.71713087287550e+004,-7.46866515799270e+000,-1.05998483292135e-001

1.74110112659224e+004,-7.46866511829001e+000,-1.07478163001563e-001

1.76540599258131e+004,-7.46866507747091e+000,-1.08978498099611e-001

1.79005014185594e+004,-7.46866503550371e+000,-1.10499776919568e-001

1.81503831063432e+004,-7.46866499235627e+000,-1.12042291816212e-001

1.84037530124975e+004,-7.46866494799523e+000,-1.13606339227474e-001

1.86606598307361e+004,-7.46866490238643e+000,-1.15192219728023e-001

1.89211529345119e+004,-7.46866485549495e+000,-1.16800238086804e-001

1.91852823865052e+004,-7.46866480728439e+000,-1.18430703329707e-001

1.94530989482457e+004,-7.46866475771799e+000,-1.20083928792112e-001

1.97246540898671e+004,-7.46866470675727e+000,-1.21760232187563e-001

1.99999999999999e+004,-7.46866465436327e+000,-1.23459935660056e-001

2.02791895958005e+004,-7.46866460049559e+000,-1.25183365852497e-001

2.05622765331213e+004,-7.46866454511240e+000,-1.26930853968846e-001

2.08493152168224e+004,-7.46866448817166e+000,-1.28702735830221e-001

2.11403608112276e+004,-7.46866442962907e+000,-1.30499351951699e-001

2.14354692507258e+004,-7.46866436943974e+000,-1.32321047596927e-001

2.17346972505211e+004,-7.46866430755723e+000,-1.34168172851090e-001

2.20381023175322e+004,-7.46866424393379e+000,-1.36041082685286e-001

2.23457427614443e+004,-7.46866417852077e+000,-1.37940137022889e-001

2.26576777059159e+004,-7.46866411126742e+000,-1.39865700814877e-001

2.29739670999406e+004,-7.46866404212221e+000,-1.41818144103293e-001

2.32946717293690e+004,-7.46866397103168e+000,-1.43797842096920e-001

2.36198532285905e+004,-7.46866389794112e+000,-1.45805175240581e-001

2.39495740923785e+004,-7.46866382279441e+000,-1.47840529288193e-001

2.42838976879009e+004,-7.46866374553331e+000,-1.49904295381464e-001

2.46228882668982e+004,-7.46866366609873e+000,-1.51996870116223e-001

2.49666109780322e+004,-7.46866358442897e+000,-1.54118655629918e-001

2.53151318794055e+004,-7.46866350046137e+000,-1.56270059667940e-001

2.56685179512580e+004,-7.46866341413136e+000,-1.58451495667165e-001

2.60268371088386e+004,-7.46866332537222e+000,-1.60663382837758e-001

2.63901582154578e+004,-7.46866323411539e+000,-1.62906146239940e-001

2.67585510957221e+004,-7.46866314029082e+000,-1.65180216864142e-001

2.71320865489533e+004,-7.46866304382617e+000,-1.67486031718183e-001

2.75108363627948e+004,-7.46866294464691e+000,-1.69824033910184e-001

2.78948733270080e+004,-7.46866284267672e+000,-1.72194672730337e-001

2.82842712474618e+004,-7.46866273783698e+000,-1.74598403741067e-001

2.86791049603164e+004,-7.46866263004669e+000,-1.77035688863582e-001

2.90794503464061e+004,-7.46866251922281e+000,-1.79506996464622e-001

2.94853843458219e+004,-7.46866240528005e+000,-1.82012801447165e-001

2.98969849726987e+004,-7.46866228813038e+000,-1.84553585344458e-001

3.03143313302078e+004,-7.46866216768329e+000,-1.87129836410092e-001

3.07375036257601e+004,-7.46866204384612e+000,-1.89742049709245e-001

3.11665831864199e+004,-7.46866191652335e+000,-1.92390727218406e-001

3.16016524745350e+004,-7.46866178561655e+000,-1.95076377920737e-001

3.20427951035848e+004,-7.46866165102477e+000,-1.97799517901529e-001

3.24900958542493e+004,-7.46866151264422e+000,-2.00560670447789e-001

3.29436406907028e+004,-7.46866137036804e+000,-2.03360366151700e-001

3.34035167771346e+004,-7.46866122408646e+000,-2.06199143008204e-001

3.38698124945009e+004,-7.46866107368652e+000,-2.09077546522213e-001

3.43426174575100e+004,-7.46866091905221e+000,-2.11996129809767e-001

3.48220225318448e+004,-7.46866076006390e+000,-2.14955453708544e-001

3.53081198516260e+004,-7.46866059659905e+000,-2.17956086879871e-001

3.58010028371187e+004,-7.46866042853122e+000,-2.20998605923560e-001

3.63007662126863e+004,-7.46866025573067e+000,-2.24083595484723e-001

3.68075060249948e+004,-7.46866007806409e+000,-2.27211648366294e-001

3.73213196614721e+004,-7.46865989539406e+000,-2.30383365646057e-001

3.78423058690237e+004,-7.46865970757933e+000,-2.33599356789235e-001

3.83705647730104e+004,-7.46865951447487e+000,-2.36860239764542e-001

3.89061978964912e+004,-7.46865931593125e+000,-2.40166641166704e-001

3.94493081797342e+004,-7.46865911179522e+000,-2.43519196331050e-001

3.99999999999998e+004,-7.46865890190887e+000,-2.46918549460850e-001

4.05583791916010e+004,-7.46865868610986e+000,-2.50365353748548e-001

4.11245530662425e+004,-7.46865846423142e+000,-2.53860271499941e-001

4.16986304336447e+004,-7.46865823610150e+000,-2.57403974266420e-001

4.22807216224550e+004,-7.46865800154413e+000,-2.60997142963769e-001

4.28709385014515e+004,-7.46865776037739e+000,-2.64640468015073e-001

4.34693945010421e+004,-7.46865751241479e+000,-2.68334649473914e-001

4.40762046350642e+004,-7.46865725746437e+000,-2.72080397162413e-001

4.46914855228886e+004,-7.46865699532875e+000,-2.75878430807123e-001

4.53153554118317e+004,-7.46865672580489e+000,-2.79729480177297e-001

4.59479341998812e+004,-7.46865644868404e+000,-2.83634285223912e-001

4.65893434587380e+004,-7.46865616375144e+000,-2.87593596222794e-001

4.72397064571810e+004,-7.46865587078635e+000,-2.91608173917464e-001

4.78991481847569e+004,-7.46865556956156e+000,-2.95678789666000e-001

4.85677953758016e+004,-7.46865525984371e+000,-2.99806225587007e-001

4.92457765337964e+004,-7.46865494139269e+000,-3.03991274711885e-001

4.99332219560642e+004,-7.46865461396118e+000,-3.08234741137769e-001

5.06302637588109e+004,-7.46865427729548e+000,-3.12537440176862e-001

5.13370359025159e+004,-7.46865393113413e+000,-3.16900198518523e-001

5.20536742176771e+004,-7.46865357520852e+000,-3.21323854383365e-001

5.27803164309155e+004,-7.46865320924223e+000,-3.25809257687276e-001

5.35171021914442e+004,-7.46865283295114e+000,-3.30357270201066e-001

5.42641730979066e+004,-7.46865244604281e+000,-3.34968765719033e-001

5.50216727255895e+004,-7.46865204821666e+000,-3.39644630223412e-001

5.57897466540159e+004,-7.46865163916329e+000,-3.44385762057413e-001

5.65685424949235e+004,-7.46865121856483e+000,-3.49193072092934e-001

5.73582099206328e+004,-7.46865078609402e+000,-3.54067483909855e-001

5.81589006928121e+004,-7.46865034141434e+000,-3.59009933970502e-001

5.89707686916437e+004,-7.46864988417982e+000,-3.64021371797861e-001

5.97939699453972e+004,-7.46864941403444e+000,-3.69102760160328e-001

6.06286626604156e+004,-7.46864893061184e+000,-3.74255075256328e-001

6.14750072515201e+004,-7.46864843353556e+000,-3.79479306896228e-001

6.23331663728396e+004,-7.46864792241807e+000,-3.84776458698781e-001

6.32033049490698e+004,-7.46864739686086e+000,-3.90147548278234e-001

6.40855902071694e+004,-7.46864685645403e+000,-3.95593607441314e-001

6.49801917084985e+004,-7.46864630077580e+000,-4.01115682385345e-001

6.58872813814055e+004,-7.46864572939240e+000,-4.06714833896768e-001

6.68070335542691e+004,-7.46864514185758e+000,-4.12392137555425e-001

6.77396249890018e+004,-7.46864453771223e+000,-4.18148683940381e-001

6.86852349150199e+004,-7.46864391648424e+000,-4.23985578837561e-001

6.96440450636895e+004,-7.46864327768765e+000,-4.29903943453619e-001

7.06162397032520e+004,-7.46864262082270e+000,-4.35904914627756e-001

7.16020056742374e+004,-7.46864194537516e+000,-4.41989645051688e-001

7.26015324253724e+004,-7.46864125081615e+000,-4.48159303487440e-001

7.36150120499896e+004,-7.46864053660129e+000,-4.54415074994417e-001

7.46426393229441e+004,-7.46863980217068e+000,-4.60758161152817e-001

7.56846117380472e+004,-7.46863904694833e+000,-4.67189780294473e-001

7.67411295460207e+004,-7.46863827034145e+000,-4.73711167736843e-001

7.78123957929823e+004,-7.46863747174021e+000,-4.80323576017705e-001

7.88986163594682e+004,-7.46863665051693e+000,-4.87028275136833e-001

7.99999999999995e+004,-7.46863580602620e+000,-4.93826552794155e-001

8.11167583832018e+004,-7.46863493760360e+000,-5.00719714640986e-001

8.22491061324848e+004,-7.46863404456546e+000,-5.07709084526871e-001

8.33972608672892e+004,-7.46863312620840e+000,-5.14796004752241e-001

8.45614432449099e+004,-7.46863218180846e+000,-5.21981836326282e-001

8.57418770029029e+004,-7.46863121062094e+000,-5.29267959224472e-001

8.69387890020841e+004,-7.46863021187910e+000,-5.36655772655685e-001

8.81524092701283e+004,-7.46862918479410e+000,-5.44146695325805e-001

8.93829710457770e+004,-7.46862812855414e+000,-5.51742165709643e-001

9.06307108236633e+004,-7.46862704232361e+000,-5.59443642326834e-001

9.18958683997622e+004,-7.46862592524272e+000,-5.67252604017249e-001

9.31786869174758e+004,-7.46862477642632e+000,-5.75170550226680e-001

9.44794129143618e+004,-7.46862359496350e+000,-5.83199001289847e-001

9.57982963695136e+004,-7.46862237991672e+000,-5.91339498721463e-001

9.71355907516031e+004,-7.46862113032086e+000,-5.99593605510095e-001

9.84915530675926e+004,-7.46861984518250e+000,-6.07962906416336e-001

9.98664439121282e+004,-7.46861852347924e+000,-6.16449008273462e-001

1.01260527517622e+005,-7.46861716415821e+000,-6.25053540296226e-001

1.02674071805032e+005,-7.46861576613597e+000,-6.33778154387622e-001

1.04107348435354e+005,-7.46861432829695e+000,-6.42624525456556e-001

1.05560632861831e+005,-7.46861284949262e+000,-6.51594351734809e-001

1.07034204382888e+005,-7.46861132854066e+000,-6.60689355101436e-001

1.08528346195813e+005,-7.46860976422365e+000,-6.69911281409625e-001

1.10043345451179e+005,-7.46860815528808e+000,-6.79261900819516e-001

1.11579493308032e+005,-7.46860650044358e+000,-6.88743008133076e-001

1.13137084989847e+005,-7.46860479836109e+000,-6.98356423138073e-001

1.14716419841265e+005,-7.46860304767218e+000,-7.08103990952187e-001

1.16317801385624e+005,-7.46860124696770e+000,-7.17987582374004e-001

1.17941537383287e+005,-7.46859939479641e+000,-7.28009094238381e-001

1.19587939890794e+005,-7.46859748966373e+000,-7.38170449776957e-001

1.21257325320831e+005,-7.46859553003055e+000,-7.48473598982258e-001

1.22950014503040e+005,-7.46859351431146e+000,-7.58920518979320e-001

1.24666332745679e+005,-7.46859144087358e+000,-7.69513214400013e-001

1.26406609898139e+005,-7.46858930803481e+000,-7.80253717763568e-001

1.28171180414339e+005,-7.46858711406280e+000,-7.91144089860246e-001

1.29960383416997e+005,-7.46858485717254e+000,-8.02186420145481e-001

1.31774562762811e+005,-7.46858253552545e+000,-8.13382827131705e-001

1.33614067108538e+005,-7.46858014722726e+000,-8.24735458792431e-001

1.35479249978003e+005,-7.46857769032612e+000,-8.36246492968934e-001

1.37370469830040e+005,-7.46857516281115e+000,-8.47918137780102e-001

1.39288090127379e+005,-7.46857256261029e+000,-8.59752632042270e-001

1.41232479406504e+005,-7.46856988758831e+000,-8.71752245692063e-001

1.43204011348474e+005,-7.46856713554488e+000,-8.83919280215041e-001

1.45203064850745e+005,-7.46856430421220e+000,-8.96256069082176e-001

1.47230024099979e+005,-7.46856139125327e+000,-9.08764978187876e-001

1.49285278645888e+005,-7.46855839425919e+000,-9.21448406298775e-001

1.51369223476094e+005,-7.46855531074695e+000,-9.34308785506551e-001

1.53482259092041e+005,-7.46855213815703e+000,-9.47348581685550e-001

1.55624791585964e+005,-7.46854887385084e+000,-9.60570294958206e-001

1.57797232718936e+005,-7.46854551510826e+000,-9.73976460165654e-001

1.59999999999999e+005,-7.46854205912452e+000,-9.87569647347629e-001

1.62233516766403e+005,-7.46853850300790e+000,-1.00135246222284e+000

1.64498212264969e+005,-7.46853484377649e+000,-1.01532754668186e+000

1.66794521734578e+005,-7.46853107835524e+000,-1.02949757928340e+000

1.69122886489819e+005,-7.46852720357289e+000,-1.04386527575787e+000

1.71483754005805e+005,-7.46852321615873e+000,-1.05843338951703e+000

1.73877578004168e+005,-7.46851911273918e+000,-1.07320471217246e+000

1.76304818540256e+005,-7.46851488983429e+000,-1.08818207405886e+000

1.78765942091554e+005,-7.46851054385417e+000,-1.10336834476481e+000

1.81261421647326e+005,-7.46850607109524e+000,-1.11876643367171e+000

1.83791736799524e+005,-7.46850146773634e+000,-1.13437929049761e+000

1.86357373834951e+005,-7.46849672983464e+000,-1.15020990585108e+000

1.88958825828723e+005,-7.46849185332145e+000,-1.16626131179100e+000

1.91596592739027e+005,-7.46848683399800e+000,-1.18253658239211e+000

1.94271181503206e+005,-7.46848166753064e+000,-1.19903883432262e+000

1.96983106135185e+005,-7.46847634944647e+000,-1.21577122742376e+000

1.99732887824256e+005,-7.46847087512836e+000,-1.23273696530153e+000

2.02521055035243e+005,-7.46846523980973e+000,-1.24993929592485e+000

2.05348143610063e+005,-7.46845943856943e+000,-1.26738151223063e+000

2.08214696870707e+005,-7.46845346632649e+000,-1.28506695273674e+000

2.11121265723661e+005,-7.46844731783407e+000,-1.30299900216680e+000

2.14068408765776e+005,-7.46844098767380e+000,-1.32118109207763e+000

2.17056692391625e+005,-7.46843447024966e+000,-1.33961670149855e+000

2.20086690902357e+005,-7.46842775978160e+000,-1.35830935757924e+000

2.23158986616063e+005,-7.46842085029889e+000,-1.37726263624347e+000

2.26274169979693e+005,-7.46841373563337e+000,-1.39648016285484e+000

2.29432839682530e+005,-7.46840640941230e+000,-1.41596561288808e+000

2.32635602771247e+005,-7.46839886505083e+000,-1.43572271261205e+000

2.35883074766574e+005,-7.46839109574434e+000,-1.45575523977983e+000

2.39175879781588e+005,-7.46838309446060e+000,-1.47606702432816e+000

2.42514650641661e+005,-7.46837485393135e+000,-1.49666194908601e+000

2.45900029006080e+005,-7.46836636664347e+000,-1.51754395049454e+000

2.49332665491357e+005,-7.46835762483025e+000,-1.53871701933290e+000

2.52813219796278e+005,-7.46834862046188e+000,-1.56018520145690e+000

2.56342360828676e+005,-7.46833934523573e+000,-1.58195259854474e+000

2.59920766833993e+005,-7.46832979056634e+000,-1.60402336885462e+000

2.63549125525621e+005,-7.46831994757463e+000,-1.62640172799209e+000

2.67228134217075e+005,-7.46830980707741e+000,-1.64909194968476e+000

2.70958499956006e+005,-7.46829935957540e+000,-1.67209836657251e+000

2.74740939660078e+005,-7.46828859524198e+000,-1.69542537100152e+000

2.78576180254757e+005,-7.46827750391032e+000,-1.71907741583574e+000

2.82464958813007e+005,-7.46826607506101e+000,-1.74305901527284e+000

2.86408022696948e+005,-7.46825429780853e+000,-1.76737474567483e+000

2.90406129701488e+005,-7.46824216088732e+000,-1.79202924640846e+000

2.94460048199957e+005,-7.46822965263745e+000,-1.81702722069742e+000

2.98570557291775e+005,-7.46821676098954e+000,-1.84237343648408e+000

3.02738446952187e+005,-7.46820347344925e+000,-1.86807272730490e+000

3.06964518184081e+005,-7.46818977708079e+000,-1.89412999317612e+000

3.11249583171928e+005,-7.46817565849035e+000,-1.92055020149180e+000

3.15594465437872e+005,-7.46816110380827e+000,-1.94733838793295e+000

3.19999999999997e+005,-7.46814609867075e+000,-1.97449965739140e+000

3.24467033532806e+005,-7.46813062820094e+000,-2.00203918490247e+000

3.28996424529938e+005,-7.46811467698907e+000,-2.02996221659311e+000

3.33589043469155e+005,-7.46809822907185e+000,-2.05827407064170e+000

3.38245772979638e+005,-7.46808126791095e+000,-2.08698013825126e+000

3.42967508011610e+005,-7.46806377637102e+000,-2.11608588463460e+000

3.47755156008335e+005,-7.46804573669610e+000,-2.14559685001586e+000

3.52609637080511e+005,-7.46802713048591e+000,-2.17551865064238e+000

3.57531884183106e+005,-7.46800793867055e+000,-2.20585697981226e+000

3.62522843294651e+005,-7.46798814148452e+000,-2.23661760891727e+000

3.67583473599047e+005,-7.46796771843950e+000,-2.26780638849821e+000

3.72714747669902e+005,-7.46794664829654e+000,-2.29942924931479e+000

3.77917651657445e+005,-7.46792490903635e+000,-2.33149220343369e+000

3.83193185478053e+005,-7.46790247782909e+000,-2.36400134532864e+000

3.88542363006410e+005,-7.46787933100282e+000,-2.39696285299749e+000

3.93966212270369e+005,-7.46785544401046e+000,-2.43038298909524e+000

3.99465775648511e+005,-7.46783079139570e+000,-2.46426810208427e+000

4.05042110070485e+005,-7.46780534675776e+000,-2.49862462739845e+000

4.10696287220124e+005,-7.46777908271414e+000,-2.53345908862828e+000

4.16429393741414e+005,-7.46775197086277e+000,-2.56877809871990e+000

4.22242531447321e+005,-7.46772398174204e+000,-2.60458836119401e+000

4.28136817531551e+005,-7.46769508478982e+000,-2.64089667138122e+000

4.34113384783250e+005,-7.46766524830039e+000,-2.67770991767860e+000

4.40173381804713e+005,-7.46763443938029e+000,-2.71503508282235e+000

4.46317973232124e+005,-7.46760262390206e+000,-2.75287924518253e+000

4.52548339959385e+005,-7.46756976645676e+000,-2.79124958007500e+000

4.58865679365059e+005,-7.46753583030412e+000,-2.83015336109732e+000

4.65271205542494e+005,-7.46750077732148e+000,-2.86959796148137e+000

4.71766149533147e+005,-7.46746456795027e+000,-2.90959085547244e+000

4.78351759563174e+005,-7.46742716114128e+000,-2.95013961972475e+000

4.85029301283321e+005,-7.46738851429707e+000,-2.99125193472516e+000

4.91800058012158e+005,-7.46734858321316e+000,-3.03293558623553e+000

4.98665330982714e+005,-7.46730732201668e+000,-3.07519846676144e+000

5.05626439592555e+005,-7.46726468310313e+000,-3.11804857704393e+000

5.12684721657352e+005,-7.46722061707050e+000,-3.16149402757850e+000

5.19841533667984e+005,-7.46717507265178e+000,-3.20554304015675e+000

5.27098251051240e+005,-7.46712799664471e+000,-3.25020394943669e+000

5.34456268434150e+005,-7.46707933383932e+000,-3.29548520453974e+000

5.41916999912011e+005,-7.46702902694311e+000,-3.34139537067508e+000

