Freq.,VOut,OutRef

1.00000000000000e+004,-4.10062863806097e+001,-3.03304897011104e-001

1.01395947979003e+004,-4.10062878644317e+001,-3.07538850502032e-001

1.02811382665607e+004,-4.10062893899688e+001,-3.11831906716538e-001

1.04246576084112e+004,-4.10062909583937e+001,-3.16184890651601e-001

1.05701804056138e+004,-4.10062925709122e+001,-3.20598638819784e-001

1.07177346253629e+004,-4.10062942287638e+001,-3.25073999409674e-001

1.08673486252606e+004,-4.10062959332230e+001,-3.29611832446895e-001

1.10190511587661e+004,-4.10062976855999e+001,-3.34213009961472e-001

1.11728713807222e+004,-4.10062994872419e+001,-3.38878416152606e-001

1.13288388529580e+004,-4.10063013395336e+001,-3.43608947562531e-001

1.14869835499703e+004,-4.10063032438992e+001,-3.48405513243538e-001

1.16473358646846e+004,-4.10063052018024e+001,-3.53269034937117e-001

1.18099266142953e+004,-4.10063072147484e+001,-3.58200447249228e-001

1.19747870461893e+004,-4.10063092842845e+001,-3.63200697828221e-001

1.21419488439505e+004,-4.10063114120016e+001,-3.68270747549665e-001

1.23114441334492e+004,-4.10063135995354e+001,-3.73411570698126e-001

1.24833054890161e+004,-4.10063158485675e+001,-3.78624155156049e-001

1.26575659397028e+004,-4.10063181608266e+001,-3.83909502593333e-001

1.28342589756290e+004,-4.10063205380900e+001,-3.89268628659888e-001

1.30134185544193e+004,-4.10063229821857e+001,-3.94702563176691e-001

1.31950791077289e+004,-4.10063254949919e+001,-4.00212350341216e-001

1.33792755478611e+004,-4.10063280784404e+001,-4.05799048920274e-001

1.35660432744767e+004,-4.10063307345171e+001,-4.11463732457890e-001

1.37554181813974e+004,-4.10063334652639e+001,-4.17207489478899e-001

1.39474366635040e+004,-4.10063362727795e+001,-4.23031423700975e-001

1.41421356237309e+004,-4.10063391592224e+001,-4.28936654241884e-001

1.43395524801583e+004,-4.10063421268113e+001,-4.34924315838514e-001

1.45397251732031e+004,-4.10063451778271e+001,-4.40995559063733e-001

1.47426921729110e+004,-4.10063483146153e+001,-4.47151550544430e-001

1.49484924863494e+004,-4.10063515395872e+001,-4.53393473189118e-001

1.51571656651040e+004,-4.10063548552215e+001,-4.59722526413676e-001

1.53687518128801e+004,-4.10063582640671e+001,-4.66139926369891e-001

1.55832915932100e+004,-4.10063617687441e+001,-4.72646906181781e-001

1.58008262372675e+004,-4.10063653719465e+001,-4.79244716179655e-001

1.60213975517924e+004,-4.10063690764441e+001,-4.85934624141307e-001

1.62450479271247e+004,-4.10063728850842e+001,-4.92717915536189e-001

1.64718203453514e+004,-4.10063768007947e+001,-4.99595893768224e-001

1.67017583885674e+004,-4.10063808265851e+001,-5.06569880431857e-001

1.69349062472505e+004,-4.10063849655501e+001,-5.13641215560541e-001

1.71713087287550e+004,-4.10063892208709e+001,-5.20811257886144e-001

1.74110112659224e+004,-4.10063935958186e+001,-5.28081385099133e-001

1.76540599258131e+004,-4.10063980937559e+001,-5.35452994111983e-001

1.79005014185594e+004,-4.10064027181401e+001,-5.42927501329337e-001

1.81503831063432e+004,-4.10064074725256e+001,-5.50506342918522e-001

1.84037530124975e+004,-4.10064123605669e+001,-5.58190975083265e-001

1.86606598307361e+004,-4.10064173860212e+001,-5.65982874345699e-001

1.89211529345119e+004,-4.10064225527511e+001,-5.73883537828618e-001

1.91852823865052e+004,-4.10064278647278e+001,-5.81894483541725e-001

1.94530989482457e+004,-4.10064333260343e+001,-5.90017250673855e-001

1.97246540898671e+004,-4.10064389408682e+001,-5.98253399887921e-001

1.99999999999999e+004,-4.10064447135452e+001,-6.06604513618436e-001

2.02791895958005e+004,-4.10064506485022e+001,-6.15072196377879e-001

2.05622765331213e+004,-4.10064567503007e+001,-6.23658075061912e-001

2.08493152168224e+004,-4.10064630236307e+001,-6.32363799262732e-001

2.11403608112276e+004,-4.10064694733138e+001,-6.41191041583757e-001

2.14354692507258e+004,-4.10064761043070e+001,-6.50141497962074e-001

2.17346972505211e+004,-4.10064829217068e+001,-6.59216887991923e-001

2.20381023175322e+004,-4.10064899307531e+001,-6.68418955254005e-001

2.23457427614443e+004,-4.10064971368328e+001,-6.77749467651425e-001

2.26576777059159e+004,-4.10065045454840e+001,-6.87210217747944e-001

2.29739670999406e+004,-4.10065121624010e+001,-6.96803023108984e-001

2.32946717293690e+004,-4.10065199934376e+001,-7.06529726653566e-001

2.36198532285905e+004,-4.10065280446124e+001,-7.16392197004449e-001

2.39495740923785e+004,-4.10065363221132e+001,-7.26392328846788e-001

2.42838976879009e+004,-4.10065448323012e+001,-7.36532043292546e-001

2.46228882668982e+004,-4.10065535817171e+001,-7.46813288245658e-001

2.49666109780322e+004,-4.10065625770847e+001,-7.57238038777557e-001

2.53151318794055e+004,-4.10065718253173e+001,-7.67808297503858e-001

2.56685179512580e+004,-4.10065813335221e+001,-7.78526094968331e-001

2.60268371088386e+004,-4.10065911090062e+001,-7.89393490031508e-001

2.63901582154578e+004,-4.10066011592820e+001,-8.00412570263516e-001

2.67585510957221e+004,-4.10066114920728e+001,-8.11585452346959e-001

2.71320865489533e+004,-4.10066221153194e+001,-8.22914282477410e-001

2.75108363627948e+004,-4.10066330371852e+001,-8.34401236778126e-001

2.78948733270080e+004,-4.10066442660632e+001,-8.46048521714253e-001

2.82842712474618e+004,-4.10066558105824e+001,-8.57858374514148e-001

2.86791049603164e+004,-4.10066676796138e+001,-8.69833063600136e-001

2.90794503464061e+004,-4.10066798822782e+001,-8.81974889018993e-001

2.94853843458219e+004,-4.10066924279523e+001,-8.94286182884567e-001

2.98969849726987e+004,-4.10067053262762e+001,-9.06769309821386e-001

3.03143313302078e+004,-4.10067185871612e+001,-9.19426667418259e-001

3.07375036257601e+004,-4.10067322207968e+001,-9.32260686685474e-001

3.11665831864199e+004,-4.10067462376587e+001,-9.45273832520622e-001

3.16016524745350e+004,-4.10067606485171e+001,-9.58468604178073e-001

3.20427951035848e+004,-4.10067754644448e+001,-9.71847535746197e-001

3.24900958542493e+004,-4.10067906968253e+001,-9.85413196634192e-001

3.29436406907028e+004,-4.10068063573623e+001,-9.99168192059478e-001

3.34035167771346e+004,-4.10068224580883e+001,-1.01311516354600e+000

3.38698124945009e+004,-4.10068390113734e+001,-1.02725678942983e+000

3.43426174575100e+004,-4.10068560299354e+001,-1.04159578536996e+000

3.48220225318448e+004,-4.10068735268496e+001,-1.05613490486397e+000

3.53081198516260e+004,-4.10068915155582e+001,-1.07087693977732e+000

3.58010028371187e+004,-4.10069100098810e+001,-1.08582472087341e+000

3.63007662126863e+004,-4.10069290240261e+001,-1.10098111835326e+000

3.68075060249948e+004,-4.10069485726009e+001,-1.11634904240383e+000

3.73213196614721e+004,-4.10069686706225e+001,-1.13193144375303e+000

3.78423058690237e+004,-4.10069893335303e+001,-1.14773131423054e+000

3.83705647730104e+004,-4.10070105771968e+001,-1.16375168733942e+000

3.89061978964912e+004,-4.10070324179408e+001,-1.17999563883216e+000

3.94493081797342e+004,-4.10070548725391e+001,-1.19646628729879e+000

3.99999999999998e+004,-4.10070779582394e+001,-1.21316679475892e+000

4.05583791916010e+004,-4.10071016927744e+001,-1.23010036726334e+000

4.11245530662425e+004,-4.10071260943740e+001,-1.24727025550557e+000

4.16986304336447e+004,-4.10071511817805e+001,-1.26467975543950e+000

4.22807216224550e+004,-4.10071769742621e+001,-1.28233220890575e+000

4.28709385014515e+004,-4.10072034916284e+001,-1.30023100426758e+000

4.34693945010421e+004,-4.10072307542449e+001,-1.31837957705480e+000

4.40762046350642e+004,-4.10072587830488e+001,-1.33678141061689e+000

4.46914855228886e+004,-4.10072875995654e+001,-1.35544003678368e+000

4.53153554118317e+004,-4.10073172259240e+001,-1.37435903653655e+000

4.59479341998812e+004,-4.10073476848753e+001,-1.39354204068893e+000

4.65893434587380e+004,-4.10073789998086e+001,-1.41299273057398e+000

4.72397064571810e+004,-4.10074111947697e+001,-1.43271483874366e+000

4.78991481847569e+004,-4.10074442944792e+001,-1.45271214967568e+000

4.85677953758016e+004,-4.10074783243518e+001,-1.47298850049210e+000

4.92457765337964e+004,-4.10075133105154e+001,-1.49354778168516e+000

4.99332219560642e+004,-4.10075492798310e+001,-1.51439393785451e+000

5.06302637588109e+004,-4.10075862599136e+001,-1.53553096845469e+000

5.13370359025159e+004,-4.10076242791531e+001,-1.55696292854998e+000

5.20536742176771e+004,-4.10076633667360e+001,-1.57869392958412e+000

5.27803164309155e+004,-4.10077035526677e+001,-1.60072814015542e+000

5.35171021914442e+004,-4.10077448677955e+001,-1.62306978680511e+000

5.42641730979066e+004,-4.10077873438321e+001,-1.64572315481722e+000

5.50216727255895e+004,-4.10078310133800e+001,-1.66869258902465e+000

5.57897466540159e+004,-4.10078759099562e+001,-1.69198249463190e+000

5.65685424949235e+004,-4.10079220680179e+001,-1.71559733804425e+000

5.73582099206328e+004,-4.10079695229887e+001,-1.73954164771014e+000

5.81589006928121e+004,-4.10080183112858e+001,-1.76382001497470e+000

5.89707686916437e+004,-4.10080684703477e+001,-1.78843709494353e+000

5.97939699453972e+004,-4.10081200386629e+001,-1.81339760735920e+000

6.06286626604156e+004,-4.10081730557991e+001,-1.83870633748901e+000

6.14750072515201e+004,-4.10082275624333e+001,-1.86436813702428e+000

6.23331663728396e+004,-4.10082836003832e+001,-1.89038792499161e+000

6.32033049490698e+004,-4.10083412126389e+001,-1.91677068867562e+000

6.40855902071694e+004,-4.10084004433954e+001,-1.94352148455633e+000

6.49801917084985e+004,-4.10084613380866e+001,-1.97064543925561e+000

6.58872813814055e+004,-4.10085239434199e+001,-1.99814775049787e+000

6.68070335542691e+004,-4.10085883074118e+001,-2.02603368808265e+000

6.77396249890018e+004,-4.10086544794241e+001,-2.05430859487206e+000

6.86852349150199e+004,-4.10087225102019e+001,-2.08297788778737e+000

6.96440450636895e+004,-4.10087924519124e+001,-2.11204705882160e+000

7.06162397032520e+004,-4.10088643581836e+001,-2.14152167606537e+000

7.16020056742374e+004,-4.10089382841466e+001,-2.17140738474292e+000

7.26015324253724e+004,-4.10090142864761e+001,-2.20170990826643e+000

7.36150120499896e+004,-4.10090924234344e+001,-2.23243504929945e+000

7.46426393229441e+004,-4.10091727549152e+001,-2.26358869083644e+000

7.56846117380472e+004,-4.10092553424896e+001,-2.29517679729637e+000

7.67411295460207e+004,-4.10093402494521e+001,-2.32720541562999e+000

7.78123957929823e+004,-4.10094275408696e+001,-2.35968067643988e+000

7.88986163594682e+004,-4.10095172836299e+001,-2.39260879511728e+000

7.99999999999995e+004,-4.10096095464932e+001,-2.42599607299217e+000

8.11167583832018e+004,-4.10097044001437e+001,-2.45984889849737e+000

8.22491061324848e+004,-4.10098019172434e+001,-2.49417374834956e+000

8.33972608672892e+004,-4.10099021724874e+001,-2.52897718874181e+000

8.45614432449099e+004,-4.10100052426599e+001,-2.56426587655539e+000

8.57418770029029e+004,-4.10101112066931e+001,-2.60004656058375e+000

8.69387890020841e+004,-4.10102201457263e+001,-2.63632608277231e+000

8.81524092701283e+004,-4.10103321431675e+001,-2.67311137947536e+000

8.93829710457770e+004,-4.10104472847569e+001,-2.71040948272655e+000

9.06307108236633e+004,-4.10105656586310e+001,-2.74822752152654e+000

9.18958683997622e+004,-4.10106873553897e+001,-2.78657272314667e+000

9.31786869174758e+004,-4.10108124681646e+001,-2.82545241444755e+000

9.44794129143618e+004,-4.10109410926891e+001,-2.86487402321504e+000

9.57982963695136e+004,-4.10110733273711e+001,-2.90484507951186e+000

9.71355907516031e+004,-4.10112092733666e+001,-2.94537321704653e+000

9.84915530675926e+004,-4.10113490346564e+001,-2.98646617455743e+000

9.98664439121282e+004,-4.10114927181244e+001,-3.02813179721482e+000

1.01260527517622e+005,-4.10116404336376e+001,-3.07037803804086e+000

1.02674071805032e+005,-4.10117922941294e+001,-3.11321295934291e+000

1.04107348435354e+005,-4.10119484156842e+001,-3.15664473416760e+000

1.05560632861831e+005,-4.10121089176245e+001,-3.20068164777151e+000

1.07034204382888e+005,-4.10122739226008e+001,-3.24533209910635e+000

1.08528346195813e+005,-4.10124435566833e+001,-3.29060460232618e+000

1.10043345451179e+005,-4.10126179494570e+001,-3.33650778830810e+000

1.11579493308032e+005,-4.10127972341181e+001,-3.38305040619318e+000

1.13137084989847e+005,-4.10129815475745e+001,-3.43024132494399e+000

1.14716419841265e+005,-4.10131710305477e+001,-3.47808953492034e+000

1.16317801385624e+005,-4.10133658276781e+001,-3.52660414947366e+000

1.17941537383287e+005,-4.10135660876335e+001,-3.57579440655727e+000

1.19587939890794e+005,-4.10137719632196e+001,-3.62566967035791e+000

1.21257325320831e+005,-4.10139836114945e+001,-3.67623943294299e+000

1.22950014503040e+005,-4.10142011938850e+001,-3.72751331592749e+000

1.24666332745679e+005,-4.10144248763079e+001,-3.77950107215761e+000

1.26406609898139e+005,-4.10146548292925e+001,-3.83221258741587e+000

1.28171180414339e+005,-4.10148912281079e+001,-3.88565788214049e+000

1.29960383416997e+005,-4.10151342528929e+001,-3.93984711316754e+000

1.31774562762811e+005,-4.10153840887902e+001,-3.99479057548793e+000

1.33614067108538e+005,-4.10156409260827e+001,-4.05049870402570e+000

1.35479249978003e+005,-4.10159049603355e+001,-4.10698207543324e+000

1.37370469830040e+005,-4.10161763925398e+001,-4.16425140990578e+000

1.39288090127379e+005,-4.10164554292617e+001,-4.22231757301406e+000

1.41232479406504e+005,-4.10167422827947e+001,-4.28119157755668e+000

1.43204011348474e+005,-4.10170371713162e+001,-4.34088458542845e+000

1.45203064850745e+005,-4.10173403190482e+001,-4.40140790951076e+000

1.47230024099979e+005,-4.10176519564222e+001,-4.46277301557718e+000

1.49285278645888e+005,-4.10179723202485e+001,-4.52499152421942e+000

1.51369223476094e+005,-4.10183016538902e+001,-4.58807521279113e+000

1.53482259092041e+005,-4.10186402074411e+001,-4.65203601736953e+000

1.55624791585964e+005,-4.10189882379090e+001,-4.71688603473572e+000

1.57797232718936e+005,-4.10193460094035e+001,-4.78263752437261e+000

1.59999999999999e+005,-4.10197137933290e+001,-4.84930291048121e+000

1.62233516766403e+005,-4.10200918685819e+001,-4.91689478401451e+000

1.64498212264969e+005,-4.10204805217542e+001,-4.98542590472828e+000

1.66794521734578e+005,-4.10208800473412e+001,-5.05490920325061e+000

1.69122886489819e+005,-4.10212907479555e+001,-5.12535778316742e+000

1.71483754005805e+005,-4.10217129345460e+001,-5.19678492312607e+000

1.73877578004168e+005,-4.10221469266229e+001,-5.26920407895449e+000

1.76304818540256e+005,-4.10225930524881e+001,-5.34262888579805e+000

1.78765942091554e+005,-4.10230516494720e+001,-5.41707316027199e+000

1.81261421647326e+005,-4.10235230641760e+001,-5.49255090262966e+000

1.83791736799524e+005,-4.10240076527214e+001,-5.56907629894714e+000

1.86357373834951e+005,-4.10245057810046e+001,-5.64666372332227e+000

1.88958825828723e+005,-4.10250178249588e+001,-5.72532774008884e+000

1.91596592739027e+005,-4.10255441708225e+001,-5.80508310604561e+000

1.94271181503206e+005,-4.10260852154142e+001,-5.88594477269928e+000

1.96983106135185e+005,-4.10266413664150e+001,-5.96792788852031e+000

1.99732887824256e+005,-4.10272130426576e+001,-6.05104780121301e+000

2.02521055035243e+005,-4.10278006744222e+001,-6.13532005999767e+000

2.05348143610063e+005,-4.10284047037413e+001,-6.22076041790455e+000

2.08214696870707e+005,-4.10290255847103e+001,-6.30738483407976e+000

2.11121265723661e+005,-4.10296637838070e+001,-6.39520947610201e+000

2.14068408765776e+005,-4.10303197802184e+001,-6.48425072230947e+000

2.17056692391625e+005,-4.10309940661762e+001,-6.57452516413555e+000

2.20086690902357e+005,-4.10316871472994e+001,-6.66604960845519e+000

2.23158986616063e+005,-4.10323995429466e+001,-6.75884107993712e+000

2.26274169979693e+005,-4.10331317865761e+001,-6.85291682340526e+000

2.29432839682530e+005,-4.10338844261146e+001,-6.94829430620549e+000

2.32635602771247e+005,-4.10346580243358e+001,-7.04499122057807e+000

2.35883074766574e+005,-4.10354531592464e+001,-7.14302548603488e+000

2.39175879781588e+005,-4.10362704244833e+001,-7.24241525174095e+000

2.42514650641661e+005,-4.10371104297188e+001,-7.34317889889712e+000

2.45900029006080e+005,-4.10379738010759e+001,-7.44533504312616e+000

2.49332665491357e+005,-4.10388611815535e+001,-7.54890253685747e+000

2.52813219796278e+005,-4.10397732314618e+001,-7.65390047171315e+000

2.56342360828676e+005,-4.10407106288669e+001,-7.76034818089012e+000

2.59920766833993e+005,-4.10416740700470e+001,-7.86826524154094e+000

2.63549125525621e+005,-4.10426642699582e+001,-7.97767147714872e+000

2.67228134217075e+005,-4.10436819627113e+001,-8.08858695989733e+000

2.70958499956006e+005,-4.10447279020596e+001,-8.20103201303322e+000

2.74740939660078e+005,-4.10458028618979e+001,-8.31502721321970e+000

2.78576180254757e+005,-4.10469076367718e+001,-8.43059339287990e+000

2.82464958813007e+005,-4.10480430423999e+001,-8.54775164252819e+000

2.86408022696948e+005,-4.10492099162066e+001,-8.66652331308858e+000

2.90406129701488e+005,-4.10504091178667e+001,-8.78693001819651e+000

2.94460048199957e+005,-4.10516415298623e+001,-8.90899363648467e+000

2.98570557291775e+005,-4.10529080580519e+001,-9.03273631384925e+000

3.02738446952187e+005,-4.10542096322514e+001,-9.15818046569558e+000

3.06964518184081e+005,-4.10555472068276e+001,-9.28534877916050e+000

3.11249583171928e+005,-4.10569217613053e+001,-9.41426421530973e+000

3.15594465437872e+005,-4.10583343009854e+001,-9.54495001130861e+000

3.19999999999997e+005,-4.10597858575775e+001,-9.67742968256271e+000

3.24467033532806e+005,-4.10612774898450e+001,-9.81172702482714e+000

3.28996424529938e+005,-4.10628102842638e+001,-9.94786611628181e+000

3.33589043469155e+005,-4.10643853556937e+001,-1.00858713195703e+001

3.38245772979638e+005,-4.10660038480640e+001,-1.02257672837993e+001

3.42967508011610e+005,-4.10676669350728e+001,-1.03675789464965e+001

3.47755156008335e+005,-4.10693758208996e+001,-1.05113315355254e+001

3.52609637080511e+005,-4.10711317409324e+001,-1.06570505709507e+001

3.57531884183106e+005,-4.10729359625083e+001,-1.08047618668555e+001

3.62522843294651e+005,-4.10747897856692e+001,-1.09544915331061e+001

3.67583473599047e+005,-4.10766945439302e+001,-1.11062659770591e+001

3.72714747669902e+005,-4.10786516050644e+001,-1.12601119052115e+001

3.77917651657445e+005,-4.10806623719001e+001,-1.14160563247872e+001

3.83193185478053e+005,-4.10827282831342e+001,-1.15741265452595e+001

3.88542363006410e+005,-4.10848508141592e+001,-1.17343501798039e+001

3.93966212270369e+005,-4.10870314779050e+001,-1.18967551466796e+001

3.99465775648511e+005,-4.10892718256957e+001,-1.20613696705348e+001

4.05042110070485e+005,-4.10915734481210e+001,-1.22282222836334e+001

4.10696287220124e+005,-4.10939379759221e+001,-1.23973418269988e+001

4.16429393741414e+005,-4.10963670808929e+001,-1.25687574514707e+001

4.22242531447321e+005,-4.10988624767951e+001,-1.27424986186717e+001

4.28136817531551e+005,-4.11014259202892e+001,-1.29185951018804e+001

4.34113384783250e+005,-4.11040592118790e+001,-1.30970769868052e+001

4.40173381804713e+005,-4.11067641968717e+001,-1.32779746722557e+001

4.46317973232124e+005,-4.11095427663521e+001,-1.34613188707082e+001

4.52548339959385e+005,-4.11123968581716e+001,-1.36471406087609e+001

4.58865679365059e+005,-4.11153284579512e+001,-1.38354712274722e+001

4.65271205542494e+005,-4.11183396000997e+001,-1.40263423825812e+001

4.71766149533147e+005,-4.11214323688449e+001,-1.42197860446042e+001

4.78351759563174e+005,-4.11246088992801e+001,-1.44158344988010e+001

4.85029301283321e+005,-4.11278713784235e+001,-1.46145203450106e+001

4.91800058012158e+005,-4.11312220462919e+001,-1.48158764973467e+001

4.98665330982714e+005,-4.11346631969878e+001,-1.50199361837523e+001

5.05626439592555e+005,-4.11381971797996e+001,-1.52267329454063e+001

5.12684721657352e+005,-4.11418264003149e+001,-1.54363006359766e+001

5.19841533667984e+005,-4.11455533215471e+001,-1.56486734207179e+001

5.27098251051240e+005,-4.11493804650733e+001,-1.58638857754055e+001

5.34456268434150e+005,-4.11533104121859e+001,-1.60819724851021e+001

5.41916999912011e+005,-4.11573458050550e+001,-1.63029686427512e+001

