Freq.,VOut,OutRef

1.00000000000000e+004,-8.18955805272959e+000,-5.44879491233294e-002

1.01395947979003e+004,-8.18955804902025e+000,-5.52485717249108e-002

1.02811382665607e+004,-8.18955804520660e+000,-5.60198121872542e-002

1.04246576084112e+004,-8.18955804128561e+000,-5.68018187293263e-002

1.05701804056138e+004,-8.18955803725425e+000,-5.75947416384583e-002

1.07177346253629e+004,-8.18955803310956e+000,-5.83987332989861e-002

1.08673486252606e+004,-8.18955802884802e+000,-5.92139482252333e-002

1.10190511587661e+004,-8.18955802446688e+000,-6.00405430831556e-002

1.11728713807222e+004,-8.18955801996260e+000,-6.08786767297170e-002

1.13288388529580e+004,-8.18955801533145e+000,-6.17285102402551e-002

1.14869835499703e+004,-8.18955801056997e+000,-6.25902069363567e-002

1.16473358646846e+004,-8.18955800567472e+000,-6.34639324180689e-002

1.18099266142953e+004,-8.18955800064166e+000,-6.43498546007965e-002

1.19747870461893e+004,-8.18955799546714e+000,-6.52481437401673e-002

1.21419488439505e+004,-8.18955799014678e+000,-6.61589724728944e-002

1.23114441334492e+004,-8.18955798467701e+000,-6.70825158390472e-002

1.24833054890161e+004,-8.18955797905327e+000,-6.80189513284746e-002

1.26575659397028e+004,-8.18955797327126e+000,-6.89684589051054e-002

1.28342589756290e+004,-8.18955796732656e+000,-6.99312210459324e-002

1.30134185544193e+004,-8.18955796121463e+000,-7.09074227743107e-002

1.31950791077289e+004,-8.18955795493100e+000,-7.18972516956229e-002

1.33792755478611e+004,-8.18955794847011e+000,-7.29008980396820e-002

1.35660432744767e+004,-8.18955794182777e+000,-7.39185546821230e-002

1.37554181813974e+004,-8.18955793499838e+000,-7.49504171994605e-002

1.39474366635040e+004,-8.18955792797691e+000,-7.59966838927746e-002

1.41421356237309e+004,-8.18955792075775e+000,-7.70575558347909e-002

1.43395524801583e+004,-8.18955791333555e+000,-7.81332369018118e-002

1.45397251732031e+004,-8.18955790570432e+000,-7.92239338191781e-002

1.47426921729110e+004,-8.18955789785855e+000,-8.03298561939556e-002

1.49484924863494e+004,-8.18955788979198e+000,-8.14512165622202e-002

1.51571656651040e+004,-8.18955788149831e+000,-8.25882304266779e-002

1.53687518128801e+004,-8.18955787297100e+000,-8.37411162981035e-002

1.55832915932100e+004,-8.18955786420404e+000,-8.49100957326111e-002

1.58008262372675e+004,-8.18955785519025e+000,-8.60953933858801e-002

1.60213975517924e+004,-8.18955784592267e+000,-8.72972370461036e-002

1.62450479271247e+004,-8.18955783639446e+000,-8.85158576793903e-002

1.64718203453514e+004,-8.18955782659772e+000,-8.97514894814368e-002

1.67017583885674e+004,-8.18955781652547e+000,-9.10043699091826e-002

1.69349062472505e+004,-8.18955780616958e+000,-9.22747397406371e-002

1.71713087287550e+004,-8.18955779552218e+000,-9.35628431113959e-002

1.74110112659224e+004,-8.18955778457488e+000,-9.48689275664232e-002

1.76540599258131e+004,-8.18955777331958e+000,-9.61932441031125e-002

1.79005014185594e+004,-8.18955776174750e+000,-9.75360472246419e-002

1.81503831063432e+004,-8.18955774984941e+000,-9.88975949883974e-002

1.84037530124975e+004,-8.18955773761630e+000,-1.00278149050562e-001

1.86606598307361e+004,-8.18955772503888e+000,-1.01677974719463e-001

1.89211529345119e+004,-8.18955771210718e+000,-1.03097341009692e-001

1.91852823865052e+004,-8.18955769881123e+000,-1.04536520688632e-001

1.94530989482457e+004,-8.18955768514098e+000,-1.05995790330058e-001

1.97246540898671e+004,-8.18955767108582e+000,-1.07475430369445e-001

1.99999999999999e+004,-8.18955765663465e+000,-1.08975725158184e-001

2.02791895958005e+004,-8.18955764177668e+000,-1.10496963012200e-001

2.05622765331213e+004,-8.18955762649991e+000,-1.12039436277978e-001

2.08493152168224e+004,-8.18955761079303e+000,-1.13603441375771e-001

2.11403608112276e+004,-8.18955759464375e+000,-1.15189278867189e-001

2.14354692507258e+004,-8.18955757803932e+000,-1.16797253509895e-001

2.17346972505211e+004,-8.18955756096716e+000,-1.18427674311854e-001

2.20381023175322e+004,-8.18955754341399e+000,-1.20080854596408e-001

2.23457427614443e+004,-8.18955752536622e+000,-1.21757112059486e-001

2.26576777059159e+004,-8.18955750681006e+000,-1.23456768830079e-001

2.29739670999406e+004,-8.18955748773087e+000,-1.25180151536348e-001

2.32946717293690e+004,-8.18955746811390e+000,-1.26927591363187e-001

2.36198532285905e+004,-8.18955744794407e+000,-1.28699424117602e-001

2.39495740923785e+004,-8.18955742720590e+000,-1.30495990293471e-001

2.42838976879009e+004,-8.18955740588305e+000,-1.32317635139326e-001

2.46228882668982e+004,-8.18955738395916e+000,-1.34164708720019e-001

2.49666109780322e+004,-8.18955736141710e+000,-1.36037565987718e-001

2.53151318794055e+004,-8.18955733823969e+000,-1.37936566846510e-001

2.56685179512580e+004,-8.18955731440852e+000,-1.39862076227677e-001

2.60268371088386e+004,-8.18955728990547e+000,-1.41814464151427e-001

2.63901582154578e+004,-8.18955726471149e+000,-1.43794105804020e-001

2.67585510957221e+004,-8.18955723880689e+000,-1.45801381609483e-001

2.71320865489533e+004,-8.18955721217153e+000,-1.47836677300460e-001

2.75108363627948e+004,-8.18955718478496e+000,-1.49900383991016e-001

2.78948733270080e+004,-8.18955715662565e+000,-1.51992898257279e-001

2.82842712474618e+004,-8.18955712767193e+000,-1.54114622207352e-001

2.86791049603164e+004,-8.18955709790119e+000,-1.56265963562974e-001

2.90794503464061e+004,-8.18955706729045e+000,-1.58447335734615e-001

2.94853843458219e+004,-8.18955703581570e+000,-1.60659157904510e-001

2.98969849726987e+004,-8.18955700345258e+000,-1.62901855103434e-001

3.03143313302078e+004,-8.18955697017578e+000,-1.65175858294963e-001

3.07375036257601e+004,-8.18955693595957e+000,-1.67481604455708e-001

3.11665831864199e+004,-8.18955690077739e+000,-1.69819536660722e-001

3.16016524745350e+004,-8.18955686460156e+000,-1.72190104171281e-001

3.20427951035848e+004,-8.18955682740409e+000,-1.74593762514720e-001

3.24900958542493e+004,-8.18955678915601e+000,-1.77030973576999e-001

3.29436406907028e+004,-8.18955674982736e+000,-1.79502205691081e-001

3.34035167771346e+004,-8.18955670938773e+000,-1.82007933722980e-001

3.38698124945009e+004,-8.18955666780518e+000,-1.84548639168825e-001

3.43426174575100e+004,-8.18955662504760e+000,-1.87124810240596e-001

3.48220225318448e+004,-8.18955658108136e+000,-1.89736941966118e-001

3.53081198516260e+004,-8.18955653587224e+000,-1.92385536279295e-001

3.58010028371187e+004,-8.18955648938496e+000,-1.95071102118621e-001

3.63007662126863e+004,-8.18955644158307e+000,-1.97794155525599e-001

3.68075060249948e+004,-8.18955639242909e+000,-2.00555219742479e-001

3.73213196614721e+004,-8.18955634188488e+000,-2.03354825310296e-001

3.78423058690237e+004,-8.18955628991049e+000,-2.06193510178558e-001

3.83705647730104e+004,-8.18955623646551e+000,-2.09071819797826e-001

3.89061978964912e+004,-8.18955618150783e+000,-2.11990307233508e-001

3.94493081797342e+004,-8.18955612499438e+000,-2.14949533267006e-001

3.99999999999998e+004,-8.18955606688080e+000,-2.17950066504420e-001

4.05583791916010e+004,-8.18955600712172e+000,-2.20992483484122e-001

4.11245530662425e+004,-8.18955594566980e+000,-2.24077368793278e-001

4.16986304336447e+004,-8.18955588247713e+000,-2.27205315170527e-001

4.22807216224550e+004,-8.18955581749363e+000,-2.30376923629941e-001

4.28709385014515e+004,-8.18955575066845e+000,-2.33592803566701e-001

4.34693945010421e+004,-8.18955568194878e+000,-2.36853572882025e-001

4.40762046350642e+004,-8.18955561128061e+000,-2.40159858095191e-001

4.46914855228886e+004,-8.18955553860810e+000,-2.43512294469331e-001

4.53153554118317e+004,-8.18955546387397e+000,-2.46911526128993e-001

4.59479341998812e+004,-8.18955538701921e+000,-2.50358206185135e-001

4.65893434587380e+004,-8.18955530798293e+000,-2.53852996862402e-001

4.72397064571810e+004,-8.18955522670285e+000,-2.57396569620876e-001

4.78991481847569e+004,-8.18955514311458e+000,-2.60989605290596e-001

4.85677953758016e+004,-8.18955505715167e+000,-2.64632794199973e-001

4.92457765337964e+004,-8.18955496874637e+000,-2.68326836304719e-001

4.99332219560642e+004,-8.18955487782828e+000,-2.72072441328076e-001

5.06302637588109e+004,-8.18955478432523e+000,-2.75870328892737e-001

5.13370359025159e+004,-8.18955468816297e+000,-2.79721228658945e-001

5.20536742176771e+004,-8.18955458926498e+000,-2.83625880466365e-001

5.27803164309155e+004,-8.18955448755231e+000,-2.87585034475435e-001

5.35171021914442e+004,-8.18955438294426e+000,-2.91599451306809e-001

5.42641730979066e+004,-8.18955427535720e+000,-2.95669902194172e-001

5.50216727255895e+004,-8.18955416470511e+000,-2.99797169127618e-001

5.57897466540159e+004,-8.18955405089952e+000,-3.03982045004103e-001

5.65685424949235e+004,-8.18955393384958e+000,-3.08225333777620e-001

5.73582099206328e+004,-8.18955381346142e+000,-3.12527850617467e-001

5.81589006928121e+004,-8.18955368963851e+000,-3.16890422060910e-001

5.89707686916437e+004,-8.18955356228123e+000,-3.21313886173534e-001

5.97939699453972e+004,-8.18955343128739e+000,-3.25799092706733e-001

6.06286626604156e+004,-8.18955329655156e+000,-3.30346903263112e-001

6.14750072515201e+004,-8.18955315796502e+000,-3.34958191461911e-001

6.23331663728396e+004,-8.18955301541613e+000,-3.39633843102366e-001

6.32033049490698e+004,-8.18955286878953e+000,-3.44374756338077e-001

6.40855902071694e+004,-8.18955271796679e+000,-3.49181841844696e-001

6.49801917084985e+004,-8.18955256282559e+000,-3.54056022997708e-001

6.58872813814055e+004,-8.18955240324015e+000,-3.58998236046225e-001

6.68070335542691e+004,-8.18955223908091e+000,-3.64009430293153e-001

6.77396249890018e+004,-8.18955207021411e+000,-3.69090568278770e-001

6.86852349150199e+004,-8.18955189650218e+000,-3.74242625961354e-001

6.96440450636895e+004,-8.18955171780348e+000,-3.79466592904767e-001

7.06162397032520e+004,-8.18955153397204e+000,-3.84763472468774e-001

7.16020056742374e+004,-8.18955134485703e+000,-3.90134282002406e-001

7.26015324253724e+004,-8.18955115030363e+000,-3.95580053033113e-001

7.36150120499896e+004,-8.18955095015201e+000,-4.01101831468560e-001

7.46426393229441e+004,-8.18955074423742e+000,-4.06700677795412e-001

7.56846117380472e+004,-8.18955053238999e+000,-4.12377667281665e-001

7.67411295460207e+004,-8.18955031443503e+000,-4.18133890180077e-001

7.78123957929823e+004,-8.18955009019190e+000,-4.23970451941258e-001

7.88986163594682e+004,-8.18954985947496e+000,-4.29888473418290e-001

7.99999999999995e+004,-8.18954962209247e+000,-4.35889091086781e-001

8.11167583832018e+004,-8.18954937784685e+000,-4.41973457258214e-001

8.22491061324848e+004,-8.18954912653443e+000,-4.48142740300344e-001

8.33972608672892e+004,-8.18954886794522e+000,-4.54398124861158e-001

8.45614432449099e+004,-8.18954860186242e+000,-4.60740812095476e-001

8.57418770029029e+004,-8.18954832806292e+000,-4.67172019890012e-001

8.69387890020841e+004,-8.18954804631611e+000,-4.73692983101920e-001

8.81524092701283e+004,-8.18954775638469e+000,-4.80304953787411e-001

8.93829710457770e+004,-8.18954745802335e+000,-4.87009201446570e-001

9.06307108236633e+004,-8.18954715097941e+000,-4.93807013261172e-001

9.18958683997622e+004,-8.18954683499201e+000,-5.00699694341428e-001

9.31786869174758e+004,-8.18954650979207e+000,-5.07688567974809e-001

9.44794129143618e+004,-8.18954617510178e+000,-5.14774975878296e-001

9.57982963695136e+004,-8.18954583063485e+000,-5.21960278451200e-001

9.71355907516031e+004,-8.18954547609553e+000,-5.29245855037632e-001

9.84915530675926e+004,-8.18954511117861e+000,-5.36633104187892e-001

9.98664439121282e+004,-8.18954473556901e+000,-5.44123443923637e-001

1.01260527517622e+005,-8.18954434894166e+000,-5.51718312007600e-001

1.02674071805032e+005,-8.18954395096084e+000,-5.59419166217759e-001

1.04107348435354e+005,-8.18954354127992e+000,-5.67227484624769e-001

1.05560632861831e+005,-8.18954311954102e+000,-5.75144765871481e-001

1.07034204382888e+005,-8.18954268537455e+000,-5.83172529458791e-001

1.08528346195813e+005,-8.18954223839879e+000,-5.91312316033533e-001

1.10043345451179e+005,-8.18954177821942e+000,-5.99565687681924e-001

1.11579493308032e+005,-8.18954130442916e+000,-6.07934228225042e-001

1.13137084989847e+005,-8.18954081660740e+000,-6.16419543518649e-001

1.14716419841265e+005,-8.18954031431922e+000,-6.25023261761057e-001

1.16317801385624e+005,-8.18953979711546e+000,-6.33747033797722e-001

1.17941537383287e+005,-8.18953926453182e+000,-6.42592533437208e-001

1.19587939890794e+005,-8.18953871608855e+000,-6.51561457766110e-001

1.21257325320831e+005,-8.18953815128961e+000,-6.60655527472355e-001

1.22950014503040e+005,-8.18953756962215e+000,-6.69876487170248e-001

1.24666332745679e+005,-8.18953697055607e+000,-6.79226105730260e-001

1.26406609898139e+005,-8.18953635354321e+000,-6.88706176613772e-001

1.28171180414339e+005,-8.18953571801660e+000,-6.98318518212581e-001

1.29960383416997e+005,-8.18953506338976e+000,-7.08064974193318e-001

1.31774562762811e+005,-8.18953438905622e+000,-7.17947413843663e-001

1.33614067108538e+005,-8.18953369438843e+000,-7.27967732427614e-001

1.35479249978003e+005,-8.18953297873709e+000,-7.38127851541899e-001

1.37370469830040e+005,-8.18953224143032e+000,-7.48429719479100e-001

1.39288090127379e+005,-8.18953148177255e+000,-7.58875311596385e-001

1.41232479406504e+005,-8.18953069904426e+000,-7.69466630683889e-001

1.43204011348474e+005,-8.18952989250004e+000,-7.80205707347713e-001

1.45203064850745e+005,-8.18952906136853e+000,-7.91094600387155e-001

1.47230024099979e+005,-8.18952820485082e+000,-8.02135397185990e-001

1.49285278645888e+005,-8.18952732211943e+000,-8.13330214103439e-001

1.51369223476094e+005,-8.18952641231745e+000,-8.24681196872068e-001

1.53482259092041e+005,-8.18952547455709e+000,-8.36190521001525e-001

1.55624791585964e+005,-8.18952450791845e+000,-8.47860392187996e-001

1.57797232718936e+005,-8.18952351144849e+000,-8.59693046725832e-001

1.59999999999999e+005,-8.18952248415925e+000,-8.71690751930784e-001

1.62233516766403e+005,-8.18952142502681e+000,-8.83855806561924e-001

1.64498212264969e+005,-8.18952033298985e+000,-8.96190541252988e-001

1.66794521734578e+005,-8.18951920694767e+000,-9.08697318951430e-001

1.69122886489819e+005,-8.18951804575903e+000,-9.21378535357607e-001

1.71483754005805e+005,-8.18951684824031e+000,-9.34236619374423e-001

1.73877578004168e+005,-8.18951561316366e+000,-9.47274033561911e-001

1.76304818540256e+005,-8.18951433925547e+000,-9.60493274595063e-001

1.78765942091554e+005,-8.18951302519400e+000,-9.73896873733130e-001

1.81261421647326e+005,-8.18951166960761e+000,-9.87487397289836e-001

1.83791736799524e+005,-8.18951027107292e+000,-1.00126744711168e+000

1.86357373834951e+005,-8.18950882811216e+000,-1.01523966106363e+000

1.88958825828723e+005,-8.18950733919109e+000,-1.02940671352066e+000

1.91596592739027e+005,-8.18950580271661e+000,-1.04377131586404e+000

1.94271181503206e+005,-8.18950421703433e+000,-1.05833621698586e+000

1.96983106135185e+005,-8.18950258042561e+000,-1.07310420380097e+000

1.99732887824256e+005,-8.18950089110526e+000,-1.08807810176257e+000

2.02521055035243e+005,-8.18949914721830e+000,-1.10326077538766e+000

2.05348143610063e+005,-8.18949734683729e+000,-1.11865512878689e+000

2.08214696870707e+005,-8.18949548795884e+000,-1.13426410620366e+000

2.11121265723661e+005,-8.18949356850048e+000,-1.15009069255876e+000

2.14068408765776e+005,-8.18949158629719e+000,-1.16613791400234e+000

2.17056692391625e+005,-8.18948953909798e+000,-1.18240883847199e+000

2.20086690902357e+005,-8.18948742456175e+000,-1.19890657626139e+000

2.23158986616063e+005,-8.18948524025364e+000,-1.21563428059222e+000

2.26274169979693e+005,-8.18948298364082e+000,-1.23259514819619e+000

2.29432839682530e+005,-8.18948065208810e+000,-1.24979241990408e+000

2.32635602771247e+005,-8.18947824285337e+000,-1.26722938124228e+000

2.35883074766574e+005,-8.18947575308311e+000,-1.28490936303616e+000

2.39175879781588e+005,-8.18947317980703e+000,-1.30283574202295e+000

2.42514650641661e+005,-8.18947051993330e+000,-1.32101194147073e+000

2.45900029006080e+005,-8.18946777024285e+000,-1.33944143180745e+000

2.49332665491357e+005,-8.18946492738371e+000,-1.35812773125623e+000

2.52813219796278e+005,-8.18946198786506e+000,-1.37707440648027e+000

2.56342360828676e+005,-8.18945894805117e+000,-1.39628507323432e+000

2.59920766833993e+005,-8.18945580415456e+000,-1.41576339702744e+000

2.63549125525621e+005,-8.18945255222950e+000,-1.43551309379083e+000

2.67228134217075e+005,-8.18944918816466e+000,-1.45553793055721e+000

2.70958499956006e+005,-8.18944570767566e+000,-1.47584172614787e+000

2.74740939660078e+005,-8.18944210629732e+000,-1.49642835186803e+000

2.78576180254757e+005,-8.18943837937536e+000,-1.51730173221208e+000

2.82464958813007e+005,-8.18943452205798e+000,-1.53846584557784e+000

2.86408022696948e+005,-8.18943052928678e+000,-1.55992472498921e+000

2.90406129701488e+005,-8.18942639578738e+000,-1.58168245883013e+000

2.94460048199957e+005,-8.18942211605972e+000,-1.60374319158551e+000

2.98570557291775e+005,-8.18941768436765e+000,-1.62611112459410e+000

3.02738446952187e+005,-8.18941309472824e+000,-1.64879051681002e+000

3.06964518184081e+005,-8.18940834090060e+000,-1.67178568557443e+000

3.11249583171928e+005,-8.18940341637414e+000,-1.69510100739662e+000

3.15594465437872e+005,-8.18939831435625e+000,-1.71874091874735e+000

3.19999999999997e+005,-8.18939302775941e+000,-1.74270991686061e+000

3.24467033532806e+005,-8.18938754918782e+000,-1.76701256054663e+000

3.28996424529938e+005,-8.18938187092341e+000,-1.79165347101598e+000

3.33589043469155e+005,-8.18937598491116e+000,-1.81663733271370e+000

3.38245772979638e+005,-8.18936988274377e+000,-1.84196889416585e+000

3.42967508011610e+005,-8.18936355564551e+000,-1.86765296883667e+000

3.47755156008335e+005,-8.18935699445571e+000,-1.89369443599690e+000

3.52609637080511e+005,-8.18935018961113e+000,-1.92009824160394e+000

3.57531884183106e+005,-8.18934313112791e+000,-1.94686939919450e+000

3.62522843294651e+005,-8.18933580858220e+000,-1.97401299078907e+000

3.67583473599047e+005,-8.18932821109053e+000,-2.00153416780859e+000

3.72714747669902e+005,-8.18932032728905e+000,-2.02943815200330e+000

3.77917651657445e+005,-8.18931214531165e+000,-2.05773023639622e+000

3.83193185478053e+005,-8.18930365276762e+000,-2.08641578623611e+000

3.88542363006410e+005,-8.18929483671786e+000,-2.11550023996943e+000

3.93966212270369e+005,-8.18928568365038e+000,-2.14498911022003e+000

3.99465775648511e+005,-8.18927617945483e+000,-2.17488798478543e+000

4.05042110070485e+005,-8.18926630939535e+000,-2.20520252764990e+000

4.10696287220124e+005,-8.18925605808328e+000,-2.23593848000584e+000

4.16429393741414e+005,-8.18924540944765e+000,-2.26710166129658e+000

4.22242531447321e+005,-8.18923434670538e+000,-2.29869797026950e+000

4.28136817531551e+005,-8.18922285232952e+000,-2.33073338604776e+000

4.34113384783250e+005,-8.18921090801662e+000,-2.36321396921683e+000

4.40173381804713e+005,-8.18919849465269e+000,-2.39614586292657e+000

4.46317973232124e+005,-8.18918559227773e+000,-2.42953529401139e+000

4.52548339959385e+005,-8.18917218004894e+000,-2.46338857412620e+000

4.58865679365059e+005,-8.18915823620212e+000,-2.49771210090191e+000

4.65271205542494e+005,-8.18914373801221e+000,-2.53251235911640e+000

4.71766149533147e+005,-8.18912866175175e+000,-2.56779592188504e+000

4.78351759563174e+005,-8.18911298264789e+000,-2.60356945187108e+000

4.85029301283321e+005,-8.18909667483777e+000,-2.63983970251418e+000

4.91800058012158e+005,-8.18907971132229e+000,-2.67661351927955e+000

4.98665330982714e+005,-8.18906206391805e+000,-2.71389784092678e+000

5.05626439592555e+005,-8.18904370320776e+000,-2.75169970080041e+000

5.12684721657352e+005,-8.18902459848819e+000,-2.79002622814302e+000

5.19841533667984e+005,-8.18900471771716e+000,-2.82888464942817e+000

5.27098251051240e+005,-8.18898402745799e+000,-2.86828228971818e+000

5.34456268434150e+005,-8.18896249282214e+000,-2.90822657404453e+000

5.41916999912011e+005,-8.18894007740989e+000,-2.94872502881350e+000

