Freq.,VOut,OutRef

1.00000000000000e+004,-1.10694839138695e+000,-1.82354740586247e-001

1.01395947979003e+004,-1.10694828247518e+000,-1.84900319453878e-001

1.02811382665607e+004,-1.10694817050166e+000,-1.87481433343316e-001

1.04246576084112e+004,-1.10694805537999e+000,-1.90098578309742e-001

1.05701804056138e+004,-1.10694793702196e+000,-1.92752257329263e-001

1.07177346253629e+004,-1.10694781533640e+000,-1.95442980402828e-001

1.08673486252606e+004,-1.10694769022995e+000,-1.98171264647755e-001

1.10190511587661e+004,-1.10694756160628e+000,-2.00937634402840e-001

1.11728713807222e+004,-1.10694742936656e+000,-2.03742621325316e-001

1.13288388529580e+004,-1.10694729340904e+000,-2.06586764494645e-001

1.14869835499703e+004,-1.10694715362945e+000,-2.09470610514204e-001

1.16473358646846e+004,-1.10694700992013e+000,-2.12394713619986e-001

1.18099266142953e+004,-1.10694686217059e+000,-2.15359635784418e-001

1.19747870461893e+004,-1.10694671026747e+000,-2.18365946823009e-001

1.21419488439505e+004,-1.10694655409377e+000,-2.21414224508786e-001

1.23114441334492e+004,-1.10694639352945e+000,-2.24505054678808e-001

1.24833054890161e+004,-1.10694622845124e+000,-2.27639031347478e-001

1.26575659397028e+004,-1.10694605873212e+000,-2.30816756823178e-001

1.28342589756290e+004,-1.10694588424161e+000,-2.34038841821848e-001

1.30134185544193e+004,-1.10694570484566e+000,-2.37305905584157e-001

1.31950791077289e+004,-1.10694552040623e+000,-2.40618575997112e-001

1.33792755478611e+004,-1.10694533078173e+000,-2.43977489710037e-001

1.35660432744767e+004,-1.10694513582616e+000,-2.47383292263201e-001

1.37554181813974e+004,-1.10694493538986e+000,-2.50836638205379e-001

1.39474366635040e+004,-1.10694472931863e+000,-2.54338191225409e-001

1.41421356237309e+004,-1.10694451745402e+000,-2.57888624275698e-001

1.43395524801583e+004,-1.10694429963341e+000,-2.61488619702321e-001

1.45397251732031e+004,-1.10694407568907e+000,-2.65138869379525e-001

1.47426921729110e+004,-1.10694384544898e+000,-2.68840074837263e-001

1.49484924863494e+004,-1.10694360873621e+000,-2.72592947400055e-001

1.51571656651040e+004,-1.10694336536858e+000,-2.76398208323400e-001

1.53687518128801e+004,-1.10694311515927e+000,-2.80256588929238e-001

1.55832915932100e+004,-1.10694285791588e+000,-2.84168830750413e-001

1.58008262372675e+004,-1.10694259344048e+000,-2.88135685672012e-001

1.60213975517924e+004,-1.10694232153003e+000,-2.92157916073292e-001

1.62450479271247e+004,-1.10694204197532e+000,-2.96236294978873e-001

1.64718203453514e+004,-1.10694175456151e+000,-3.00371606203443e-001

1.67017583885674e+004,-1.10694145906773e+000,-3.04564644503667e-001

1.69349062472505e+004,-1.10694115526673e+000,-3.08816215732054e-001

1.71713087287550e+004,-1.10694084292510e+000,-3.13127136989603e-001

1.74110112659224e+004,-1.10694052180264e+000,-3.17498236785501e-001

1.76540599258131e+004,-1.10694019165248e+000,-3.21930355194699e-001

1.79005014185594e+004,-1.10693985222099e+000,-3.26424344018566e-001

1.81503831063432e+004,-1.10693950324716e+000,-3.30981066951039e-001

1.84037530124975e+004,-1.10693914446277e+000,-3.35601399743038e-001

1.86606598307361e+004,-1.10693877559200e+000,-3.40286230371273e-001

1.89211529345119e+004,-1.10693839635137e+000,-3.45036459208479e-001

1.91852823865052e+004,-1.10693800644928e+000,-3.49852999197235e-001

1.94530989482457e+004,-1.10693760558609e+000,-3.54736776025173e-001

1.97246540898671e+004,-1.10693719345364e+000,-3.59688728302062e-001

1.99999999999999e+004,-1.10693676973505e+000,-3.64709807742074e-001

2.02791895958005e+004,-1.10693633410485e+000,-3.69800979344098e-001

2.05622765331213e+004,-1.10693588622801e+000,-3.74963221580444e-001

2.08493152168224e+004,-1.10693542576035e+000,-3.80197526582190e-001

2.11403608112276e+004,-1.10693495234783e+000,-3.85504900331956e-001

2.14354692507258e+004,-1.10693446562672e+000,-3.90886362855118e-001

2.17346972505211e+004,-1.10693396522273e+000,-3.96342948418280e-001

2.20381023175322e+004,-1.10693345075136e+000,-4.01875705726027e-001

2.23457427614443e+004,-1.10693292181717e+000,-4.07485698123817e-001

2.26576777059159e+004,-1.10693237801357e+000,-4.13174003802057e-001

2.29739670999406e+004,-1.10693181892257e+000,-4.18941716003719e-001

2.32946717293690e+004,-1.10693124411438e+000,-4.24789943233747e-001

2.36198532285905e+004,-1.10693065314730e+000,-4.30719809472188e-001

2.39495740923785e+004,-1.10693004556709e+000,-4.36732454391093e-001

2.42838976879009e+004,-1.10692942090670e+000,-4.42829033573426e-001

2.46228882668982e+004,-1.10692877868604e+000,-4.49010718734601e-001

2.49666109780322e+004,-1.10692811841150e+000,-4.55278697948175e-001

2.53151318794055e+004,-1.10692743957562e+000,-4.61634175874107e-001

2.56685179512580e+004,-1.10692674165657e+000,-4.68078373991376e-001

2.60268371088386e+004,-1.10692602411806e+000,-4.74612530830093e-001

2.63901582154578e+004,-1.10692528640848e+000,-4.81237902213559e-001

2.67585510957221e+004,-1.10692452796098e+000,-4.87955761496085e-001

2.71320865489533e+004,-1.10692374819257e+000,-4.94767399809799e-001

2.75108363627948e+004,-1.10692294650390e+000,-5.01674126313573e-001

2.78948733270080e+004,-1.10692212227897e+000,-5.08677268441347e-001

2.82842712474618e+004,-1.10692127488411e+000,-5.15778172162347e-001

2.86791049603164e+004,-1.10692040366828e+000,-5.22978202234362e-001

2.90794503464061e+004,-1.10691950796177e+000,-5.30278742471287e-001

2.94853843458219e+004,-1.10691858707627e+000,-5.37681196005560e-001

2.98969849726987e+004,-1.10691764030400e+000,-5.45186985560374e-001

3.03143313302078e+004,-1.10691666691739e+000,-5.52797553721045e-001

3.07375036257601e+004,-1.10691566616842e+000,-5.60514363213898e-001

3.11665831864199e+004,-1.10691463728795e+000,-5.68338897187828e-001

3.16016524745350e+004,-1.10691357948525e+000,-5.76272659498597e-001

3.20427951035848e+004,-1.10691249194761e+000,-5.84317174997231e-001

3.24900958542493e+004,-1.10691137383898e+000,-5.92473989826503e-001

3.29436406907028e+004,-1.10691022430042e+000,-6.00744671713823e-001

3.34035167771346e+004,-1.10690904244832e+000,-6.09130810276903e-001

3.38698124945009e+004,-1.10690782737465e+000,-6.17634017326067e-001

3.43426174575100e+004,-1.10690657814558e+000,-6.26255927176927e-001

3.48220225318448e+004,-1.10690529380125e+000,-6.34998196962596e-001

3.53081198516260e+004,-1.10690397335462e+000,-6.43862506954417e-001

3.58010028371187e+004,-1.10690261579115e+000,-6.52850560882657e-001

3.63007662126863e+004,-1.10690122006765e+000,-6.61964086266767e-001

3.68075060249948e+004,-1.10689978511162e+000,-6.71204834745982e-001

3.73213196614721e+004,-1.10689830982047e+000,-6.80574582416874e-001

3.78423058690237e+004,-1.10689679306065e+000,-6.90075130174392e-001

3.83705647730104e+004,-1.10689523366669e+000,-6.99708304059669e-001

3.89061978964912e+004,-1.10689363044048e+000,-7.09475955609079e-001

3.94493081797342e+004,-1.10689198215018e+000,-7.19379962212800e-001

3.99999999999998e+004,-1.10689028752937e+000,-7.29422227474184e-001

4.05583791916010e+004,-1.10688854527601e+000,-7.39604681576638e-001

4.11245530662425e+004,-1.10688675405159e+000,-7.49929281655063e-001

4.16986304336447e+004,-1.10688491247984e+000,-7.60398012172451e-001

4.22807216224550e+004,-1.10688301914606e+000,-7.71012885300712e-001

4.28709385014515e+004,-1.10688107259552e+000,-7.81775941309448e-001

4.34693945010421e+004,-1.10687907133285e+000,-7.92689248957285e-001

4.40762046350642e+004,-1.10687701382072e+000,-8.03754905889231e-001

4.46914855228886e+004,-1.10687489847832e+000,-8.14975039043319e-001

4.53153554118317e+004,-1.10687272368080e+000,-8.26351805055854e-001

4.59479341998812e+004,-1.10687048775747e+000,-8.37887390679619e-001

4.65893434587380e+004,-1.10686818899071e+000,-8.49584013203273e-001

4.72397064571810e+004,-1.10686582561478e+000,-8.61443920877942e-001

4.78991481847569e+004,-1.10686339581430e+000,-8.73469393350172e-001

4.85677953758016e+004,-1.10686089772282e+000,-8.85662742101297e-001

4.92457765337964e+004,-1.10685832942167e+000,-8.98026310890744e-001

4.99332219560642e+004,-1.10685568893808e+000,-9.10562476209095e-001

5.06302637588109e+004,-1.10685297424407e+000,-9.23273647733657e-001

5.13370359025159e+004,-1.10685018325465e+000,-9.36162268793891e-001

5.20536742176771e+004,-1.10684731382630e+000,-9.49230816840239e-001

5.27803164309155e+004,-1.10684436375526e+000,-9.62481803922659e-001

5.35171021914442e+004,-1.10684133077595e+000,-9.75917777172617e-001

5.42641730979066e+004,-1.10683821255922e+000,-9.89541319294687e-001

5.50216727255895e+004,-1.10683500671047e+000,-1.00335504906329e+000

5.57897466540159e+004,-1.10683171076797e+000,-1.01736162182660e+000

5.65685424949235e+004,-1.10682832220073e+000,-1.03156373001885e+000

5.73582099206328e+004,-1.10682483840685e+000,-1.04596410367775e+000

5.81589006928121e+004,-1.10682125671138e+000,-1.06056551097062e+000

5.89707686916437e+004,-1.10681757436425e+000,-1.07537075872787e+000

5.97939699453972e+004,-1.10681378853828e+000,-1.09038269298225e+000

6.06286626604156e+004,-1.10680989632683e+000,-1.10560419951950e+000

6.14750072515201e+004,-1.10680589474182e+000,-1.12103820443122e+000

6.23331663728396e+004,-1.10680178071127e+000,-1.13668767468080e+000

6.32033049490698e+004,-1.10679755107698e+000,-1.15255561867389e+000

6.40855902071694e+004,-1.10679320259211e+000,-1.16864508683855e+000

6.49801917084985e+004,-1.10678873191884e+000,-1.18495917221215e+000

6.58872813814055e+004,-1.10678413562559e+000,-1.20150101103849e+000

6.68070335542691e+004,-1.10677941018462e+000,-1.21827378337091e+000

6.77396249890018e+004,-1.10677455196909e+000,-1.23528071368660e+000

6.86852349150199e+004,-1.10676955725053e+000,-1.25252507150622e+000

6.96440450636895e+004,-1.10676442219591e+000,-1.27001017202541e+000

7.06162397032520e+004,-1.10675914286459e+000,-1.28773937675380e+000

7.16020056742374e+004,-1.10675371520552e+000,-1.30571609416210e+000

7.26015324253724e+004,-1.10674813505408e+000,-1.32394378033977e+000

7.36150120499896e+004,-1.10674239812867e+000,-1.34242593966210e+000

7.46426393229441e+004,-1.10673650002789e+000,-1.36116612546391e+000

7.56846117380472e+004,-1.10673043622674e+000,-1.38016794072734e+000

7.67411295460207e+004,-1.10672420207352e+000,-1.39943503877449e+000

7.78123957929823e+004,-1.10671779278598e+000,-1.41897112397355e+000

7.88986163594682e+004,-1.10671120344803e+000,-1.43877995245221e+000

7.99999999999995e+004,-1.10670442900557e+000,-1.45886533282357e+000

8.11167583832018e+004,-1.10669746426305e+000,-1.47923112691956e+000

8.22491061324848e+004,-1.10669030387919e+000,-1.49988125053718e+000

8.33972608672892e+004,-1.10668294236305e+000,-1.52081967419407e+000

8.45614432449099e+004,-1.10667537407001e+000,-1.54205042389355e+000

8.57418770029029e+004,-1.10666759319713e+000,-1.56357758190364e+000

8.69387890020841e+004,-1.10665959377901e+000,-1.58540528754380e+000

8.81524092701283e+004,-1.10665136968316e+000,-1.60753773798451e+000

8.93829710457770e+004,-1.10664291460533e+000,-1.62997918905758e+000

9.06307108236633e+004,-1.10663422206472e+000,-1.65273395607847e+000

9.18958683997622e+004,-1.10662528539914e+000,-1.67580641467912e+000

9.31786869174758e+004,-1.10661609775966e+000,-1.69920100165418e+000

9.44794129143618e+004,-1.10660665210599e+000,-1.72292221581621e+000

9.57982963695136e+004,-1.10659694120043e+000,-1.74697461886774e+000

9.71355907516031e+004,-1.10658695760296e+000,-1.77136283628060e+000

9.84915530675926e+004,-1.10657669366517e+000,-1.79609155819120e+000

9.98664439121282e+004,-1.10656614152478e+000,-1.82116554030659e+000

1.01260527517622e+005,-1.10655529309956e+000,-1.84658960482379e+000

1.02674071805032e+005,-1.10654414008111e+000,-1.87236864136341e+000

1.04107348435354e+005,-1.10653267392875e+000,-1.89850760791390e+000

1.05560632861831e+005,-1.10652088586292e+000,-1.92501153179171e+000

1.07034204382888e+005,-1.10650876685857e+000,-1.95188551061384e+000

1.08528346195813e+005,-1.10649630763839e+000,-1.97913471328363e+000

1.10043345451179e+005,-1.10648349866566e+000,-2.00676438099208e+000

1.11579493308032e+005,-1.10647033013733e+000,-2.03477982823180e+000

1.13137084989847e+005,-1.10645679197618e+000,-2.06318644382643e+000

1.14716419841265e+005,-1.10644287382366e+000,-2.09198969197450e+000

1.16317801385624e+005,-1.10642856503174e+000,-2.12119511330722e+000

1.17941537383287e+005,-1.10641385465514e+000,-2.15080832596225e+000

1.19587939890794e+005,-1.10639873144287e+000,-2.18083502667295e+000

1.21257325320831e+005,-1.10638318382983e+000,-2.21128099187198e+000

1.22950014503040e+005,-1.10636719992819e+000,-2.24215207881166e+000

1.24666332745679e+005,-1.10635076751827e+000,-2.27345422669976e+000

1.26406609898139e+005,-1.10633387403957e+000,-2.30519345785114e+000

1.28171180414339e+005,-1.10631650658107e+000,-2.33737587885708e+000

1.29960383416997e+005,-1.10629865187182e+000,-2.37000768176949e+000

1.31774562762811e+005,-1.10628029627081e+000,-2.40309514530345e+000

1.33614067108538e+005,-1.10626142575669e+000,-2.43664463605697e+000

1.35479249978003e+005,-1.10624202591734e+000,-2.47066260974632e+000

1.37370469830040e+005,-1.10622208193919e+000,-2.50515561246113e+000

1.39288090127379e+005,-1.10620157859589e+000,-2.54013028193669e+000

1.41232479406504e+005,-1.10618050023714e+000,-2.57559334884378e+000

1.43204011348474e+005,-1.10615883077682e+000,-2.61155163809821e+000

1.45203064850745e+005,-1.10613655368113e+000,-2.64801207018779e+000

1.47230024099979e+005,-1.10611365195607e+000,-2.68498166251974e+000

1.49285278645888e+005,-1.10609010813503e+000,-2.72246753078589e+000

1.51369223476094e+005,-1.10606590426556e+000,-2.76047689034851e+000

1.53482259092041e+005,-1.10604102189604e+000,-2.79901705764634e+000

1.55624791585964e+005,-1.10601544206205e+000,-2.83809545161951e+000

1.57797232718936e+005,-1.10598914527215e+000,-2.87771959515618e+000

1.59999999999999e+005,-1.10596211149362e+000,-2.91789711655889e+000

1.62233516766403e+005,-1.10593432013743e+000,-2.95863575103368e+000

1.64498212264969e+005,-1.10590575004282e+000,-2.99994334219943e+000

1.66794521734578e+005,-1.10587637946219e+000,-3.04182784361794e+000

1.69122886489819e+005,-1.10584618604440e+000,-3.08429732034948e+000

1.71483754005805e+005,-1.10581514681866e+000,-3.12735995052703e+000

1.73877578004168e+005,-1.10578323817748e+000,-3.17102402695577e+000

1.76304818540256e+005,-1.10575043585916e+000,-3.21529795873492e+000

1.78765942091554e+005,-1.10571671493015e+000,-3.26019027290267e+000

1.81261421647326e+005,-1.10568204976647e+000,-3.30570961610619e+000

1.83791736799524e+005,-1.10564641403507e+000,-3.35186475629389e+000

1.86357373834951e+005,-1.10560978067446e+000,-3.39866458443485e+000

1.88958825828723e+005,-1.10557212187489e+000,-3.44611811626067e+000

1.91596592739027e+005,-1.10553340905796e+000,-3.49423449403470e+000

1.94271181503206e+005,-1.10549361285578e+000,-3.54302298834584e+000

1.96983106135185e+005,-1.10545270308962e+000,-3.59249299992866e+000

1.99732887824256e+005,-1.10541064874778e+000,-3.64265406151077e+000

2.02521055035243e+005,-1.10536741796305e+000,-3.69351583968687e+000

2.05348143610063e+005,-1.10532297798963e+000,-3.74508813681948e+000

2.08214696870707e+005,-1.10527729517937e+000,-3.79738089296839e+000

2.11121265723661e+005,-1.10523033495733e+000,-3.85040418784838e+000

2.14068408765776e+005,-1.10518206179682e+000,-3.90416824281518e+000

2.17056692391625e+005,-1.10513243919372e+000,-3.95868342288109e+000

2.20086690902357e+005,-1.10508142964024e+000,-4.01396023875958e+000

2.23158986616063e+005,-1.10502899459776e+000,-4.07000934894127e+000

2.26274169979693e+005,-1.10497509446944e+000,-4.12684156179895e+000

2.29432839682530e+005,-1.10491968857148e+000,-4.18446783772494e+000

2.32635602771247e+005,-1.10486273510427e+000,-4.24289929129926e+000

2.35883074766574e+005,-1.10480419112236e+000,-4.30214719349074e+000

2.39175879781588e+005,-1.10474401250395e+000,-4.36222297388972e+000

2.42514650641661e+005,-1.10468215391937e+000,-4.42313822297479e+000

2.45900029006080e+005,-1.10461856879901e+000,-4.48490469441253e+000

2.49332665491357e+005,-1.10455320930023e+000,-4.54753430739199e+000

2.52813219796278e+005,-1.10448602627350e+000,-4.61103914899380e+000

2.56342360828676e+005,-1.10441696922776e+000,-4.67543147659475e+000

2.59920766833993e+005,-1.10434598629490e+000,-4.74072372030748e+000

2.63549125525621e+005,-1.10427302419316e+000,-4.80692848545820e+000

2.67228134217075e+005,-1.10419802818994e+000,-4.87405855510028e+000

2.70958499956006e+005,-1.10412094206339e+000,-4.94212689256607e+000

2.74740939660078e+005,-1.10404170806331e+000,-5.01114664405672e+000

2.78576180254757e+005,-1.10396026687074e+000,-5.08113114127201e+000

2.82464958813007e+005,-1.10387655755703e+000,-5.15209390407830e+000

2.86408022696948e+005,-1.10379051754147e+000,-5.22404864321786e+000

2.90406129701488e+005,-1.10370208254805e+000,-5.29700926305886e+000

2.94460048199957e+005,-1.10361118656128e+000,-5.37098986438737e+000

2.98570557291775e+005,-1.10351776178080e+000,-5.44600474724055e+000

3.02738446952187e+005,-1.10342173857490e+000,-5.52206841378434e+000

3.06964518184081e+005,-1.10332304543290e+000,-5.59919557123430e+000

3.11249583171928e+005,-1.10322160891650e+000,-5.67740113482068e+000

3.15594465437872e+005,-1.10311735360999e+000,-5.75670023079913e+000

3.19999999999997e+005,-1.10301020206892e+000,-5.83710819950762e+000

3.24467033532806e+005,-1.10290007476807e+000,-5.91864059846972e+000

3.28996424529938e+005,-1.10278689004785e+000,-6.00131320554583e+000

3.33589043469155e+005,-1.10267056405933e+000,-6.08514202213308e+000

3.38245772979638e+005,-1.10255101070855e+000,-6.17014327641334e+000

3.42967508011610e+005,-1.10242814159884e+000,-6.25633342665320e+000

3.47755156008335e+005,-1.10230186597216e+000,-6.34372916455327e+000

3.52609637080511e+005,-1.10217209064913e+000,-6.43234741865032e+000

3.57531884183106e+005,-1.10203871996741e+000,-6.52220535777148e+000

3.62522843294651e+005,-1.10190165571905e+000,-6.61332039454269e+000

3.67583473599047e+005,-1.10176079708594e+000,-6.70571018895161e+000

3.72714747669902e+005,-1.10161604057417e+000,-6.79939265196559e+000

3.77917651657445e+005,-1.10146727994665e+000,-6.89438594920736e+000

3.83193185478053e+005,-1.10131440615449e+000,-6.99070850468622e+000

3.88542363006410e+005,-1.10115730726649e+000,-7.08837900458987e+000

3.93966212270369e+005,-1.10099586839729e+000,-7.18741640113450e+000

3.99465775648511e+005,-1.10082997163387e+000,-7.28783991647591e+000

4.05042110070485e+005,-1.10065949596032e+000,-7.38966904668200e+000

4.10696287220124e+005,-1.10048431718117e+000,-7.49292356576836e+000

4.16429393741414e+005,-1.10030430784279e+000,-7.59762352979769e+000

4.22242531447321e+005,-1.10011933715308e+000,-7.70378928104379e+000

4.28136817531551e+005,-1.09992927089982e+000,-7.81144145222223e+000

4.34113384783250e+005,-1.09973397136642e+000,-7.92060097078847e+000

4.40173381804713e+005,-1.09953329724697e+000,-8.03128906330341e+000

4.46317973232124e+005,-1.09932710355838e+000,-8.14352725987034e+000

4.52548339959385e+005,-1.09911524155131e+000,-8.25733739864183e+000

4.58865679365059e+005,-1.09889755861899e+000,-8.37274163039953e+000

4.65271205542494e+005,-1.09867389820419e+000,-8.48976242320694e+000

4.71766149533147e+005,-1.09844409970401e+000,-8.60842256713813e+000

4.78351759563174e+005,-1.09820799837291e+000,-8.72874517908210e+000

4.85029301283321e+005,-1.09796542522379e+000,-8.85075370762505e+000

4.91800058012158e+005,-1.09771620692655e+000,-8.97447193801229e+000

4.98665330982714e+005,-1.09746016570515e+000,-9.09992399719008e+000

5.05626439592555e+005,-1.09719711923199e+000,-9.22713435893064e+000

5.12684721657352e+005,-1.09692688052060e+000,-9.35612784903960e+000

5.19841533667984e+005,-1.09664925781578e+000,-9.48692965065008e+000

5.27098251051240e+005,-1.09636405448176e+000,-9.61956530960254e+000

5.34456268434150e+005,-1.09607106888795e+000,-9.75406073991400e+000

5.41916999912011e+005,-1.09577009429234e+000,-9.89044222933688e+000

