Freq.,VOut,OutRef

1.00000000000000e+004,-2.16760148185111e+001,-3.59990218327956e-001

1.01395947979003e+004,-2.16760164855899e+001,-3.65015462967801e-001

1.02811382665607e+004,-2.16760181995356e+001,-3.70110856069159e-001

1.04246576084112e+004,-2.16760199616657e+001,-3.75277376811472e-001

1.05701804056138e+004,-2.16760217733350e+001,-3.80516018040211e-001

1.07177346253629e+004,-2.16760236359360e+001,-3.85827786457901e-001

1.08673486252606e+004,-2.16760255509005e+001,-3.91213702818173e-001

1.10190511587661e+004,-2.16760275197006e+001,-3.96674802120174e-001

1.11728713807222e+004,-2.16760295438497e+001,-4.02212133808804e-001

1.13288388529580e+004,-2.16760316249039e+001,-4.07826761975422e-001

1.14869835499703e+004,-2.16760337644630e+001,-4.13519765562192e-001

1.16473358646846e+004,-2.16760359641715e+001,-4.19292238570557e-001

1.18099266142953e+004,-2.16760382257204e+001,-4.25145290269486e-001

1.19747870461893e+004,-2.16760405508482e+001,-4.31080045408947e-001

1.21419488439505e+004,-2.16760429413422e+001,-4.37097644437157e-001

1.23114441334492e+004,-2.16760453990400e+001,-4.43199243717822e-001

1.24833054890161e+004,-2.16760479258308e+001,-4.49386015752977e-001

1.26575659397028e+004,-2.16760505236570e+001,-4.55659149408512e-001

1.28342589756290e+004,-2.16760531945156e+001,-4.62019850140865e-001

1.30134185544193e+004,-2.16760559404595e+001,-4.68469340231137e-001

1.31950791077289e+004,-2.16760587635996e+001,-4.75008859016807e-001

1.33792755478611e+004,-2.16760616661059e+001,-4.81639663131932e-001

1.35660432744767e+004,-2.16760646502098e+001,-4.88363026745660e-001

1.37554181813974e+004,-2.16760677182049e+001,-4.95180241811006e-001

1.39474366635040e+004,-2.16760708724495e+001,-5.02092618308896e-001

1.41421356237309e+004,-2.16760741153683e+001,-5.09101484501312e-001

1.43395524801583e+004,-2.16760774494540e+001,-5.16208187186108e-001

1.45397251732031e+004,-2.16760808772694e+001,-5.23414091956075e-001

1.47426921729110e+004,-2.16760844014496e+001,-5.30720583459223e-001

1.49484924863494e+004,-2.16760880247032e+001,-5.38129065666571e-001

1.51571656651040e+004,-2.16760917498155e+001,-5.45640962140463e-001

1.53687518128801e+004,-2.16760955796498e+001,-5.53257716308274e-001

1.55832915932100e+004,-2.16760995171498e+001,-5.60980791739276e-001

1.58008262372675e+004,-2.16761035653423e+001,-5.68811672423816e-001

1.60213975517924e+004,-2.16761077273388e+001,-5.76751863061583e-001

1.62450479271247e+004,-2.16761120063385e+001,-5.84802889347880e-001

1.64718203453514e+004,-2.16761164056304e+001,-5.92966298265461e-001

1.67017583885674e+004,-2.16761209285961e+001,-6.01243658383963e-001

1.69349062472505e+004,-2.16761255787120e+001,-6.09636560158893e-001

1.71713087287550e+004,-2.16761303595524e+001,-6.18146616237851e-001

1.74110112659224e+004,-2.16761352747919e+001,-6.26775461769150e-001

1.76540599258131e+004,-2.16761403282085e+001,-6.35524754715604e-001

1.79005014185594e+004,-2.16761455236866e+001,-6.44396176172025e-001

1.81503831063432e+004,-2.16761508652193e+001,-6.53391430689455e-001

1.84037530124975e+004,-2.16761563569123e+001,-6.62512246599814e-001

1.86606598307361e+004,-2.16761620029865e+001,-6.71760376348890e-001

1.89211529345119e+004,-2.16761678077816e+001,-6.81137596831403e-001

1.91852823865052e+004,-2.16761737757591e+001,-6.90645709732748e-001

1.94530989482457e+004,-2.16761799115060e+001,-7.00286541873207e-001

1.97246540898671e+004,-2.16761862197382e+001,-7.10061945559672e-001

1.99999999999999e+004,-2.16761927053040e+001,-7.19973798939017e-001

2.02791895958005e+004,-2.16761993731883e+001,-7.30024006359358e-001

2.05622765331213e+004,-2.16762062285156e+001,-7.40214498735518e-001

2.08493152168224e+004,-2.16762132765549e+001,-7.50547233916770e-001

2.11403608112276e+004,-2.16762205227229e+001,-7.61024197065611e-001

2.14354692507258e+004,-2.16762279725889e+001,-7.71647401034263e-001

2.17346972505211e+004,-2.16762356318784e+001,-7.82418886753502e-001

2.20381023175322e+004,-2.16762435064780e+001,-7.93340723622054e-001

2.23457427614443e+004,-2.16762516024394e+001,-8.04415009904801e-001

2.26576777059159e+004,-2.16762599259849e+001,-8.15643873131777e-001

2.29739670999406e+004,-2.16762684835113e+001,-8.27029470508072e-001

2.32946717293690e+004,-2.16762772815951e+001,-8.38573989327305e-001

2.36198532285905e+004,-2.16762863269978e+001,-8.50279647388508e-001

2.39495740923785e+004,-2.16762956266708e+001,-8.62148693422630e-001

2.42838976879009e+004,-2.16763051877609e+001,-8.74183407521730e-001

2.46228882668982e+004,-2.16763150176157e+001,-8.86386101577309e-001

2.49666109780322e+004,-2.16763251237893e+001,-8.98759119721032e-001

2.53151318794055e+004,-2.16763355140479e+001,-9.11304838774507e-001

2.56685179512580e+004,-2.16763461963761e+001,-9.24025668704539e-001

2.60268371088386e+004,-2.16763571789829e+001,-9.36924053082715e-001

2.63901582154578e+004,-2.16763684703077e+001,-9.50002469555054e-001

2.67585510957221e+004,-2.16763800790273e+001,-9.63263430314353e-001

2.71320865489533e+004,-2.16763920140621e+001,-9.76709482582050e-001

2.75108363627948e+004,-2.16764042845832e+001,-9.90343209094679e-001

2.78948733270080e+004,-2.16764169000194e+001,-1.00416722859832e+000

2.82842712474618e+004,-2.16764298700643e+001,-1.01818419634901e+000

2.86791049603164e+004,-2.16764432046840e+001,-1.03239680462023e+000

2.90794503464061e+004,-2.16764569141245e+001,-1.04680778321880e+000

2.94853843458219e+004,-2.16764710089197e+001,-1.06141990000475e+000

2.98969849726987e+004,-2.16764854998993e+001,-1.07623596142255e+000

3.03143313302078e+004,-2.16765003981974e+001,-1.09125881303578e+000

3.07375036257601e+004,-2.16765157152608e+001,-1.10649134007115e+000

3.11665831864199e+004,-2.16765314628579e+001,-1.12193646797001e+000

3.16016524745350e+004,-2.16765476530875e+001,-1.13759716294733e+000

3.20427951035848e+004,-2.16765642983886e+001,-1.15347643255678e+000

3.24900958542493e+004,-2.16765814115494e+001,-1.16957732626646e+000

3.29436406907028e+004,-2.16765990057173e+001,-1.18590293604029e+000

3.34035167771346e+004,-2.16766170944090e+001,-1.20245639692873e+000

3.38698124945009e+004,-2.16766356915209e+001,-1.21924088766609e+000

3.43426174575100e+004,-2.16766548113396e+001,-1.23625963127748e+000

3.48220225318448e+004,-2.16766744685531e+001,-1.25351589569402e+000

3.53081198516260e+004,-2.16766946782618e+001,-1.27101299437535e+000

3.58010028371187e+004,-2.16767154559904e+001,-1.28875428694101e+000

3.63007662126863e+004,-2.16767368176991e+001,-1.30674317981275e+000

3.68075060249948e+004,-2.16767587797970e+001,-1.32498312686103e+000

3.73213196614721e+004,-2.16767813591533e+001,-1.34347763006579e+000

3.78423058690237e+004,-2.16768045731114e+001,-1.36223024018122e+000

3.83705647730104e+004,-2.16768284395016e+001,-1.38124455741320e+000

3.89061978964912e+004,-2.16768529766546e+001,-1.40052423210460e+000

3.94493081797342e+004,-2.16768782034163e+001,-1.42007296542966e+000

3.99999999999998e+004,-2.16769041391611e+001,-1.43989451009905e+000

4.05583791916010e+004,-2.16769308038078e+001,-1.45999267107230e+000

4.11245530662425e+004,-2.16769582178345e+001,-1.48037130628329e+000

4.16986304336447e+004,-2.16769864022937e+001,-1.50103432737242e+000

4.22807216224550e+004,-2.16770153788295e+001,-1.52198570043000e+000

4.28709385014515e+004,-2.16770451696931e+001,-1.54322944675097e+000

4.34693945010421e+004,-2.16770757977606e+001,-1.56476964359717e+000

4.40762046350642e+004,-2.16771072865502e+001,-1.58661042497291e+000

4.46914855228886e+004,-2.16771396602401e+001,-1.60875598240860e+000

4.53153554118317e+004,-2.16771729436871e+001,-1.63121056575686e+000

4.59479341998812e+004,-2.16772071624456e+001,-1.65397848399844e+000

4.65893434587380e+004,-2.16772423427874e+001,-1.67706410605834e+000

4.72397064571810e+004,-2.16772785117213e+001,-1.70047186163546e+000

4.78991481847569e+004,-2.16773156970141e+001,-1.72420624204022e+000

4.85677953758016e+004,-2.16773539272118e+001,-1.74827180104711e+000

4.92457765337964e+004,-2.16773932316611e+001,-1.77267315575472e+000

4.99332219560642e+004,-2.16774336405323e+001,-1.79741498746019e+000

5.06302637588109e+004,-2.16774751848423e+001,-1.82250204254534e+000

5.13370359025159e+004,-2.16775178964776e+001,-1.84793913337287e+000

5.20536742176771e+004,-2.16775618082198e+001,-1.87373113919672e+000

5.27803164309155e+004,-2.16776069537695e+001,-1.89988300708324e+000

5.35171021914442e+004,-2.16776533677728e+001,-1.92639975284489e+000

5.42641730979066e+004,-2.16777010858477e+001,-1.95328646198684e+000

5.50216727255895e+004,-2.16777501446105e+001,-1.98054829066695e+000

5.57897466540159e+004,-2.16778005817049e+001,-2.00819046666625e+000

5.65685424949235e+004,-2.16778524358298e+001,-2.03621829037486e+000

5.73582099206328e+004,-2.16779057467696e+001,-2.06463713578866e+000

5.81589006928121e+004,-2.16779605554234e+001,-2.09345245152302e+000

5.89707686916437e+004,-2.16780169038375e+001,-2.12266976183507e+000

5.97939699453972e+004,-2.16780748352367e+001,-2.15229466766263e+000

6.06286626604156e+004,-2.16781343940573e+001,-2.18233284767703e+000

6.14750072515201e+004,-2.16781956259810e+001,-2.21279005934858e+000

6.23331663728396e+004,-2.16782585779698e+001,-2.24367214002600e+000

6.32033049490698e+004,-2.16783232983016e+001,-2.27498500803159e+000

6.40855902071694e+004,-2.16783898366072e+001,-2.30673466376953e+000

6.49801917084985e+004,-2.16784582439080e+001,-2.33892719084846e+000

6.58872813814055e+004,-2.16785285726545e+001,-2.37156875722045e+000

6.68070335542691e+004,-2.16786008767664e+001,-2.40466561633328e+000

6.77396249890018e+004,-2.16786752116740e+001,-2.43822410829840e+000

6.86852349150199e+004,-2.16787516343596e+001,-2.47225066107391e+000

6.96440450636895e+004,-2.16788302034014e+001,-2.50675179166283e+000

7.06162397032520e+004,-2.16789109790179e+001,-2.54173410732800e+000

7.16020056742374e+004,-2.16789940231131e+001,-2.57720430682132e+000

7.26015324253724e+004,-2.16790793993243e+001,-2.61316918162924e+000

7.36150120499896e+004,-2.16791671730699e+001,-2.64963561723473e+000

7.46426393229441e+004,-2.16792574115991e+001,-2.68661059439538e+000

7.56846117380472e+004,-2.16793501840430e+001,-2.72410119043742e+000

7.67411295460207e+004,-2.16794455614669e+001,-2.76211458056723e+000

7.78123957929823e+004,-2.16795436169243e+001,-2.80065803919827e+000

7.88986163594682e+004,-2.16796444255119e+001,-2.83973894129662e+000

7.99999999999995e+004,-2.16797480644271e+001,-2.87936476374181e+000

8.11167583832018e+004,-2.16798546130256e+001,-2.91954308670619e+000

8.22491061324848e+004,-2.16799641528822e+001,-2.96028159505164e+000

8.33972608672892e+004,-2.16800767678519e+001,-3.00158807974211e+000

8.45614432449099e+004,-2.16801925441338e+001,-3.04347043927709e+000

8.57418770029029e+004,-2.16803115703355e+001,-3.08593668113988e+000

8.69387890020841e+004,-2.16804339375409e+001,-3.12899492326578e+000

8.81524092701283e+004,-2.16805597393783e+001,-3.17265339552790e+000

8.93829710457770e+004,-2.16806890720911e+001,-3.21692044124148e+000

9.06307108236633e+004,-2.16808220346107e+001,-3.26180451868638e+000

9.18958683997622e+004,-2.16809587286307e+001,-3.30731420264944e+000

9.31786869174758e+004,-2.16810992586836e+001,-3.35345818598378e+000

9.44794129143618e+004,-2.16812437322194e+001,-3.40024528118972e+000

9.57982963695136e+004,-2.16813922596866e+001,-3.44768442201159e+000

9.71355907516031e+004,-2.16815449546152e+001,-3.49578466505738e+000

9.84915530675926e+004,-2.16817019337017e+001,-3.54455519143520e+000

9.98664439121282e+004,-2.16818633168972e+001,-3.59400530841054e+000

1.01260527517622e+005,-2.16820292274968e+001,-3.64414445108297e+000

1.02674071805032e+005,-2.16821997922325e+001,-3.69498218408352e+000

1.04107348435354e+005,-2.16823751413682e+001,-3.74652820329019e+000

1.05560632861831e+005,-2.16825554087968e+001,-3.79879233756552e+000

1.07034204382888e+005,-2.16827407321406e+001,-3.85178455051414e+000

1.08528346195813e+005,-2.16829312528543e+001,-3.90551494225923e+000

1.10043345451179e+005,-2.16831271163306e+001,-3.95999375124128e+000

1.11579493308032e+005,-2.16833284720085e+001,-4.01523135603686e+000

1.13137084989847e+005,-2.16835354734850e+001,-4.07123827719783e+000

1.14716419841265e+005,-2.16837482786296e+001,-4.12802517911110e+000

1.16317801385624e+005,-2.16839670497013e+001,-4.18560287188047e+000

1.17941537383287e+005,-2.16841919534701e+001,-4.24398231322875e+000

1.19587939890794e+005,-2.16844231613402e+001,-4.30317461042013e+000

1.21257325320831e+005,-2.16846608494777e+001,-4.36319102220540e+000

1.22950014503040e+005,-2.16849051989410e+001,-4.42404296078762e+000

1.24666332745679e+005,-2.16851563958151e+001,-4.48574199380846e+000

1.26406609898139e+005,-2.16854146313494e+001,-4.54829984635636e+000

1.28171180414339e+005,-2.16856801020988e+001,-4.61172840299644e+000

1.29960383416997e+005,-2.16859530100690e+001,-4.67603970982169e+000

1.31774562762811e+005,-2.16862335628658e+001,-4.74124597652450e+000

1.33614067108538e+005,-2.16865219738478e+001,-4.80735957849080e+000

1.35479249978003e+005,-2.16868184622833e+001,-4.87439305891554e+000

1.37370469830040e+005,-2.16871232535118e+001,-4.94235913093844e+000

1.39288090127379e+005,-2.16874365791093e+001,-5.01127067980298e+000

1.41232479406504e+005,-2.16877586770581e+001,-5.08114076503442e+000

1.43204011348474e+005,-2.16880897919211e+001,-5.15198262264101e+000

1.45203064850745e+005,-2.16884301750205e+001,-5.22380966733590e+000

1.47230024099979e+005,-2.16887800846214e+001,-5.29663549477892e+000

1.49285278645888e+005,-2.16891397861203e+001,-5.37047388384124e+000

1.51369223476094e+005,-2.16895095522381e+001,-5.44533879888998e+000

1.53482259092041e+005,-2.16898896632184e+001,-5.52124439209315e+000

1.55624791585964e+005,-2.16902804070309e+001,-5.59820500574611e+000

1.57797232718936e+005,-2.16906820795803e+001,-5.67623517461803e+000

1.59999999999999e+005,-2.16910949849202e+001,-5.75534962831853e+000

1.62233516766403e+005,-2.16915194354725e+001,-5.83556329368461e+000

1.64498212264969e+005,-2.16919557522532e+001,-5.91689129718683e+000

1.66794521734578e+005,-2.16924042651030e+001,-5.99934896735587e+000

1.69122886489819e+005,-2.16928653129241e+001,-6.08295183722790e+000

1.71483754005805e+005,-2.16933392439239e+001,-6.16771564680870e+000

1.73877578004168e+005,-2.16938264158633e+001,-6.25365634555704e+000

1.76304818540256e+005,-2.16943271963130e+001,-6.34079009488563e+000

1.78765942091554e+005,-2.16948419629148e+001,-6.42913327068079e+000

1.81261421647326e+005,-2.16953711036506e+001,-6.51870246583872e+000

1.83791736799524e+005,-2.16959150171176e+001,-6.60951449281989e+000

1.86357373834951e+005,-2.16964741128106e+001,-6.70158638621922e+000

1.88958825828723e+005,-2.16970488114109e+001,-6.79493540535269e+000

1.91596592739027e+005,-2.16976395450836e+001,-6.88957903685900e+000

1.94271181503206e+005,-2.16982467577802e+001,-6.98553499731802e+000

1.96983106135185e+005,-2.16988709055513e+001,-7.08282123588065e+000

1.99732887824256e+005,-2.16995124568646e+001,-7.18145593691579e+000

2.02521055035243e+005,-2.17001718929319e+001,-7.28145752266771e+000

2.05348143610063e+005,-2.17008497080445e+001,-7.38284465592750e+000

2.08214696870707e+005,-2.17015464099153e+001,-7.48563624271528e+000

2.11121265723661e+005,-2.17022625200305e+001,-7.58985143497361e+000

2.14068408765776e+005,-2.17029985740094e+001,-7.69550963327116e+000

2.17056692391625e+005,-2.17037551219724e+001,-7.80263048951462e+000

2.20086690902357e+005,-2.17045327289184e+001,-7.91123390966996e+000

2.23158986616063e+005,-2.17053319751108e+001,-8.02134005648992e+000

2.26274169979693e+005,-2.17061534564726e+001,-8.13296935224865e+000

2.29432839682530e+005,-2.17069977849913e+001,-8.24614248148017e+000

2.32635602771247e+005,-2.17078655891322e+001,-8.36088039372230e+000

2.35883074766574e+005,-2.17087575142628e+001,-8.47720430626232e+000

2.39175879781588e+005,-2.17096742230858e+001,-8.59513570688480e+000

2.42514650641661e+005,-2.17106163960822e+001,-8.71469635661951e+000

2.45900029006080e+005,-2.17115847319654e+001,-8.83590829248806e+000

2.49332665491357e+005,-2.17125799481445e+001,-8.95879383024855e+000

2.52813219796278e+005,-2.17136027811990e+001,-9.08337556713561e+000

2.56342360828676e+005,-2.17146539873631e+001,-9.20967638459625e+000

2.59920766833993e+005,-2.17157343430219e+001,-9.33771945101640e+000

2.63549125525621e+005,-2.17168446452180e+001,-9.46752822444135e+000

2.67228134217075e+005,-2.17179857121687e+001,-9.59912645528381e+000

2.70958499956006e+005,-2.17191583837955e+001,-9.73253818902025e+000

2.74740939660078e+005,-2.17203635222643e+001,-9.86778776887349e+000

2.78576180254757e+005,-2.17216020125376e+001,-1.00048998384785e+001

2.82464958813007e+005,-2.17228747629376e+001,-1.01438993445309e+001

2.86408022696948e+005,-2.17241827057224e+001,-1.02848115394146e+001

2.90406129701488e+005,-2.17255267976731e+001,-1.04276619838073e+001

2.94460048199957e+005,-2.17269080206936e+001,-1.05724765492615e+001

2.98570557291775e+005,-2.17283273824222e+001,-1.07192814207584e+001

3.02738446952187e+005,-2.17297859168564e+001,-1.08681030992327e+001

3.06964518184081e+005,-2.17312846849891e+001,-1.10189684040650e+001

3.11249583171928e+005,-2.17328247754583e+001,-1.11719044755408e+001

3.15594465437872e+005,-2.17344073052088e+001,-1.13269387772713e+001

3.19999999999997e+005,-2.17360334201677e+001,-1.14840990985754e+001

3.24467033532806e+005,-2.17377042959310e+001,-1.16434135568182e+001

3.28996424529938e+005,-2.17394211384654e+001,-1.18049105997050e+001

3.33589043469155e+005,-2.17411851848213e+001,-1.19686190075258e+001

3.38245772979638e+005,-2.17429977038597e+001,-1.21345678953487e+001

3.42967508011610e+005,-2.17448599969922e+001,-1.23027867151585e+001

3.47755156008335e+005,-2.17467733989340e+001,-1.24733052579368e+001

3.52609637080511e+005,-2.17487392784698e+001,-1.26461536556819e+001

3.57531884183106e+005,-2.17507590392339e+001,-1.28213623833625e+001

3.62522843294651e+005,-2.17528341205022e+001,-1.29989622608035e+001

3.67583473599047e+005,-2.17549659979980e+001,-1.31789844545002e+001

3.72714747669902e+005,-2.17571561847113e+001,-1.33614604793567e+001

3.77917651657445e+005,-2.17594062317303e+001,-1.35464222003441e+001

3.83193185478053e+005,-2.17617177290869e+001,-1.37339018340768e+001

3.88542363006410e+005,-2.17640923066141e+001,-1.39239319502994e+001

3.93966212270369e+005,-2.17665316348171e+001,-1.41165454732849e+001

3.99465775648511e+005,-2.17690374257568e+001,-1.43117756831343e+001

4.05042110070485e+005,-2.17716114339456e+001,-1.45096562169798e+001

4.10696287220124e+005,-2.17742554572562e+001,-1.47102210700806e+001

4.16429393741414e+005,-2.17769713378420e+001,-1.49135045968133e+001

4.22242531447321e+005,-2.17797609630699e+001,-1.51195415115472e+001

4.28136817531551e+005,-2.17826262664650e+001,-1.53283668894036e+001

4.34113384783250e+005,-2.17855692286665e+001,-1.55400161668925e+001

4.40173381804713e+005,-2.17885918783947e+001,-1.57545251424223e+001

4.46317973232124e+005,-2.17916962934301e+001,-1.59719299766793e+001

4.52548339959385e+005,-2.17948846016015e+001,-1.61922671928693e+001

4.58865679365059e+005,-2.17981589817857e+001,-1.64155736768200e+001

4.65271205542494e+005,-2.18015216649161e+001,-1.66418866769354e+001

4.71766149533147e+005,-2.18049749350020e+001,-1.68712438040009e+001

4.78351759563174e+005,-2.18085211301555e+001,-1.71036830308311e+001

4.85029301283321e+005,-2.18121626436278e+001,-1.73392426917580e+001

4.91800058012158e+005,-2.18159019248536e+001,-1.75779614819509e+001

4.98665330982714e+005,-2.18197414805026e+001,-1.78198784565670e+001

5.05626439592555e+005,-2.18236838755379e+001,-1.80650330297241e+001

5.12684721657352e+005,-2.18277317342815e+001,-1.83134649732923e+001

5.19841533667984e+005,-2.18318877414841e+001,-1.85652144154979e+001

5.27098251051240e+005,-2.18361546434014e+001,-1.88203218393361e+001

5.34456268434150e+005,-2.18405352488733e+001,-1.90788280807850e+001

5.41916999912011e+005,-2.18450324304077e+001,-1.93407743268176e+001

