Freq.,VOut,OutRef

1.00000000000000e+004,-1.24174237545965e+001,-8.25931546086146e-002

1.01395947979003e+004,-1.24174238193634e+001,-8.37461091209080e-002

1.02811382665607e+004,-1.24174238859510e+001,-8.49151581527068e-002

1.04246576084112e+004,-1.24174239544107e+001,-8.61005263688236e-002

1.05701804056138e+004,-1.24174240247945e+001,-8.73024415738606e-002

1.07177346253629e+004,-1.24174240971569e+001,-8.85211347470553e-002

1.08673486252606e+004,-1.24174241715536e+001,-8.97568400939510e-002

1.10190511587661e+004,-1.24174242480417e+001,-9.10097950898379e-002

1.11728713807222e+004,-1.24174243266798e+001,-9.22802405246604e-002

1.13288388529580e+004,-1.24174244075285e+001,-9.35684205490000e-002

1.14869835499703e+004,-1.24174244906499e+001,-9.48745827211028e-002

1.16473358646846e+004,-1.24174245761081e+001,-9.61989780538452e-002

1.18099266142953e+004,-1.24174246639683e+001,-9.75418610668964e-002

1.19747870461893e+004,-1.24174247542985e+001,-9.89034898284668e-002

1.21419488439505e+004,-1.24174248471678e+001,-1.00284126013270e-001

1.23114441334492e+004,-1.24174249426476e+001,-1.01684034945251e-001

1.24833054890161e+004,-1.24174250408114e+001,-1.03103485652028e-001

1.26575659397028e+004,-1.24174251417345e+001,-1.04542750918704e-001

1.28342589756290e+004,-1.24174252454947e+001,-1.06002107334252e-001

1.30134185544193e+004,-1.24174253521713e+001,-1.07481835352429e-001

1.31950791077289e+004,-1.24174254618467e+001,-1.08982219337554e-001

1.33792755478611e+004,-1.24174255746052e+001,-1.10503547624935e-001

1.35660432744767e+004,-1.24174256905330e+001,-1.12046112576172e-001

1.37554181813974e+004,-1.24174258097196e+001,-1.13610210629535e-001

1.39474366635040e+004,-1.24174259322563e+001,-1.15196142365216e-001

1.41421356237309e+004,-1.24174260582376e+001,-1.16804212554853e-001

1.43395524801583e+004,-1.24174261877599e+001,-1.18434730227787e-001

1.45397251732031e+004,-1.24174263209230e+001,-1.20088008723052e-001

1.47426921729110e+004,-1.24174264578289e+001,-1.21764365756482e-001

1.49484924863494e+004,-1.24174265985832e+001,-1.23464123474910e-001

1.51571656651040e+004,-1.24174267432939e+001,-1.25187608523571e-001

1.53687518128801e+004,-1.24174268920721e+001,-1.26935152108005e-001

1.55832915932100e+004,-1.24174270450320e+001,-1.28707090054283e-001

1.58008262372675e+004,-1.24174272022914e+001,-1.30503762876054e-001

1.60213975517924e+004,-1.24174273639711e+001,-1.32325515839384e-001

1.62450479271247e+004,-1.24174275301949e+001,-1.34172699032298e-001

1.64718203453514e+004,-1.24174277010911e+001,-1.36045667423074e-001

1.67017583885674e+004,-1.24174278767904e+001,-1.37944780940948e-001

1.69349062472505e+004,-1.24174280574283e+001,-1.39870404532638e-001

1.71713087287550e+004,-1.24174282431431e+001,-1.41822908244123e-001

1.74110112659224e+004,-1.24174284340778e+001,-1.43802667280169e-001

1.76540599258131e+004,-1.24174286303790e+001,-1.45810062085943e-001

1.79005014185594e+004,-1.24174288321974e+001,-1.47845478416766e-001

1.81503831063432e+004,-1.24174290396882e+001,-1.49909307407859e-001

1.84037530124975e+004,-1.24174292530105e+001,-1.52001945658089e-001

1.86606598307361e+004,-1.24174294723283e+001,-1.54123795298944e-001

1.89211529345119e+004,-1.24174296978101e+001,-1.56275264073357e-001

1.91852823865052e+004,-1.24174299296291e+001,-1.58456765415070e-001

1.94530989482457e+004,-1.24174301679632e+001,-1.60668718530874e-001

1.97246540898671e+004,-1.24174304129955e+001,-1.62911548473961e-001

1.99999999999999e+004,-1.24174306649143e+001,-1.65185686230735e-001

2.02791895958005e+004,-1.24174309239130e+001,-1.67491568803146e-001

2.05622765331213e+004,-1.24174311901905e+001,-1.69829639291920e-001

2.08493152168224e+004,-1.24174314639511e+001,-1.72200346981288e-001

2.11403608112276e+004,-1.24174317454054e+001,-1.74604147423152e-001

2.14354692507258e+004,-1.24174320347692e+001,-1.77041502531217e-001

2.17346972505211e+004,-1.24174323322649e+001,-1.79512880660358e-001

2.20381023175322e+004,-1.24174326381207e+001,-1.82018756705879e-001

2.23457427614443e+004,-1.24174329525716e+001,-1.84559612187932e-001

2.26576777059159e+004,-1.24174332758590e+001,-1.87135935345258e-001

2.29739670999406e+004,-1.24174336082312e+001,-1.89748221231839e-001

2.32946717293690e+004,-1.24174339499431e+001,-1.92396971809760e-001

2.36198532285905e+004,-1.24174343012575e+001,-1.95082696043703e-001

2.39495740923785e+004,-1.24174346624435e+001,-1.97805910003686e-001

2.42838976879009e+004,-1.24174350337789e+001,-2.00567136957618e-001

2.46228882668982e+004,-1.24174354155483e+001,-2.03366907478415e-001

2.49666109780322e+004,-1.24174358080449e+001,-2.06205759540583e-001

2.53151318794055e+004,-1.24174362115700e+001,-2.09084238625510e-001

2.56685179512580e+004,-1.24174366264333e+001,-2.12002897826370e-001

2.60268371088386e+004,-1.24174370529532e+001,-2.14962297953555e-001

2.63901582154578e+004,-1.24174374914570e+001,-2.17963007642468e-001

2.67585510957221e+004,-1.24174379422812e+001,-2.21005603462935e-001

2.71320865489533e+004,-1.24174384057718e+001,-2.24090670030001e-001

2.75108363627948e+004,-1.24174388822843e+001,-2.27218800115587e-001

2.78948733270080e+004,-1.24174393721843e+001,-2.30390594761607e-001

2.82842712474618e+004,-1.24174398758479e+001,-2.33606663395655e-001

2.86791049603164e+004,-1.24174403936612e+001,-2.36867623949191e-001

2.90794503464061e+004,-1.24174409260217e+001,-2.40174102974153e-001

2.94853843458219e+004,-1.24174414733376e+001,-2.43526735764214e-001

2.98969849726987e+004,-1.24174420360287e+001,-2.46926166476295e-001

3.03143313302078e+004,-1.24174426145268e+001,-2.50373048253256e-001

3.07375036257601e+004,-1.24174432092754e+001,-2.53868043351546e-001

3.11665831864199e+004,-1.24174438207306e+001,-2.57411823265851e-001

3.16016524745350e+004,-1.24174444493613e+001,-2.61005068857900e-001

3.20427951035848e+004,-1.24174450956495e+001,-2.64648470489026e-001

3.24900958542493e+004,-1.24174457600909e+001,-2.68342728148442e-001

3.29436406907028e+004,-1.24174464431946e+001,-2.72088551593762e-001

3.34035167771346e+004,-1.24174471454846e+001,-2.75886660479847e-001

3.38698124945009e+004,-1.24174478674991e+001,-2.79737784502477e-001

3.43426174575100e+004,-1.24174486097915e+001,-2.83642663534023e-001

3.48220225318448e+004,-1.24174493729306e+001,-2.87602047769519e-001

3.53081198516260e+004,-1.24174501575016e+001,-2.91616697864402e-001

3.58010028371187e+004,-1.24174509641053e+001,-2.95687385087908e-001

3.63007662126863e+004,-1.24174517933600e+001,-2.99814891462287e-001

3.68075060249948e+004,-1.24174526459009e+001,-3.04000009920359e-001

3.73213196614721e+004,-1.24174535223812e+001,-3.08243544452428e-001

3.78423058690237e+004,-1.24174544234722e+001,-3.12546310261395e-001

3.83705647730104e+004,-1.24174553498642e+001,-3.16909133920003e-001

3.89061978964912e+004,-1.24174563022665e+001,-3.21332853528377e-001

3.94493081797342e+004,-1.24174572814085e+001,-3.25818318873379e-001

3.99999999999998e+004,-1.24174582880398e+001,-3.30366391593372e-001

4.05583791916010e+004,-1.24174593229314e+001,-3.34977945339919e-001

4.11245530662425e+004,-1.24174603868751e+001,-3.39653865950617e-001

4.16986304336447e+004,-1.24174614806856e+001,-3.44395051611761e-001

4.22807216224550e+004,-1.24174626051997e+001,-3.49202413035228e-001

4.28709385014515e+004,-1.24174637612779e+001,-3.54076873630705e-001

4.34693945010421e+004,-1.24174649498051e+001,-3.59019369680838e-001

4.40762046350642e+004,-1.24174661716903e+001,-3.64030850524253e-001

4.46914855228886e+004,-1.24174674278680e+001,-3.69112278734471e-001

4.53153554118317e+004,-1.24174687192991e+001,-3.74264630302975e-001

4.59479341998812e+004,-1.24174700469711e+001,-3.79488894827882e-001

4.65893434587380e+004,-1.24174714118991e+001,-3.84786075702805e-001

4.72397064571810e+004,-1.24174728151265e+001,-3.90157190307344e-001

4.78991481847569e+004,-1.24174742577259e+001,-3.95603270202906e-001

4.85677953758016e+004,-1.24174757407997e+001,-4.01125361328184e-001

4.92457765337964e+004,-1.24174772654812e+001,-4.06724524200628e-001

4.99332219560642e+004,-1.24174788329350e+001,-4.12401834118855e-001

5.06302637588109e+004,-1.24174804443584e+001,-4.18158381366351e-001

5.13370359025159e+004,-1.24174821009820e+001,-4.23995271421175e-001

5.20536742176771e+004,-1.24174838040707e+001,-4.29913625165742e-001

5.27803164309155e+004,-1.24174855549247e+001,-4.35914579102764e-001

5.35171021914442e+004,-1.24174873548802e+001,-4.41999285569750e-001

5.42641730979066e+004,-1.24174892053106e+001,-4.48168912960471e-001

5.50216727255895e+004,-1.24174911076280e+001,-4.54424645946127e-001

5.57897466540159e+004,-1.24174930632830e+001,-4.60767685704181e-001

5.65685424949235e+004,-1.24174950737672e+001,-4.67199250144330e-001

5.73582099206328e+004,-1.24174971406133e+001,-4.73720574141917e-001

5.81589006928121e+004,-1.24174992653967e+001,-4.80332909773730e-001

5.89707686916437e+004,-1.24175014497367e+001,-4.87037526555099e-001

5.97939699453972e+004,-1.24175036952975e+001,-4.93835711683060e-001

6.06286626604156e+004,-1.24175060037892e+001,-5.00728770282280e-001

6.14750072515201e+004,-1.24175083769699e+001,-5.07718025649748e-001

6.23331663728396e+004,-1.24175108166461e+001,-5.14804819511267e-001

6.32033049490698e+004,-1.24175133246746e+001,-5.21990512273511e-001

6.40855902071694e+004,-1.24175159029635e+001,-5.29276483284850e-001

6.49801917084985e+004,-1.24175185534739e+001,-5.36664131095811e-001

6.58872813814055e+004,-1.24175212782213e+001,-5.44154873726090e-001

6.68070335542691e+004,-1.24175240792768e+001,-5.51750148934715e-001

6.77396249890018e+004,-1.24175269587690e+001,-5.59451414490998e-001

6.86852349150199e+004,-1.24175299188854e+001,-5.67260148453607e-001

6.96440450636895e+004,-1.24175329618738e+001,-5.75177849450459e-001

7.06162397032520e+004,-1.24175360900443e+001,-5.83206036963430e-001

7.16020056742374e+004,-1.24175393057707e+001,-5.91346251615197e-001

7.26015324253724e+004,-1.24175426114926e+001,-5.99600055463978e-001

7.36150120499896e+004,-1.24175460097167e+001,-6.07969032296968e-001

7.46426393229441e+004,-1.24175495030189e+001,-6.16454787932879e-001

7.56846117380472e+004,-1.24175530940460e+001,-6.25058950525895e-001

7.67411295460207e+004,-1.24175567855180e+001,-6.33783170871792e-001

7.78123957929823e+004,-1.24175605802296e+001,-6.42629122723115e-001

7.88986163594682e+004,-1.24175644810527e+001,-6.51598503104514e-001

7.99999999999995e+004,-1.24175684909376e+001,-6.60693032634969e-001

8.11167583832018e+004,-1.24175726129163e+001,-6.69914455850981e-001

8.22491061324848e+004,-1.24175768501038e+001,-6.79264541538832e-001

8.33972608672892e+004,-1.24175812057008e+001,-6.88745083066094e-001

8.45614432449099e+004,-1.24175856829956e+001,-6.98357898723666e-001

8.57418770029029e+004,-1.24175902853667e+001,-7.08104832064795e-001

8.69387890020841e+004,-1.24175950162853e+001,-7.17987752256476e-001

8.81524092701283e+004,-1.24175998793175e+001,-7.28008554429798e-001

8.93829710457770e+004,-1.24176048781270e+001,-7.38169160036990e-001

9.06307108236633e+004,-1.24176100164775e+001,-7.48471517216103e-001

9.18958683997622e+004,-1.24176152982358e+001,-7.58917601152810e-001

9.31786869174758e+004,-1.24176207273738e+001,-7.69509414456935e-001

9.44794129143618e+004,-1.24176263079721e+001,-7.80248987535922e-001

9.57982963695136e+004,-1.24176320442221e+001,-7.91138378977373e-001

9.71355907516031e+004,-1.24176379404295e+001,-8.02179675935269e-001

9.84915530675926e+004,-1.24176440010171e+001,-8.13374994522386e-001

9.98664439121282e+004,-1.24176502305277e+001,-8.24726480207115e-001

1.01260527517622e+005,-1.24176566336274e+001,-8.36236308214599e-001

1.02674071805032e+005,-1.24176632151089e+001,-8.47906683934730e-001

1.04107348435354e+005,-1.24176699798945e+001,-8.59739843336257e-001

1.05560632861831e+005,-1.24176769330401e+001,-8.71738053381964e-001

1.07034204382888e+005,-1.24176840797375e+001,-8.83903612456391e-001

1.08528346195813e+005,-1.24176914253192e+001,-8.96238850791434e-001

1.10043345451179e+005,-1.24176989752614e+001,-9.08746130902989e-001

1.11579493308032e+005,-1.24177067351875e+001,-9.21427848032138e-001

1.13137084989847e+005,-1.24177147108725e+001,-9.34286430589172e-001

1.14716419841265e+005,-1.24177229082459e+001,-9.47324340609685e-001

1.16317801385624e+005,-1.24177313333969e+001,-9.60544074206826e-001

1.17941537383287e+005,-1.24177399925775e+001,-9.73948162041036e-001

1.19587939890794e+005,-1.24177488922067e+001,-9.87539169786554e-001

1.21257325320831e+005,-1.24177580388756e+001,-1.00131969860752e+000

1.22950014503040e+005,-1.24177674393503e+001,-1.01529238564199e+000

1.24666332745679e+005,-1.24177771005777e+001,-1.02945990448820e+000

1.26406609898139e+005,-1.24177870296889e+001,-1.04382496570125e+000

1.28171180414339e+005,-1.24177972340046e+001,-1.05839031729221e+000

1.29960383416997e+005,-1.24178077210394e+001,-1.07315874523548e+000

1.31774562762811e+005,-1.24178184985065e+001,-1.08813307398462e+000

1.33614067108538e+005,-1.24178295743231e+001,-1.10331616699056e+000

1.35479249978003e+005,-1.24178409566146e+001,-1.11871092722948e+000

1.37370469830040e+005,-1.24178526537206e+001,-1.13432029773626e+000

1.39288090127379e+005,-1.24178646741994e+001,-1.15014726214494e+000

1.41232479406504e+005,-1.24178770268335e+001,-1.16619484523544e+000

1.43204011348474e+005,-1.24178897206350e+001,-1.18246611348887e+000

1.45203064850745e+005,-1.24179027648513e+001,-1.19896417564660e+000

1.47230024099979e+005,-1.24179161689704e+001,-1.21569218327970e+000

1.49285278645888e+005,-1.24179299427267e+001,-1.23265333136417e+000

1.51369223476094e+005,-1.24179440961068e+001,-1.24985085886117e+000

1.53482259092041e+005,-1.24179586393556e+001,-1.26728804930902e+000

1.55624791585964e+005,-1.24179735829819e+001,-1.28496823141892e+000

1.57797232718936e+005,-1.24179889377648e+001,-1.30289477967810e+000

1.59999999999999e+005,-1.24180047147600e+001,-1.32107111496278e+000

1.62233516766403e+005,-1.24180209253058e+001,-1.33950070515582e+000

1.64498212264969e+005,-1.24180375810296e+001,-1.35818706577501e+000

1.66794521734578e+005,-1.24180546938546e+001,-1.37713376060579e+000

1.69122886489819e+005,-1.24180722760063e+001,-1.39634440234331e+000

1.71483754005805e+005,-1.24180903400189e+001,-1.41582265324299e+000

1.73877578004168e+005,-1.24181088987425e+001,-1.43557222577707e+000

1.76304818540256e+005,-1.24181279653499e+001,-1.45559688330077e+000

1.78765942091554e+005,-1.24181475533432e+001,-1.47590044072473e+000

1.81261421647326e+005,-1.24181676765611e+001,-1.49648676519789e+000

1.83791736799524e+005,-1.24181883491862e+001,-1.51735977679574e+000

1.86357373834951e+005,-1.24182095857519e+001,-1.53852344921814e+000

1.88958825828723e+005,-1.24182314011498e+001,-1.55998181049649e+000

1.91596592739027e+005,-1.24182538106366e+001,-1.58173894370713e+000

1.94271181503206e+005,-1.24182768298426e+001,-1.60379898769306e+000

1.96983106135185e+005,-1.24183004747777e+001,-1.62616613779773e+000

1.99732887824256e+005,-1.24183247618401e+001,-1.64884464660192e+000

2.02521055035243e+005,-1.24183497078230e+001,-1.67183882467426e+000

2.05348143610063e+005,-1.24183753299229e+001,-1.69515304132666e+000

2.08214696870707e+005,-1.24184016457463e+001,-1.71879172538056e+000

2.11121265723661e+005,-1.24184286733183e+001,-1.74275936594227e+000

2.14068408765776e+005,-1.24184564310897e+001,-1.76706051318447e+000

2.17056692391625e+005,-1.24184849379445e+001,-1.79169977914064e+000

2.20086690902357e+005,-1.24185142132077e+001,-1.81668183850546e+000

2.23158986616063e+005,-1.24185442766532e+001,-1.84201142944453e+000

2.26274169979693e+005,-1.24185751485109e+001,-1.86769335441588e+000

2.29432839682530e+005,-1.24186068494744e+001,-1.89373248099797e+000

2.32635602771247e+005,-1.24186394007085e+001,-1.92013374272760e+000

2.35883074766574e+005,-1.24186728238566e+001,-1.94690213994801e+000

2.39175879781588e+005,-1.24187071410478e+001,-1.97404274066609e+000

2.42514650641661e+005,-1.24187423749044e+001,-2.00156068141980e+000

2.45900029006080e+005,-1.24187785485488e+001,-2.02946116815268e+000

2.49332665491357e+005,-1.24188156856103e+001,-2.05774947710245e+000

2.52813219796278e+005,-1.24188538102322e+001,-2.08643095569564e+000

2.56342360828676e+005,-1.24188929470780e+001,-2.11551102345363e+000

2.59920766833993e+005,-1.24189331213379e+001,-2.14499517290911e+000

2.63549125525621e+005,-1.24189743587353e+001,-2.17488897053164e+000

2.67228134217075e+005,-1.24190166855322e+001,-2.20519805766477e+000

2.70958499956006e+005,-1.24190601285351e+001,-2.23592815147152e+000

2.74740939660078e+005,-1.24191047151001e+001,-2.26708504589307e+000

2.78576180254757e+005,-1.24191504731381e+001,-2.29867461261515e+000

2.82464958813007e+005,-1.24191974311193e+001,-2.33070280204709e+000

2.86408022696948e+005,-1.24192456180774e+001,-2.36317564431078e+000

2.90406129701488e+005,-1.24192950636134e+001,-2.39609925024087e+000

2.94460048199957e+005,-1.24193457978992e+001,-2.42947981239568e+000

2.98570557291775e+005,-1.24193978516797e+001,-2.46332360608071e+000

3.02738446952187e+005,-1.24194512562758e+001,-2.49763699038095e+000

3.06964518184081e+005,-1.24195060435857e+001,-2.53242640920743e+000

3.11249583171928e+005,-1.24195622460862e+001,-2.56769839235377e+000

3.15594465437872e+005,-1.24196198968330e+001,-2.60345955656591e+000

3.19999999999997e+005,-1.24196790294603e+001,-2.63971660662176e+000

3.24467033532806e+005,-1.24197396781799e+001,-2.67647633642687e+000

3.28996424529938e+005,-1.24198018777792e+001,-2.71374563011852e+000

3.33589043469155e+005,-1.24198656636186e+001,-2.75153146318555e+000

3.38245772979638e+005,-1.24199310716277e+001,-2.78984090359965e+000

3.42967508011610e+005,-1.24199981383008e+001,-2.82868111296060e+000

3.47755156008335e+005,-1.24200669006912e+001,-2.86805934765500e+000

3.52609637080511e+005,-1.24201373964047e+001,-2.90798296002901e+000

3.57531884183106e+005,-1.24202096635911e+001,-2.94845939957418e+000

3.62522843294651e+005,-1.24202837409360e+001,-2.98949621412977e+000

3.67583473599047e+005,-1.24203596676497e+001,-3.03110105109793e+000

3.72714747669902e+005,-1.24204374834560e+001,-3.07328165867511e+000

3.77917651657445e+005,-1.24205172285787e+001,-3.11604588710003e+000

3.83193185478053e+005,-1.24205989437275e+001,-3.15940168991489e+000

3.88542363006410e+005,-1.24206826700811e+001,-3.20335712524718e+000

3.93966212270369e+005,-1.24207684492704e+001,-3.24792035710437e+000

3.99465775648511e+005,-1.24208563233583e+001,-3.29309965668934e+000

4.05042110070485e+005,-1.24209463348185e+001,-3.33890340373202e+000

4.10696287220124e+005,-1.24210385265132e+001,-3.38534008784007e+000

4.16429393741414e+005,-1.24211329416668e+001,-3.43241830987014e+000

4.22242531447321e+005,-1.24212296238399e+001,-3.48014678331620e+000

4.28136817531551e+005,-1.24213286168996e+001,-3.52853433572227e+000

4.34113384783250e+005,-1.24214299649882e+001,-3.57758991011240e+000

4.40173381804713e+005,-1.24215337124900e+001,-3.62732256644607e+000

4.46317973232124e+005,-1.24216399039947e+001,-3.67774148309462e+000

4.52548339959385e+005,-1.24217485842598e+001,-3.72885595834160e+000

4.58865679365059e+005,-1.24218597981689e+001,-3.78067541190888e+000

4.65271205542494e+005,-1.24219735906890e+001,-3.83320938650628e+000

4.71766149533147e+005,-1.24220900068238e+001,-3.88646754941014e+000

4.78351759563174e+005,-1.24222090915649e+001,-3.94045969406707e+000

4.85029301283321e+005,-1.24223308898404e+001,-3.99519574172806e+000

4.91800058012158e+005,-1.24224554464599e+001,-4.05068574311226e+000

4.98665330982714e+005,-1.24225828060570e+001,-4.10693988010033e+000

5.05626439592555e+005,-1.24227130130286e+001,-4.16396846746161e+000

5.12684721657352e+005,-1.24228461114714e+001,-4.22178195461368e+000

5.19841533667984e+005,-1.24229821451146e+001,-4.28039092741762e+000

5.27098251051240e+005,-1.24231211572497e+001,-4.33980611000929e+000

5.34456268434150e+005,-1.24232631906573e+001,-4.40003836666760e+000

5.41916999912011e+005,-1.24234082875300e+001,-4.46109870372326e+000

