Freq.,VOut,OutRef

1.00000000000000e+004,-2.47052516672622e+001,-2.74444180145901e-001

1.01395947979003e+004,-2.47052527718961e+001,-2.78275260400328e-001

1.02811382665607e+004,-2.47052539075850e+001,-2.82159819788622e-001

1.04246576084112e+004,-2.47052550752017e+001,-2.86098604821002e-001

1.05701804056138e+004,-2.47052562756440e+001,-2.90092372425004e-001

1.07177346253629e+004,-2.47052575098348e+001,-2.94141890093739e-001

1.08673486252606e+004,-2.47052587787225e+001,-2.98247936033907e-001

1.10190511587661e+004,-2.47052600832829e+001,-3.02411299311624e-001

1.11728713807222e+004,-2.47052614245187e+001,-3.06632780008726e-001

1.13288388529580e+004,-2.47052628034609e+001,-3.10913189373326e-001

1.14869835499703e+004,-2.47052642211695e+001,-3.15253349975490e-001

1.16473358646846e+004,-2.47052656787345e+001,-3.19654095867185e-001

1.18099266142953e+004,-2.47052671772762e+001,-3.24116272740650e-001

1.19747870461893e+004,-2.47052687179466e+001,-3.28640738092163e-001

1.21419488439505e+004,-2.47052703019300e+001,-3.33228361386432e-001

1.23114441334492e+004,-2.47052719304442e+001,-3.37880024221962e-001

1.24833054890161e+004,-2.47052736047408e+001,-3.42596620503646e-001

1.26575659397028e+004,-2.47052753261071e+001,-3.47379056609954e-001

1.28342589756290e+004,-2.47052770958662e+001,-3.52228251572155e-001

1.30134185544193e+004,-2.47052789153785e+001,-3.57145137246411e-001

1.31950791077289e+004,-2.47052807860428e+001,-3.62130658495000e-001

1.33792755478611e+004,-2.47052827092969e+001,-3.67185773367838e-001

1.35660432744767e+004,-2.47052846866194e+001,-3.72311453284534e-001

1.37554181813974e+004,-2.47052867195302e+001,-3.77508683222881e-001

1.39474366635040e+004,-2.47052888095920e+001,-3.82778461907644e-001

1.41421356237309e+004,-2.47052909584114e+001,-3.88121802002248e-001

1.43395524801583e+004,-2.47052931676402e+001,-3.93539730301669e-001

1.45397251732031e+004,-2.47052954389766e+001,-3.99033287932305e-001

1.47426921729110e+004,-2.47052977741666e+001,-4.04603530549439e-001

1.49484924863494e+004,-2.47053001750051e+001,-4.10251528541630e-001

1.51571656651040e+004,-2.47053026433378e+001,-4.15978367235216e-001

1.53687518128801e+004,-2.47053051810619e+001,-4.21785147102475e-001

1.55832915932100e+004,-2.47053077901282e+001,-4.27672983973992e-001

1.58008262372675e+004,-2.47053104725422e+001,-4.33643009252803e-001

1.60213975517924e+004,-2.47053132303658e+001,-4.39696370129197e-001

1.62450479271247e+004,-2.47053160657188e+001,-4.45834229804038e-001

1.64718203453514e+004,-2.47053189807808e+001,-4.52057767711037e-001

1.67017583885674e+004,-2.47053219777923e+001,-4.58368179741685e-001

1.69349062472505e+004,-2.47053250590572e+001,-4.64766678476639e-001

1.71713087287550e+004,-2.47053282269439e+001,-4.71254493417670e-001

1.74110112659224e+004,-2.47053314838873e+001,-4.77832871223628e-001

1.76540599258131e+004,-2.47053348323910e+001,-4.84503075949972e-001

1.79005014185594e+004,-2.47053382750287e+001,-4.91266389290426e-001

1.81503831063432e+004,-2.47053418144466e+001,-4.98124110824669e-001

1.84037530124975e+004,-2.47053454533654e+001,-5.05077558265051e-001

1.86606598307361e+004,-2.47053491945819e+001,-5.12128067713013e-001

1.89211529345119e+004,-2.47053530409719e+001,-5.19276993912359e-001

1.91852823865052e+004,-2.47053569954918e+001,-5.26525710510409e-001

1.94530989482457e+004,-2.47053610611812e+001,-5.33875610321157e-001

1.97246540898671e+004,-2.47053652411650e+001,-5.41328105593706e-001

1.99999999999999e+004,-2.47053695386561e+001,-5.48884628280805e-001

2.02791895958005e+004,-2.47053739569575e+001,-5.56546630316711e-001

2.05622765331213e+004,-2.47053784994653e+001,-5.64315583891903e-001

2.08493152168224e+004,-2.47053831696709e+001,-5.72192981739340e-001

2.11403608112276e+004,-2.47053879711636e+001,-5.80180337418064e-001

2.14354692507258e+004,-2.47053929076341e+001,-5.88279185603651e-001

2.17346972505211e+004,-2.47053979828763e+001,-5.96491082384581e-001

2.20381023175322e+004,-2.47054032007912e+001,-6.04817605557788e-001

2.23457427614443e+004,-2.47054085653891e+001,-6.13260354933427e-001

2.26576777059159e+004,-2.47054140807929e+001,-6.21820952641017e-001

2.29739670999406e+004,-2.47054197512419e+001,-6.30501043439237e-001

2.32946717293690e+004,-2.47054255810940e+001,-6.39302295033505e-001

2.36198532285905e+004,-2.47054315748298e+001,-6.48226398393696e-001

2.39495740923785e+004,-2.47054377370559e+001,-6.57275068078603e-001

2.42838976879009e+004,-2.47054440725082e+001,-6.66450042565354e-001

2.46228882668982e+004,-2.47054505860557e+001,-6.75753084582318e-001

2.49666109780322e+004,-2.47054572827044e+001,-6.85185981446694e-001

2.53151318794055e+004,-2.47054641676008e+001,-6.94750545406461e-001

2.56685179512580e+004,-2.47054712460361e+001,-7.04448613989255e-001

2.60268371088386e+004,-2.47054785234500e+001,-7.14282050352505e-001

2.63901582154578e+004,-2.47054860054355e+001,-7.24252743641647e-001

2.67585510957221e+004,-2.47054936977423e+001,-7.34362609351686e-001

2.71320865489533e+004,-2.47055016062819e+001,-7.44613589693464e-001

2.75108363627948e+004,-2.47055097371320e+001,-7.55007653966879e-001

2.78948733270080e+004,-2.47055180965408e+001,-7.65546798936562e-001

2.82842712474618e+004,-2.47055266909323e+001,-7.76233049215665e-001

2.86791049603164e+004,-2.47055355269108e+001,-7.87068457652305e-001

2.90794503464061e+004,-2.47055446112665e+001,-7.98055105723327e-001

2.94853843458219e+004,-2.47055539509800e+001,-8.09195103932358e-001

2.98969849726987e+004,-2.47055635532283e+001,-8.20490592213522e-001

3.03143313302078e+004,-2.47055734253900e+001,-8.31943740341925e-001

3.07375036257601e+004,-2.47055835750507e+001,-8.43556748348621e-001

3.11665831864199e+004,-2.47055940100097e+001,-8.55331846939730e-001

3.16016524745350e+004,-2.47056047382851e+001,-8.67271297925978e-001

3.20427951035848e+004,-2.47056157681201e+001,-8.79377394653418e-001

3.24900958542493e+004,-2.47056271079897e+001,-8.91652462442835e-001

3.29436406907028e+004,-2.47056387666071e+001,-9.04098859033860e-001

3.34035167771346e+004,-2.47056507529299e+001,-9.16718975037238e-001

3.38698124945009e+004,-2.47056630761678e+001,-9.29515234388849e-001

3.43426174575100e+004,-2.47056757457889e+001,-9.42490094817463e-001

3.48220225318448e+004,-2.47056887715273e+001,-9.55646048309651e-001

3.53081198516260e+004,-2.47057021633907e+001,-9.68985621590138e-001

3.58010028371187e+004,-2.47057159316677e+001,-9.82511376601587e-001

3.63007662126863e+004,-2.47057300869361e+001,-9.96225910995700e-001

3.68075060249948e+004,-2.47057446400707e+001,-1.01013185862827e+000

3.73213196614721e+004,-2.47057596022517e+001,-1.02423189006372e+000

3.78423058690237e+004,-2.47057749849734e+001,-1.03852871308299e+000

3.83705647730104e+004,-2.47057908000530e+001,-1.05302507320173e+000

3.89061978964912e+004,-2.47058070596394e+001,-1.06772375419445e+000

3.94493081797342e+004,-2.47058237762229e+001,-1.08262757862459e+000

3.99999999999998e+004,-2.47058409626443e+001,-1.09773940838402e+000

4.05583791916010e+004,-2.47058586321054e+001,-1.11306214523900e+000

4.11245530662425e+004,-2.47058767981784e+001,-1.12859873138205e+000

4.16986304336447e+004,-2.47058954748168e+001,-1.14435214999573e+000

4.22807216224550e+004,-2.47059146763658e+001,-1.16032542581763e+000

4.28709385014515e+004,-2.47059344175735e+001,-1.17652162572037e+000

4.34693945010421e+004,-2.47059547136020e+001,-1.19294385929363e+000

4.40762046350642e+004,-2.47059755800393e+001,-1.20959527943729e+000

4.46914855228886e+004,-2.47059970329109e+001,-1.22647908296159e+000

4.53153554118317e+004,-2.47060190886921e+001,-1.24359851119654e+000

4.59479341998812e+004,-2.47060417643211e+001,-1.26095685060706e+000

4.65893434587380e+004,-2.47060650772113e+001,-1.27855743342061e+000

4.72397064571810e+004,-2.47060890452650e+001,-1.29640363825982e+000

4.78991481847569e+004,-2.47061136868871e+001,-1.31449889078494e+000

4.85677953758016e+004,-2.47061390209990e+001,-1.33284666434545e+000

4.92457765337964e+004,-2.47061650670534e+001,-1.35145048064023e+000

4.99332219560642e+004,-2.47061918450487e+001,-1.37031391038687e+000

5.06302637588109e+004,-2.47062193755447e+001,-1.38944057399918e+000

5.13370359025159e+004,-2.47062476796784e+001,-1.40883414227548e+000

5.20536742176771e+004,-2.47062767791796e+001,-1.42849833709503e+000

5.27803164309155e+004,-2.47063066963881e+001,-1.44843693212382e+000

5.35171021914442e+004,-2.47063374542706e+001,-1.46865375353172e+000

5.42641730979066e+004,-2.47063690764380e+001,-1.48915268071595e+000

5.50216727255895e+004,-2.47064015871639e+001,-1.50993764703812e+000

5.57897466540159e+004,-2.47064350114027e+001,-1.53101264056884e+000

5.65685424949235e+004,-2.47064693748089e+001,-1.55238170484288e+000

5.73582099206328e+004,-2.47065047037568e+001,-1.57404893962435e+000

5.81589006928121e+004,-2.47065410253606e+001,-1.59601850168312e+000

5.89707686916437e+004,-2.47065783674946e+001,-1.61829460558133e+000

5.97939699453972e+004,-2.47066167588151e+001,-1.64088152446985e+000

6.06286626604156e+004,-2.47066562287824e+001,-1.66378359089464e+000

6.14750072515201e+004,-2.47066968076824e+001,-1.68700519761695e+000

6.23331663728396e+004,-2.47067385266506e+001,-1.71055079844191e+000

6.32033049490698e+004,-2.47067814176954e+001,-1.73442490905865e+000

6.40855902071694e+004,-2.47068255137227e+001,-1.75863210789240e+000

6.49801917084985e+004,-2.47068708485607e+001,-1.78317703696765e+000

6.58872813814055e+004,-2.47069174569862e+001,-1.80806440278176e+000

6.68070335542691e+004,-2.47069653747506e+001,-1.83329897719233e+000

6.77396249890018e+004,-2.47070146386072e+001,-1.85888559831477e+000

6.86852349150199e+004,-2.47070652863398e+001,-1.88482917143199e+000

6.96440450636895e+004,-2.47071173567906e+001,-1.91113466991675e+000

7.06162397032520e+004,-2.47071708898904e+001,-1.93780713616535e+000

7.16020056742374e+004,-2.47072259266885e+001,-1.96485168254527e+000

7.26015324253724e+004,-2.47072825093846e+001,-1.99227349235247e+000

7.36150120499896e+004,-2.47073406813602e+001,-2.02007782078504e+000

7.46426393229441e+004,-2.47074004872121e+001,-2.04826999592668e+000

7.56846117380472e+004,-2.47074619727861e+001,-2.07685541974350e+000

7.67411295460207e+004,-2.47075251852117e+001,-2.10583956909655e+000

7.78123957929823e+004,-2.47075901729381e+001,-2.13522799676319e+000

7.88986163594682e+004,-2.47076569857712e+001,-2.16502633247598e+000

7.99999999999995e+004,-2.47077256749110e+001,-2.19524028397220e+000

8.11167583832018e+004,-2.47077962929904e+001,-2.22587563805927e+000

8.22491061324848e+004,-2.47078688941159e+001,-2.25693826169134e+000

8.33972608672892e+004,-2.47079435339076e+001,-2.28843410306383e+000

8.45614432449099e+004,-2.47080202695423e+001,-2.32036919271656e+000

8.57418770029029e+004,-2.47080991597962e+001,-2.35274964465710e+000

8.69387890020841e+004,-2.47081802650895e+001,-2.38558165749433e+000

8.81524092701283e+004,-2.47082636475325e+001,-2.41887151558778e+000

8.93829710457770e+004,-2.47083493709725e+001,-2.45262559021243e+000

9.06307108236633e+004,-2.47084375010419e+001,-2.48685034073807e+000

9.18958683997622e+004,-2.47085281052078e+001,-2.52155231582300e+000

9.31786869174758e+004,-2.47086212528233e+001,-2.55673815462343e+000

9.44794129143618e+004,-2.47087170151799e+001,-2.59241458801810e+000

9.57982963695136e+004,-2.47088154655609e+001,-2.62858843984925e+000

9.71355907516031e+004,-2.47089166792971e+001,-2.66526662817696e+000

9.84915530675926e+004,-2.47090207338238e+001,-2.70245616655192e+000

9.98664439121282e+004,-2.47091277087386e+001,-2.74016416530264e+000

1.01260527517622e+005,-2.47092376858620e+001,-2.77839783283863e+000

1.02674071805032e+005,-2.47093507492984e+001,-2.81716447697120e+000

1.04107348435354e+005,-2.47094669855001e+001,-2.85647150624790e+000

1.05560632861831e+005,-2.47095864833320e+001,-2.89632643130710e+000

1.07034204382888e+005,-2.47097093341381e+001,-2.93673686624603e+000

1.08528346195813e+005,-2.47098356318108e+001,-2.97771053000757e+000

1.10043345451179e+005,-2.47099654728610e+001,-3.01925524778276e+000

1.11579493308032e+005,-2.47100989564906e+001,-3.06137895243139e+000

1.13137084989847e+005,-2.47102361846668e+001,-3.10408968591922e+000

1.14716419841265e+005,-2.47103772621988e+001,-3.14739560077226e+000

1.16317801385624e+005,-2.47105222968160e+001,-3.19130496154983e+000

1.17941537383287e+005,-2.47106713992486e+001,-3.23582614633306e+000

1.19587939890794e+005,-2.47108246833110e+001,-3.28096764823299e+000

1.21257325320831e+005,-2.47109822659859e+001,-3.32673807691618e+000

1.22950014503040e+005,-2.47111442675124e+001,-3.37314616014738e+000

1.24666332745679e+005,-2.47113108114755e+001,-3.42020074535100e+000

1.26406609898139e+005,-2.47114820248980e+001,-3.46791080119097e+000

1.28171180414339e+005,-2.47116580383353e+001,-3.51628541916796e+000

1.29960383416997e+005,-2.47118389859725e+001,-3.56533381523617e+000

1.31774562762811e+005,-2.47120250057244e+001,-3.61506533143772e+000

1.33614067108538e+005,-2.47122162393374e+001,-3.66548943755617e+000

1.35479249978003e+005,-2.47124128324953e+001,-3.71661573278785e+000

1.37370469830040e+005,-2.47126149349267e+001,-3.76845394743412e+000

1.39288090127379e+005,-2.47128227005166e+001,-3.82101394460898e+000

1.41232479406504e+005,-2.47130362874193e+001,-3.87430572196917e+000

1.43204011348474e+005,-2.47132558581764e+001,-3.92833941346085e+000

1.45203064850745e+005,-2.47134815798357e+001,-3.98312529108671e+000

1.47230024099979e+005,-2.47137136240753e+001,-4.03867376669113e+000

1.49285278645888e+005,-2.47139521673293e+001,-4.09499539376511e+000

1.51369223476094e+005,-2.47141973909181e+001,-4.15210086926993e+000

1.53482259092041e+005,-2.47144494811816e+001,-4.21000103548099e+000

1.55624791585964e+005,-2.47147086296156e+001,-4.26870688184991e+000

1.57797232718936e+005,-2.47149750330123e+001,-4.32822954688569e+000

1.59999999999999e+005,-2.47152488936047e+001,-4.38858032005557e+000

1.62233516766403e+005,-2.47155304192139e+001,-4.44977064370620e+000

1.64498212264969e+005,-2.47158198234011e+001,-4.51181211500191e+000

1.66794521734578e+005,-2.47161173256233e+001,-4.57471648788309e+000

1.69122886489819e+005,-2.47164231513927e+001,-4.63849567504414e+000

1.71483754005805e+005,-2.47167375324410e+001,-4.70316174993027e+000

1.73877578004168e+005,-2.47170607068872e+001,-4.76872694875329e+000

1.76304818540256e+005,-2.47173929194106e+001,-4.83520367252541e+000

1.78765942091554e+005,-2.47177344214270e+001,-4.90260448911389e+000

1.81261421647326e+005,-2.47180854712710e+001,-4.97094213531234e+000

1.83791736799524e+005,-2.47184463343818e+001,-5.04022951893188e+000

1.86357373834951e+005,-2.47188172834943e+001,-5.11047972091079e+000

1.88958825828723e+005,-2.47191985988350e+001,-5.18170599744182e+000

1.91596592739027e+005,-2.47195905683230e+001,-5.25392178211792e+000

1.94271181503206e+005,-2.47199934877757e+001,-5.32714068809618e+000

1.96983106135185e+005,-2.47204076611206e+001,-5.40137651027962e+000

1.99732887824256e+005,-2.47208334006113e+001,-5.47664322751620e+000

2.02521055035243e+005,-2.47212710270500e+001,-5.55295500481459e+000

2.05348143610063e+005,-2.47217208700152e+001,-5.63032619557862e+000

2.08214696870707e+005,-2.47221832680947e+001,-5.70877134385708e+000

2.11121265723661e+005,-2.47226585691255e+001,-5.78830518660989e+000

2.14068408765776e+005,-2.47231471304384e+001,-5.86894265599181e+000

2.17056692391625e+005,-2.47236493191097e+001,-5.95069888165046e+000

2.20086690902357e+005,-2.47241655122186e+001,-6.03358919304021e+000

2.23158986616063e+005,-2.47246960971111e+001,-6.11762912175146e+000

2.26274169979693e+005,-2.47252414716709e+001,-6.20283440385359e+000

2.29432839682530e+005,-2.47258020445954e+001,-6.28922098225360e+000

2.32635602771247e+005,-2.47263782356807e+001,-6.37680500906665e+000

2.35883074766574e+005,-2.47269704761117e+001,-6.46560284800046e+000

2.39175879781588e+005,-2.47275792087598e+001,-6.55563107675280e+000

2.42514650641661e+005,-2.47282048884883e+001,-6.64690648942025e+000

2.45900029006080e+005,-2.47288479824644e+001,-6.73944609891862e+000

2.49332665491357e+005,-2.47295089704789e+001,-6.83326713941466e+000

2.52813219796278e+005,-2.47301883452741e+001,-6.92838706876708e+000

2.56342360828676e+005,-2.47308866128782e+001,-7.02482357097759e+000

2.59920766833993e+005,-2.47316042929491e+001,-7.12259455865029e+000

2.63549125525621e+005,-2.47323419191251e+001,-7.22171817545999e+000

2.67228134217075e+005,-2.47331000393845e+001,-7.32221279862565e+000

2.70958499956006e+005,-2.47338792164130e+001,-7.42409704139278e+000

2.74740939660078e+005,-2.47346800279804e+001,-7.52738975551879e+000

2.78576180254757e+005,-2.47355030673249e+001,-7.63211003376457e+000

2.82464958813007e+005,-2.47363489435472e+001,-7.73827721238882e+000

2.86408022696948e+005,-2.47372182820131e+001,-7.84591087364485e+000

2.90406129701488e+005,-2.47381117247647e+001,-7.95503084828008e+000

2.94460048199957e+005,-2.47390299309425e+001,-8.06565721803383e+000

2.98570557291775e+005,-2.47399735772147e+001,-8.17781031813660e+000

3.02738446952187e+005,-2.47409433582177e+001,-8.29151073980633e+000

3.06964518184081e+005,-2.47419399870058e+001,-8.40677933274149e+000

3.11249583171928e+005,-2.47429641955106e+001,-8.52363720761070e+000

3.15594465437872e+005,-2.47440167350107e+001,-8.64210573853570e+000

3.19999999999997e+005,-2.47450983766110e+001,-8.76220656556790e+000

3.24467033532806e+005,-2.47462099117332e+001,-8.88396159715652e+000

3.28996424529938e+005,-2.47473521526158e+001,-9.00739301260643e+000

3.33589043469155e+005,-2.47485259328254e+001,-9.13252326452502e+000

3.38245772979638e+005,-2.47497321077780e+001,-9.25937508125648e+000

3.42967508011610e+005,-2.47509715552722e+001,-9.38797146929995e+000

3.47755156008335e+005,-2.47522451760321e+001,-9.51833571571392e+000

3.52609637080511e+005,-2.47535538942623e+001,-9.65049139050024e+000

3.57531884183106e+005,-2.47548986582139e+001,-9.78446234897004e+000

3.62522843294651e+005,-2.47562804407618e+001,-9.92027273408806e+000

3.67583473599047e+005,-2.47577002399933e+001,-1.00579469787922e+001

3.72714747669902e+005,-2.47591590798087e+001,-1.01975098082897e+001

3.77917651657445e+005,-2.47606580105336e+001,-1.03389862423243e+001

3.83193185478053e+005,-2.47621981095427e+001,-1.04824015974154e+001

3.88542363006410e+005,-2.47637804818960e+001,-1.06277814890646e+001

3.93966212270369e+005,-2.47654062609870e+001,-1.07751518339293e+001

3.99465775648511e+005,-2.47670766092024e+001,-1.09245388519608e+001

4.05042110070485e+005,-2.47687927185955e+001,-1.10759690685029e+001

4.10696287220124e+005,-2.47705558115702e+001,-1.12294693163516e+001

4.16429393741414e+005,-2.47723671415787e+001,-1.13850667377716e+001

4.22242531447321e+005,-2.47742279938315e+001,-1.15427887864661e+001

4.28136817531551e+005,-2.47761396860196e+001,-1.17026632295010e+001

4.34113384783250e+005,-2.47781035690498e+001,-1.18647181491771e+001

4.40173381804713e+005,-2.47801210277919e+001,-1.20289819448501e+001

4.46317973232124e+005,-2.47821934818405e+001,-1.21954833346944e+001

4.52548339959385e+005,-2.47843223862872e+001,-1.23642513574088e+001

4.58865679365059e+005,-2.47865092325078e+001,-1.25353153738607e+001

4.65271205542494e+005,-2.47887555489610e+001,-1.27087050686661e+001

4.71766149533147e+005,-2.47910629020009e+001,-1.28844504517032e+001

4.78351759563174e+005,-2.47934328967022e+001,-1.30625818595543e+001

4.85029301283321e+005,-2.47958671776979e+001,-1.32431299568761e+001

4.91800058012158e+005,-2.47983674300310e+001,-1.34261257376931e+001

4.98665330982714e+005,-2.48009353800183e+001,-1.36116005266108e+001

5.05626439592555e+005,-2.48035727961273e+001,-1.37995859799473e+001

5.12684721657352e+005,-2.48062814898671e+001,-1.39901140867769e+001

5.19841533667984e+005,-2.48090633166903e+001,-1.41832171698865e+001

5.27098251051240e+005,-2.48119201769099e+001,-1.43789278866363e+001

5.34456268434150e+005,-2.48148540166276e+001,-1.45772792297254e+001

5.41916999912011e+005,-2.48178668286755e+001,-1.47783045278561e+001

