Freq.,VOut,OutRef

1.00000000000000e+004,-1.38065860476857e+001,-1.84212929710893e-001

1.01395947979003e+004,-1.38065861602097e+001,-1.86784443916492e-001

1.02811382665607e+004,-1.38065862758971e+001,-1.89391855018037e-001

1.04246576084112e+004,-1.38065863948367e+001,-1.92035664113334e-001

1.05701804056138e+004,-1.38065865171200e+001,-1.94716379294363e-001

1.07177346253629e+004,-1.38065866428411e+001,-1.97434515746287e-001

1.08673486252606e+004,-1.38065867720964e+001,-2.00190595845841e-001

1.10190511587661e+004,-1.38065869049855e+001,-2.02985149260558e-001

1.11728713807222e+004,-1.38065870416104e+001,-2.05818713053523e-001

1.13288388529580e+004,-1.38065871820762e+001,-2.08691831782659e-001

1.14869835499703e+004,-1.38065873264907e+001,-2.11605057608824e-001

1.16473358646846e+004,-1.38065874749651e+001,-2.14558950400047e-001

1.18099266142953e+004,-1.38065876276135e+001,-2.17554077839441e-001

1.19747870461893e+004,-1.38065877845532e+001,-2.20591015534129e-001

1.21419488439505e+004,-1.38065879459048e+001,-2.23670347127278e-001

1.23114441334492e+004,-1.38065881117924e+001,-2.26792664407528e-001

1.24833054890161e+004,-1.38065882823433e+001,-2.29958567425814e-001

1.26575659397028e+004,-1.38065884576889e+001,-2.33168664607660e-001

1.28342589756290e+004,-1.38065886379638e+001,-2.36423572873166e-001

1.30134185544193e+004,-1.38065888233066e+001,-2.39723917752001e-001

1.31950791077289e+004,-1.38065890138597e+001,-2.43070333508428e-001

1.33792755478611e+004,-1.38065892097696e+001,-2.46463463257065e-001

1.35660432744767e+004,-1.38065894111869e+001,-2.49903959091254e-001

1.37554181813974e+004,-1.38065896182664e+001,-2.53392482206921e-001

1.39474366635040e+004,-1.38065898311673e+001,-2.56929703029581e-001

1.41421356237309e+004,-1.38065900500530e+001,-2.60516301343054e-001

1.43395524801583e+004,-1.38065902750921e+001,-2.64152966418817e-001

1.45397251732031e+004,-1.38065905064575e+001,-2.67840397151011e-001

1.47426921729110e+004,-1.38065907443268e+001,-2.71579302190219e-001

1.49484924863494e+004,-1.38065909888829e+001,-2.75370400076850e-001

1.51571656651040e+004,-1.38065912403139e+001,-2.79214419382910e-001

1.53687518128801e+004,-1.38065914988128e+001,-2.83112098849779e-001

1.55832915932100e+004,-1.38065917645785e+001,-2.87064187529614e-001

1.58008262372675e+004,-1.38065920378152e+001,-2.91071444931503e-001

1.60213975517924e+004,-1.38065923187329e+001,-2.95134641166877e-001

1.62450479271247e+004,-1.38065926075474e+001,-2.99254557094828e-001

1.64718203453514e+004,-1.38065929044808e+001,-3.03431984476003e-001

1.67017583885674e+004,-1.38065932097612e+001,-3.07667726122126e-001

1.69349062472505e+004,-1.38065935236232e+001,-3.11962596050460e-001

1.71713087287550e+004,-1.38065938463081e+001,-3.16317419641503e-001

1.74110112659224e+004,-1.38065941780638e+001,-3.20733033797225e-001

1.76540599258131e+004,-1.38065945191454e+001,-3.25210287099138e-001

1.79005014185594e+004,-1.38065948698149e+001,-3.29750039975733e-001

1.81503831063432e+004,-1.38065952303418e+001,-3.34353164865969e-001

1.84037530124975e+004,-1.38065956010032e+001,-3.39020546385388e-001

1.86606598307361e+004,-1.38065959820839e+001,-3.43753081496682e-001

1.89211529345119e+004,-1.38065963738768e+001,-3.48551679684748e-001

1.91852823865052e+004,-1.38065967766829e+001,-3.53417263127709e-001

1.94530989482457e+004,-1.38065971908117e+001,-3.58350766876261e-001

1.97246540898671e+004,-1.38065976165816e+001,-3.63353139031595e-001

1.99999999999999e+004,-1.38065980543196e+001,-3.68425340930850e-001

2.02791895958005e+004,-1.38065985043623e+001,-3.73568347326370e-001

2.05622765331213e+004,-1.38065989670551e+001,-3.78783146580595e-001

2.08493152168224e+004,-1.38065994427540e+001,-3.84070740846035e-001

2.11403608112276e+004,-1.38065999318242e+001,-3.89432146268607e-001

2.14354692507258e+004,-1.38066004346416e+001,-3.94868393174023e-001

2.17346972505211e+004,-1.38066009515928e+001,-4.00380526269555e-001

2.20381023175322e+004,-1.38066014830745e+001,-4.05969604846637e-001

2.23457427614443e+004,-1.38066020294954e+001,-4.11636702979200e-001

2.26576777059159e+004,-1.38066025912752e+001,-4.17382909734399e-001

2.29739670999406e+004,-1.38066031688456e+001,-4.23209329379987e-001

2.32946717293690e+004,-1.38066037626504e+001,-4.29117081596258e-001

2.36198532285905e+004,-1.38066043731457e+001,-4.35107301692744e-001

2.39495740923785e+004,-1.38066050008006e+001,-4.41181140824159e-001

2.42838976879009e+004,-1.38066056460972e+001,-4.47339766212478e-001

2.46228882668982e+004,-1.38066063095313e+001,-4.53584361370941e-001

2.49666109780322e+004,-1.38066069916127e+001,-4.59916126331951e-001

2.53151318794055e+004,-1.38066076928653e+001,-4.66336277877334e-001

2.56685179512580e+004,-1.38066084138278e+001,-4.72846049771458e-001

2.60268371088386e+004,-1.38066091550540e+001,-4.79446692998786e-001

2.63901582154578e+004,-1.38066099171133e+001,-4.86139476004379e-001

2.67585510957221e+004,-1.38066107005912e+001,-4.92925684935378e-001

2.71320865489533e+004,-1.38066115060893e+001,-4.99806623891717e-001

2.75108363627948e+004,-1.38066123342265e+001,-5.06783615173783e-001

2.78948733270080e+004,-1.38066131856389e+001,-5.13857999536691e-001

2.82842712474618e+004,-1.38066140609803e+001,-5.21031136448871e-001

2.86791049603164e+004,-1.38066149609231e+001,-5.28304404351914e-001

2.90794503464061e+004,-1.38066158861587e+001,-5.35679200925962e-001

2.94853843458219e+004,-1.38066168373973e+001,-5.43156943358998e-001

2.98969849726987e+004,-1.38066178153698e+001,-5.50739068615976e-001

3.03143313302078e+004,-1.38066188208271e+001,-5.58427033718265e-001

3.07375036257601e+004,-1.38066198545414e+001,-5.66222316021135e-001

3.11665831864199e+004,-1.38066209173064e+001,-5.74126413498809e-001

3.16016524745350e+004,-1.38066220099385e+001,-5.82140845030475e-001

3.20427951035848e+004,-1.38066231332764e+001,-5.90267150693662e-001

3.24900958542493e+004,-1.38066242881829e+001,-5.98506892059040e-001

3.29436406907028e+004,-1.38066254755446e+001,-6.06861652489417e-001

3.34035167771346e+004,-1.38066266962734e+001,-6.15333037445838e-001

3.38698124945009e+004,-1.38066279513063e+001,-6.23922674793785e-001

3.43426174575100e+004,-1.38066292416071e+001,-6.32632215116610e-001

3.48220225318448e+004,-1.38066305681663e+001,-6.41463332032097e-001

3.53081198516260e+004,-1.38066319320022e+001,-6.50417722514461e-001

3.58010028371187e+004,-1.38066333341618e+001,-6.59497107219188e-001

3.63007662126863e+004,-1.38066347757216e+001,-6.68703230812837e-001

3.68075060249948e+004,-1.38066362577881e+001,-6.78037862309417e-001

3.73213196614721e+004,-1.38066377814988e+001,-6.87502795409744e-001

3.78423058690237e+004,-1.38066393480233e+001,-6.97099848843617e-001

3.83705647730104e+004,-1.38066409585638e+001,-7.06830866722138e-001

3.89061978964912e+004,-1.38066426143566e+001,-7.16697718888073e-001

3.94493081797342e+004,-1.38066443166721e+001,-7.26702301278331e-001

3.99999999999998e+004,-1.38066460668168e+001,-7.36846536284416e-001

4.05583791916010e+004,-1.38066478661336e+001,-7.47132373123691e-001

4.11245530662425e+004,-1.38066497160033e+001,-7.57561788211842e-001

4.16986304336447e+004,-1.38066516178452e+001,-7.68136785543581e-001

4.22807216224550e+004,-1.38066535731184e+001,-7.78859397075706e-001

4.28709385014515e+004,-1.38066555833230e+001,-7.89731683117568e-001

4.34693945010421e+004,-1.38066576500011e+001,-8.00755732726865e-001

4.40762046350642e+004,-1.38066597747381e+001,-8.11933664109535e-001

4.46914855228886e+004,-1.38066619591638e+001,-8.23267625026390e-001

4.53153554118317e+004,-1.38066642049536e+001,-8.34759793204770e-001

4.59479341998812e+004,-1.38066665138299e+001,-8.46412376757208e-001

4.65893434587380e+004,-1.38066688875635e+001,-8.58227614604214e-001

4.72397064571810e+004,-1.38066713279747e+001,-8.70207776902940e-001

4.78991481847569e+004,-1.38066738369346e+001,-8.82355165484754e-001

4.85677953758016e+004,-1.38066764163672e+001,-8.94672114293285e-001

4.92457765337964e+004,-1.38066790682500e+001,-9.07160989835923e-001

4.99332219560642e+004,-1.38066817946159e+001,-9.19824191634091e-001

5.06302637588109e+004,-1.38066845975550e+001,-9.32664152685635e-001

5.13370359025159e+004,-1.38066874792158e+001,-9.45683339929567e-001

5.20536742176771e+004,-1.38066904418067e+001,-9.58884254720236e-001

5.27803164309155e+004,-1.38066934875984e+001,-9.72269433306401e-001

5.35171021914442e+004,-1.38066966189248e+001,-9.85841447317092e-001

5.42641730979066e+004,-1.38066998381853e+001,-9.99602904254264e-001

5.50216727255895e+004,-1.38067031478464e+001,-1.01355644799366e+000

5.57897466540159e+004,-1.38067065504436e+001,-1.02770475929007e+000

5.65685424949235e+004,-1.38067100485833e+001,-1.04205055629237e+000

5.73582099206328e+004,-1.38067136449450e+001,-1.05659659506269e+000

5.81589006928121e+004,-1.38067173422830e+001,-1.07134567010601e+000

5.89707686916437e+004,-1.38067211434285e+001,-1.08630061490407e+000

5.97939699453972e+004,-1.38067250512924e+001,-1.10146430245895e+000

6.06286626604156e+004,-1.38067290688663e+001,-1.11683964584359e+000

6.14750072515201e+004,-1.38067331992258e+001,-1.13242959875918e+000

6.23331663728396e+004,-1.38067374455326e+001,-1.14823715610006e+000

6.32033049490698e+004,-1.38067418110364e+001,-1.16426535452942e+000

6.40855902071694e+004,-1.38067462990779e+001,-1.18051727305777e+000

6.49801917084985e+004,-1.38067509130913e+001,-1.19699603363433e+000

6.58872813814055e+004,-1.38067556566062e+001,-1.21370480174421e+000

6.68070335542691e+004,-1.38067605332514e+001,-1.23064678701392e+000

6.77396249890018e+004,-1.38067655467566e+001,-1.24782524382617e+000

6.86852349150199e+004,-1.38067707009558e+001,-1.26524347194122e+000

6.96440450636895e+004,-1.38067759997899e+001,-1.28290481713017e+000

7.06162397032520e+004,-1.38067814473099e+001,-1.30081267181351e+000

7.16020056742374e+004,-1.38067870476797e+001,-1.31897047571051e+000

7.26015324253724e+004,-1.38067928051794e+001,-1.33738171649766e+000

7.36150120499896e+004,-1.38067987242084e+001,-1.35604993047399e+000

7.46426393229441e+004,-1.38068048092890e+001,-1.37497870323866e+000

7.56846117380472e+004,-1.38068110650691e+001,-1.39417167037655e+000

7.67411295460207e+004,-1.38068174963266e+001,-1.41363251815130e+000

7.78123957929823e+004,-1.38068241079722e+001,-1.43336498421252e+000

7.88986163594682e+004,-1.38068309050536e+001,-1.45337285830761e+000

7.99999999999995e+004,-1.38068378927588e+001,-1.47365998300705e+000

8.11167583832018e+004,-1.38068450764204e+001,-1.49423025443881e+000

8.22491061324848e+004,-1.38068524615196e+001,-1.51508762303054e+000

8.33972608672892e+004,-1.38068600536897e+001,-1.53623609426656e+000

8.45614432449099e+004,-1.38068678587210e+001,-1.55767972945023e+000

8.57418770029029e+004,-1.38068758825645e+001,-1.57942264648149e+000

8.69387890020841e+004,-1.38068841313370e+001,-1.60146902064039e+000

8.81524092701283e+004,-1.38068926113251e+001,-1.62382308538624e+000

8.93829710457770e+004,-1.38069013289901e+001,-1.64648913316314e+000

9.06307108236633e+004,-1.38069102909725e+001,-1.66947151622046e+000

9.18958683997622e+004,-1.38069195040976e+001,-1.69277464744150e+000

9.31786869174758e+004,-1.38069289753797e+001,-1.71640300118595e+000

9.44794129143618e+004,-1.38069387120278e+001,-1.74036111414284e+000

9.57982963695136e+004,-1.38069487214510e+001,-1.76465358619336e+000

9.71355907516031e+004,-1.38069590112636e+001,-1.78928508129064e+000

9.84915530675926e+004,-1.38069695892910e+001,-1.81426032834481e+000

9.98664439121282e+004,-1.38069804635753e+001,-1.83958412212570e+000

1.01260527517622e+005,-1.38069916423811e+001,-1.86526132417573e+000

1.02674071805032e+005,-1.38070031342021e+001,-1.89129686373437e+000

1.04107348435354e+005,-1.38070149477667e+001,-1.91769573867668e+000

1.05560632861831e+005,-1.38070270920446e+001,-1.94446301646511e+000

1.07034204382888e+005,-1.38070395762535e+001,-1.97160383511204e+000

1.08528346195813e+005,-1.38070524098659e+001,-1.99912340415733e+000

1.10043345451179e+005,-1.38070656026155e+001,-2.02702700565978e+000

1.11579493308032e+005,-1.38070791645049e+001,-2.05531999519841e+000

1.13137084989847e+005,-1.38070931058124e+001,-2.08400780289329e+000

1.14716419841265e+005,-1.38071074371000e+001,-2.11309593443387e+000

1.16317801385624e+005,-1.38071221692202e+001,-2.14258997212655e+000

1.17941537383287e+005,-1.38071373133247e+001,-2.17249557595328e+000

1.19587939890794e+005,-1.38071528808721e+001,-2.20281848464607e+000

1.21257325320831e+005,-1.38071688836360e+001,-2.23356451677513e+000

1.22950014503040e+005,-1.38071853337138e+001,-2.26473957185227e+000

1.24666332745679e+005,-1.38072022435351e+001,-2.29634963145032e+000

1.26406609898139e+005,-1.38072196258709e+001,-2.32840076033452e+000

1.28171180414339e+005,-1.38072374938423e+001,-2.36089910761366e+000

1.29960383416997e+005,-1.38072558609305e+001,-2.39385090790229e+000

1.31774562762811e+005,-1.38072747409857e+001,-2.42726248250276e+000

1.33614067108538e+005,-1.38072941482374e+001,-2.46114024060005e+000

1.35479249978003e+005,-1.38073140973046e+001,-2.49549068047363e+000

1.37370469830040e+005,-1.38073346032055e+001,-2.53032039072751e+000

1.39288090127379e+005,-1.38073556813689e+001,-2.56563605153371e+000

1.41232479406504e+005,-1.38073773476444e+001,-2.60144443589517e+000

1.43204011348474e+005,-1.38073996183142e+001,-2.63775241092384e+000

1.45203064850745e+005,-1.38074225101037e+001,-2.67456693913722e+000

1.47230024099979e+005,-1.38074460401939e+001,-2.71189507977134e+000

1.49285278645888e+005,-1.38074702262331e+001,-2.74974399011161e+000

1.51369223476094e+005,-1.38074950863490e+001,-2.78812092684256e+000

1.53482259092041e+005,-1.38075206391617e+001,-2.82703324741338e+000

1.55624791585964e+005,-1.38075469037961e+001,-2.86648841142442e+000

1.57797232718936e+005,-1.38075738998953e+001,-2.90649398203017e+000

1.59999999999999e+005,-1.38076016476342e+001,-2.94705762736124e+000

1.62233516766403e+005,-1.38076301677330e+001,-2.98818712196726e+000

1.64498212264969e+005,-1.38076594814718e+001,-3.02989034827592e+000

1.66794521734578e+005,-1.38076896107047e+001,-3.07217529807329e+000

1.69122886489819e+005,-1.38077205778745e+001,-3.11505007400507e+000

1.71483754005805e+005,-1.38077524060284e+001,-3.15852289109385e+000

1.73877578004168e+005,-1.38077851188331e+001,-3.20260207828062e+000

1.76304818540256e+005,-1.38078187405908e+001,-3.24729607998451e+000

1.78765942091554e+005,-1.38078532962552e+001,-3.29261345768401e+000

1.81261421647326e+005,-1.38078888114485e+001,-3.33856289151774e+000

1.83791736799524e+005,-1.38079253124782e+001,-3.38515318190823e+000

1.86357373834951e+005,-1.38079628263542e+001,-3.43239325120671e+000

1.88958825828723e+005,-1.38080013808069e+001,-3.48029214535812e+000

1.91596592739027e+005,-1.38080410043054e+001,-3.52885903558983e+000

1.94271181503206e+005,-1.38080817260756e+001,-3.57810322012128e+000

1.96983106135185e+005,-1.38081235761193e+001,-3.62803412589768e+000

1.99732887824256e+005,-1.38081665852339e+001,-3.67866131034430e+000

2.02521055035243e+005,-1.38082107850316e+001,-3.72999446314549e+000

2.05348143610063e+005,-1.38082562079601e+001,-3.78204340804662e+000

2.08214696870707e+005,-1.38083028873228e+001,-3.83481810467886e+000

2.11121265723661e+005,-1.38083508573001e+001,-3.88832865040876e+000

2.14068408765776e+005,-1.38084001529707e+001,-3.94258528221171e+000

2.17056692391625e+005,-1.38084508103335e+001,-3.99759837856923e+000

2.20086690902357e+005,-1.38085028663302e+001,-4.05337846139210e+000

2.23158986616063e+005,-1.38085563588678e+001,-4.10993619796712e+000

2.26274169979693e+005,-1.38086113268419e+001,-4.16728240293059e+000

2.29432839682530e+005,-1.38086678101605e+001,-4.22542804026652e+000

2.32635602771247e+005,-1.38087258497683e+001,-4.28438422533123e+000

2.35883074766574e+005,-1.38087854876707e+001,-4.34416222690401e+000

2.39175879781588e+005,-1.38088467669598e+001,-4.40477346926442e+000

2.42514650641661e+005,-1.38089097318392e+001,-4.46622953429578e+000

2.45900029006080e+005,-1.38089744276501e+001,-4.52854216361776e+000

2.49332665491357e+005,-1.38090409008984e+001,-4.59172326074429e+000

2.52813219796278e+005,-1.38091091992808e+001,-4.65578489327064e+000

2.56342360828676e+005,-1.38091793717129e+001,-4.72073929508918e+000

2.59920766833993e+005,-1.38092514683565e+001,-4.78659886863175e+000

2.63549125525621e+005,-1.38093255406487e+001,-4.85337618714321e+000

2.67228134217075e+005,-1.38094016413299e+001,-4.92108399698276e+000

2.70958499956006e+005,-1.38094798244737e+001,-4.98973521995578e+000

2.74740939660078e+005,-1.38095601455166e+001,-5.05934295567515e+000

2.78576180254757e+005,-1.38096426612879e+001,-5.12992048395355e+000

2.82464958813007e+005,-1.38097274300408e+001,-5.20148126722543e+000

2.86408022696948e+005,-1.38098145114831e+001,-5.27403895300241e+000

2.90406129701488e+005,-1.38099039668094e+001,-5.34760737635723e+000

2.94460048199957e+005,-1.38099958587325e+001,-5.42220056244211e+000

2.98570557291775e+005,-1.38100902515165e+001,-5.49783272903953e+000

3.02738446952187e+005,-1.38101872110092e+001,-5.57451828914338e+000

3.06964518184081e+005,-1.38102868046758e+001,-5.65227185357694e+000

3.11249583171928e+005,-1.38103891016328e+001,-5.73110823364142e+000

3.15594465437872e+005,-1.38104941726818e+001,-5.81104244380129e+000

3.19999999999997e+005,-1.38106020903443e+001,-5.89208970440265e+000

3.24467033532806e+005,-1.38107129288969e+001,-5.97426544442764e+000

3.28996424529938e+005,-1.38108267644065e+001,-6.05758530428371e+000

3.33589043469155e+005,-1.38109436747660e+001,-6.14206513863037e+000

3.38245772979638e+005,-1.38110637397306e+001,-6.22772101924192e+000

3.42967508011610e+005,-1.38111870409543e+001,-6.31456923790720e+000

3.47755156008335e+005,-1.38113136620266e+001,-6.40262630936760e+000

3.52609637080511e+005,-1.38114436885096e+001,-6.49190897429393e+000

3.57531884183106e+005,-1.38115772079758e+001,-6.58243420230171e+000

3.62522843294651e+005,-1.38117143100455e+001,-6.67421919500603e+000

3.67583473599047e+005,-1.38118550864250e+001,-6.76728138911738e+000

3.72714747669902e+005,-1.38119996309450e+001,-6.86163845957790e+000

3.77917651657445e+005,-1.38121480395989e+001,-6.95730832273938e+000

3.83193185478053e+005,-1.38123004105821e+001,-7.05430913958413e+000

3.88542363006410e+005,-1.38124568443302e+001,-7.15265931898750e+000

3.93966212270369e+005,-1.38126174435593e+001,-7.25237752102638e+000

3.99465775648511e+005,-1.38127823133045e+001,-7.35348266033018e+000

4.05042110070485e+005,-1.38129515609598e+001,-7.45599390947859e+000

4.10696287220124e+005,-1.38131252963179e+001,-7.55993070244525e+000

4.16429393741414e+005,-1.38133036316103e+001,-7.66531273808824e+000

4.22242531447321e+005,-1.38134866815466e+001,-7.77215998368861e+000

4.28136817531551e+005,-1.38136745633554e+001,-7.88049267853862e+000

4.34113384783250e+005,-1.38138673968241e+001,-7.99033133757834e+000

4.40173381804713e+005,-1.38140653043391e+001,-8.10169675508508e+000

4.46317973232124e+005,-1.38142684109266e+001,-8.21461000841301e+000

4.52548339959385e+005,-1.38144768442924e+001,-8.32909246178626e+000

4.58865679365059e+005,-1.38146907348632e+001,-8.44516577014702e+000

4.65271205542494e+005,-1.38149102158264e+001,-8.56285188305753e+000

4.71766149533147e+005,-1.38151354231713e+001,-8.68217304865928e+000

4.78351759563174e+005,-1.38153664957292e+001,-8.80315181768925e+000

4.85029301283321e+005,-1.38156035752147e+001,-8.92581104755583e+000

4.91800058012158e+005,-1.38158468062658e+001,-9.05017390647388e+000

4.98665330982714e+005,-1.38160963364857e+001,-9.17626387766211e+000

5.05626439592555e+005,-1.38163523164825e+001,-9.30410476360320e+000

5.12684721657352e+005,-1.38166148999116e+001,-9.43372069036797e+000

5.19841533667984e+005,-1.38168842435157e+001,-9.56513611200532e+000

5.27098251051240e+005,-1.38171605071672e+001,-9.69837581499987e+000

5.34456268434150e+005,-1.38174438539089e+001,-9.83346492279843e+000

5.41916999912011e+005,-1.38177344499964e+001,-9.97042890040641e+000

