Freq.,VOut,OutRef

1.00000000000000e+004,-8.88827939061582e+000,-3.40916858097518e-002

1.01395947979003e+004,-8.88827942300086e+000,-3.45675863170322e-002

1.02811382665607e+004,-8.88827945629626e+000,-3.50501300761729e-002

1.04246576084112e+004,-8.88827949052793e+000,-3.55394098183679e-002

1.05701804056138e+004,-8.88827952572185e+000,-3.60355195732483e-002

1.07177346253629e+004,-8.88827956190484e+000,-3.65385546825313e-002

1.08673486252606e+004,-8.88827959910496e+000,-3.70486118151986e-002

1.10190511587661e+004,-8.88827963735083e+000,-3.75657889915995e-002

1.11728713807222e+004,-8.88827967667218e+000,-3.80901855975478e-002

1.13288388529580e+004,-8.88827971709845e+000,-3.86219024138098e-002

1.14869835499703e+004,-8.88827975866120e+000,-3.91610416195298e-002

1.16473358646846e+004,-8.88827980139219e+000,-3.97077068241839e-002

1.18099266142953e+004,-8.88827984532440e+000,-4.02620030814186e-002

1.19747870461893e+004,-8.88827989049151e+000,-4.08240369127640e-002

1.21419488439505e+004,-8.88827993692851e+000,-4.13939163240124e-002

1.23114441334492e+004,-8.88827998467064e+000,-4.19717508334110e-002

1.24833054890161e+004,-8.88828003375460e+000,-4.25576514843218e-002

1.26575659397028e+004,-8.88828008421864e+000,-4.31517308672133e-002

1.28342589756290e+004,-8.88828013610107e+000,-4.37541031501259e-002

1.30134185544193e+004,-8.88828018944191e+000,-4.43648840909540e-002

1.31950791077289e+004,-8.88828024428181e+000,-4.49841910657958e-002

1.33792755478611e+004,-8.88828030066344e+000,-4.56121430840376e-002

1.35660432744767e+004,-8.88828035862977e+000,-4.62488608214754e-002

1.37554181813974e+004,-8.88828041822569e+000,-4.68944666336756e-002

1.39474366635040e+004,-8.88828047949645e+000,-4.75490845898923e-002

1.41421356237309e+004,-8.88828054248968e+000,-4.82128404835029e-002

1.43395524801583e+004,-8.88828060725358e+000,-4.88858618688013e-002

1.45397251732031e+004,-8.88828067383761e+000,-4.95682780811550e-002

1.47426921729110e+004,-8.88828074229345e+000,-5.02602202550412e-002

1.49484924863494e+004,-8.88828081267321e+000,-5.09618213623311e-002

1.51571656651040e+004,-8.88828088503131e+000,-5.16732162249038e-002

1.53687518128801e+004,-8.88828095942304e+000,-5.23945415507465e-002

1.55832915932100e+004,-8.88828103590565e+000,-5.31259359530826e-002

1.58008262372675e+004,-8.88828111453838e+000,-5.38675399773567e-002

1.60213975517924e+004,-8.88828119538082e+000,-5.46194961385549e-002

1.62450479271247e+004,-8.88828127849554e+000,-5.53819489327506e-002

1.64718203453514e+004,-8.88828136394652e+000,-5.61550448745654e-002

1.67017583885674e+004,-8.88828145179887e+000,-5.69389325274930e-002

1.69349062472505e+004,-8.88828154212055e+000,-5.77337625223786e-002

1.71713087287550e+004,-8.88828163498072e+000,-5.85396875960516e-002

1.74110112659224e+004,-8.88828173045095e+000,-5.93568626145956e-002

1.76540599258131e+004,-8.88828182860417e+000,-6.01854446089420e-002

1.79005014185594e+004,-8.88828192951639e+000,-6.10255927951974e-002

1.81503831063432e+004,-8.88828203326434e+000,-6.18774686200071e-002

1.84037530124975e+004,-8.88828213992818e+000,-6.27412357756646e-002

1.86606598307361e+004,-8.88828224958977e+000,-6.36170602417614e-002

1.89211529345119e+004,-8.88828236233311e+000,-6.45051103151054e-002

1.91852823865052e+004,-8.88828247824514e+000,-6.54055566375565e-002

1.94530989482457e+004,-8.88828259741471e+000,-6.63185722354454e-002

1.97246540898671e+004,-8.88828271993339e+000,-6.72443325484140e-002

1.99999999999999e+004,-8.88828284589490e+000,-6.81830154667779e-002

2.02791895958005e+004,-8.88828297539641e+000,-6.91348013580195e-002

2.05622765331213e+004,-8.88828310853715e+000,-7.00998731110455e-002

2.08493152168224e+004,-8.88828324541950e+000,-7.10784161637356e-002

2.11403608112276e+004,-8.88828338614831e+000,-7.20706185450212e-002

2.14354692507258e+004,-8.88828353083201e+000,-7.30766709028163e-002

2.17346972505211e+004,-8.88828367958126e+000,-7.40967665507012e-002

2.20381023175322e+004,-8.88828383251046e+000,-7.51311014957755e-002

2.23457427614443e+004,-8.88828398973705e+000,-7.61798744805474e-002

2.26576777059159e+004,-8.88828415138168e+000,-7.72432870215229e-002

2.29739670999406e+004,-8.88828431756815e+000,-7.83215434491246e-002

2.32946717293690e+004,-8.88828448842460e+000,-7.94148509378691e-002

2.36198532285905e+004,-8.88828466408156e+000,-8.05234195615616e-002

2.39495740923785e+004,-8.88828484467441e+000,-8.16474623170002e-002

2.42838976879009e+004,-8.88828503034137e+000,-8.27871951789125e-002

2.46228882668982e+004,-8.88828522122501e+000,-8.39428371324659e-002

2.49666109780322e+004,-8.88828541747204e+000,-8.51146102168038e-002

2.53151318794055e+004,-8.88828561923281e+000,-8.63027395722299e-002

2.56685179512580e+004,-8.88828582666187e+000,-8.75074534798058e-002

2.60268371088386e+004,-8.88828603991902e+000,-8.87289833999123e-002

2.63901582154578e+004,-8.88828625916748e+000,-8.99675640283894e-002

2.67585510957221e+004,-8.88828648457553e+000,-9.12234333322011e-002

2.71320865489533e+004,-8.88828671631609e+000,-9.24968325985363e-002

2.75108363627948e+004,-8.88828695456704e+000,-9.37880064798863e-002

2.78948733270080e+004,-8.88828719951090e+000,-9.50972030437593e-002

2.82842712474618e+004,-8.88828745133577e+000,-9.64246738152775e-002

2.86791049603164e+004,-8.88828771023465e+000,-9.77706738302079e-002

2.90794503464061e+004,-8.88828797640606e+000,-9.91354616812170e-002

2.94853843458219e+004,-8.88828825005431e+000,-1.00519299566660e-001

2.98969849726987e+004,-8.88828853138940e+000,-1.01922453342184e-001

3.03143313302078e+004,-8.88828882062644e+000,-1.03345192576526e-001

3.07375036257601e+004,-8.88828911798764e+000,-1.04787790591423e-001

3.11665831864199e+004,-8.88828942370080e+000,-1.06250524524900e-001

3.16016524745350e+004,-8.88828973800046e+000,-1.07733675378142e-001

3.20427951035848e+004,-8.88829006112736e+000,-1.09237528073002e-001

3.24900958542493e+004,-8.88829039332916e+000,-1.10762371504557e-001

3.29436406907028e+004,-8.88829073486062e+000,-1.12308498595099e-001

3.34035167771346e+004,-8.88829108598331e+000,-1.13876206354799e-001

3.38698124945009e+004,-8.88829144696638e+000,-1.15465795932958e-001

3.43426174575100e+004,-8.88829181808619e+000,-1.17077572681284e-001

3.48220225318448e+004,-8.88829219962736e+000,-1.18711846205659e-001

3.53081198516260e+004,-8.88829259188199e+000,-1.20368930432119e-001

3.58010028371187e+004,-8.88829299515083e+000,-1.22049143661165e-001

3.63007662126863e+004,-8.88829340974216e+000,-1.23752808636785e-001

3.68075060249948e+004,-8.88829383597400e+000,-1.25480252595920e-001

3.73213196614721e+004,-8.88829427417246e+000,-1.27231807342578e-001

3.78423058690237e+004,-8.88829472467323e+000,-1.29007809304469e-001

3.83705647730104e+004,-8.88829518782083e+000,-1.30808599602441e-001

3.89061978964912e+004,-8.88829566397025e+000,-1.32634524107408e-001

3.94493081797342e+004,-8.88829615348553e+000,-1.34485933517577e-001

3.99999999999998e+004,-8.88829665674153e+000,-1.36363183415594e-001

4.05583791916010e+004,-8.88829717412325e+000,-1.38266634342526e-001

4.11245530662425e+004,-8.88829770602629e+000,-1.40196651865902e-001

4.16986304336447e+004,-8.88829825285796e+000,-1.42153606644308e-001

4.22807216224550e+004,-8.88829881503639e+000,-1.44137874505604e-001

4.28709385014515e+004,-8.88829939299121e+000,-1.46149836516716e-001

4.34693945010421e+004,-8.88829998716447e+000,-1.48189879052465e-001

4.40762046350642e+004,-8.88830059801075e+000,-1.50258393870485e-001

4.46914855228886e+004,-8.88830122599650e+000,-1.52355778192456e-001

4.53153554118317e+004,-8.88830187160202e+000,-1.54482434770143e-001

4.59479341998812e+004,-8.88830253532054e+000,-1.56638771969291e-001

4.65893434587380e+004,-8.88830321765924e+000,-1.58825203844228e-001

4.72397064571810e+004,-8.88830391913910e+000,-1.61042150219961e-001

4.78991481847569e+004,-8.88830464029602e+000,-1.63290036767416e-001

4.85677953758016e+004,-8.88830538168072e+000,-1.65569295088015e-001

4.92457765337964e+004,-8.88830614385923e+000,-1.67880362795220e-001

4.99332219560642e+004,-8.88830692741317e+000,-1.70223683598821e-001

5.06302637588109e+004,-8.88830773294075e+000,-1.72599707386258e-001

5.13370359025159e+004,-8.88830856105632e+000,-1.75008890312992e-001

5.20536742176771e+004,-8.88830941239194e+000,-1.77451694883765e-001

5.27803164309155e+004,-8.88831028759648e+000,-1.79928590048034e-001

5.35171021914442e+004,-8.88831118733767e+000,-1.82440051279822e-001

5.42641730979066e+004,-8.88831211230119e+000,-1.84986560676916e-001

5.50216727255895e+004,-8.88831306319199e+000,-1.87568607047963e-001

5.57897466540159e+004,-8.88831404073483e+000,-1.90186686004216e-001

5.65685424949235e+004,-8.88831504567403e+000,-1.92841300059793e-001

5.73582099206328e+004,-8.88831607877514e+000,-1.95532958719152e-001

5.81589006928121e+004,-8.88831714082478e+000,-1.98262178579657e-001

5.89707686916437e+004,-8.88831823263118e+000,-2.01029483428419e-001

5.97939699453972e+004,-8.88831935502508e+000,-2.03835404340979e-001

6.06286626604156e+004,-8.88832050886059e+000,-2.06680479779874e-001

6.14750072515201e+004,-8.88832169501504e+000,-2.09565255702353e-001

6.23331663728396e+004,-8.88832291439026e+000,-2.12490285659036e-001

6.32033049490698e+004,-8.88832416791289e+000,-2.15456130901629e-001

6.40855902071694e+004,-8.88832545653549e+000,-2.18463360486466e-001

6.49801917084985e+004,-8.88832678123684e+000,-2.21512551384766e-001

6.58872813814055e+004,-8.88832814302263e+000,-2.24604288591842e-001

6.68070335542691e+004,-8.88832954292643e+000,-2.27739165236568e-001

6.77396249890018e+004,-8.88833098201051e+000,-2.30917782692973e-001

6.86852349150199e+004,-8.88833246136628e+000,-2.34140750696261e-001

6.96440450636895e+004,-8.88833398211542e+000,-2.37408687455682e-001

7.06162397032520e+004,-8.88833554541039e+000,-2.40722219773728e-001

7.16020056742374e+004,-8.88833715243539e+000,-2.44081983162471e-001

7.26015324253724e+004,-8.88833880440749e+000,-2.47488621963573e-001

7.36150120499896e+004,-8.88834050257703e+000,-2.50942789471122e-001

7.46426393229441e+004,-8.88834224822872e+000,-2.54445148054854e-001

7.56846117380472e+004,-8.88834404268295e+000,-2.57996369281704e-001

7.67411295460207e+004,-8.88834588729602e+000,-2.61597134047184e-001

7.78123957929823e+004,-8.88834778346141e+000,-2.65248132701246e-001

7.88986163594682e+004,-8.88834973261124e+000,-2.68950065175963e-001

7.99999999999995e+004,-8.88835173621681e+000,-2.72703641119733e-001

8.11167583832018e+004,-8.88835379578933e+000,-2.76509580032370e-001

8.22491061324848e+004,-8.88835591288187e+000,-2.80368611394767e-001

8.33972608672892e+004,-8.88835808908986e+000,-2.84281474810017e-001

8.45614432449099e+004,-8.88836032605216e+000,-2.88248920142363e-001

8.57418770029029e+004,-8.88836262545276e+000,-2.92271707653556e-001

8.69387890020841e+004,-8.88836498902114e+000,-2.96350608151659e-001

8.81524092701283e+004,-8.88836741853441e+000,-3.00486403127869e-001

8.93829710457770e+004,-8.88836991581791e+000,-3.04679884908659e-001

9.06307108236633e+004,-8.88837248274676e+000,-3.08931856800492e-001

9.18958683997622e+004,-8.88837512124682e+000,-3.13243133242447e-001

9.31786869174758e+004,-8.88837783329670e+000,-3.17614539954354e-001

9.44794129143618e+004,-8.88838062092828e+000,-3.22046914095610e-001

9.57982963695136e+004,-8.88838348622912e+000,-3.26541104415052e-001

9.71355907516031e+004,-8.88838643134255e+000,-3.31097971417027e-001

9.84915530675926e+004,-8.88838945847072e+000,-3.35718387511767e-001

9.98664439121282e+004,-8.88839256987477e+000,-3.40403237185554e-001

1.01260527517622e+005,-8.88839576787718e+000,-3.45153417160494e-001

1.02674071805032e+005,-8.88839905486292e+000,-3.49969836562188e-001

1.04107348435354e+005,-8.88840243328122e+000,-3.54853417088432e-001

1.05560632861831e+005,-8.88840590564721e+000,-3.59805093179001e-001

1.07034204382888e+005,-8.88840947454384e+000,-3.64825812187494e-001

1.08528346195813e+005,-8.88841314262287e+000,-3.69916534560207e-001

1.10043345451179e+005,-8.88841691260762e+000,-3.75078234008035e-001

1.11579493308032e+005,-8.88842078729420e+000,-3.80311897688549e-001

1.13137084989847e+005,-8.88842476955316e+000,-3.85618526389843e-001

1.14716419841265e+005,-8.88842886233192e+000,-3.90999134709754e-001

1.16317801385624e+005,-8.88843306865630e+000,-3.96454751246598e-001

1.17941537383287e+005,-8.88843739163266e+000,-4.01986418784280e-001

1.19587939890794e+005,-8.88844183444985e+000,-4.07595194486464e-001

1.21257325320831e+005,-8.88844640038128e+000,-4.13282150087049e-001

1.22950014503040e+005,-8.88845109278699e+000,-4.19048372088059e-001

1.24666332745679e+005,-8.88845591511579e+000,-4.24894961956919e-001

1.26406609898139e+005,-8.88846087090726e+000,-4.30823036328738e-001

1.28171180414339e+005,-8.88846596379452e+000,-4.36833727205875e-001

1.29960383416997e+005,-8.88847119750579e+000,-4.42928182167420e-001

1.31774562762811e+005,-8.88847657586730e+000,-4.49107564574663e-001

1.33614067108538e+005,-8.88848210280510e+000,-4.55373053784743e-001

1.35479249978003e+005,-8.88848778234797e+000,-4.61725845360233e-001

1.37370469830040e+005,-8.88849361862951e+000,-4.68167151287956e-001

1.39288090127379e+005,-8.88849961589089e+000,-4.74698200195572e-001

1.41232479406504e+005,-8.88850577848293e+000,-4.81320237575260e-001

1.43204011348474e+005,-8.88851211086941e+000,-4.88034526003152e-001

1.45203064850745e+005,-8.88851861762890e+000,-4.94842345370603e-001

1.47230024099979e+005,-8.88852530345796e+000,-5.01744993110285e-001

1.49285278645888e+005,-8.88853217317368e+000,-5.08743784428141e-001

1.51369223476094e+005,-8.88853923171651e+000,-5.15840052538567e-001

1.53482259092041e+005,-8.88854648415266e+000,-5.23035148903571e-001

1.55624791585964e+005,-8.88855393567771e+000,-5.30330443467799e-001

1.57797232718936e+005,-8.88856159161871e+000,-5.37727324907240e-001

1.59999999999999e+005,-8.88856945743741e+000,-5.45227200871728e-001

1.62233516766403e+005,-8.88857753873342e+000,-5.52831498232860e-001

1.64498212264969e+005,-8.88858584124685e+000,-5.60541663338035e-001

1.66794521734578e+005,-8.88859437086169e+000,-5.68359162261257e-001

1.69122886489819e+005,-8.88860313360848e+000,-5.76285481064094e-001

1.71483754005805e+005,-8.88861213566768e+000,-5.84322126053096e-001

1.73877578004168e+005,-8.88862138337283e+000,-5.92470624043120e-001

1.76304818540256e+005,-8.88863088321360e+000,-6.00732522623201e-001

1.78765942091554e+005,-8.88864064183911e+000,-6.09109390426020e-001

1.81261421647326e+005,-8.88865066606084e+000,-6.17602817400263e-001

1.83791736799524e+005,-8.88866096285619e+000,-6.26214415083710e-001

1.86357373834951e+005,-8.88867153937172e+000,-6.34945816882227e-001

1.88958825828723e+005,-8.88868240292624e+000,-6.43798678350187e-001

1.91596592739027e+005,-8.88869356101431e+000,-6.52774677474481e-001

1.94271181503206e+005,-8.88870502130947e+000,-6.61875514961153e-001

1.96983106135185e+005,-8.88871679166731e+000,-6.71102914527008e-001

1.99732887824256e+005,-8.88872888012927e+000,-6.80458623189791e-001

2.02521055035243e+005,-8.88874129492548e+000,-6.89944411567490e-001

2.05348143610063e+005,-8.88875404447847e+000,-6.99562074174794e-001

2.08214696870707e+005,-8.88876713740616e+000,-7.09313429727476e-001

2.11121265723661e+005,-8.88878058252508e+000,-7.19200321448207e-001

2.14068408765776e+005,-8.88879438885410e+000,-7.29224617373272e-001

2.17056692391625e+005,-8.88880856561705e+000,-7.39388210666082e-001

2.20086690902357e+005,-8.88882312224628e+000,-7.49693019932622e-001

2.23158986616063e+005,-8.88883806838587e+000,-7.60140989537072e-001

2.26274169979693e+005,-8.88885341389425e+000,-7.70734089927569e-001

2.29432839682530e+005,-8.88886916884774e+000,-7.81474317957184e-001

2.32635602771247e+005,-8.88888534354329e+000,-7.92363697213523e-001

2.35883074766574e+005,-8.88890194850136e+000,-8.03404278349699e-001

2.39175879781588e+005,-8.88891899446875e+000,-8.14598139418911e-001

2.42514650641661e+005,-8.88893649242126e+000,-8.25947386212466e-001

2.45900029006080e+005,-8.88895445356640e+000,-8.37454152599976e-001

2.49332665491357e+005,-8.88897288934562e+000,-8.49120600875409e-001

2.52813219796278e+005,-8.88899181143690e+000,-8.60948922103270e-001

2.56342360828676e+005,-8.88901123175685e+000,-8.72941336470242e-001

2.59920766833993e+005,-8.88903116246275e+000,-8.85100093639854e-001

2.63549125525621e+005,-8.88905161595435e+000,-8.97427473110376e-001

2.67228134217075e+005,-8.88907260487551e+000,-9.09925784576756e-001

2.70958499956006e+005,-8.88909414211592e+000,-9.22597368293583e-001

2.74740939660078e+005,-8.88911624081209e+000,-9.35444595445216e-001

2.78576180254757e+005,-8.88913891434833e+000,-9.48469868517723e-001

2.82464958813007e+005,-8.88916217635767e+000,-9.61675621672394e-001

2.86408022696948e+005,-8.88918604072235e+000,-9.75064321125826e-001

2.90406129701488e+005,-8.88921052157366e+000,-9.88638465533386e-001

2.94460048199957e+005,-8.88923563329224e+000,-1.00240058637350e+000

2.98570557291775e+005,-8.88926139050725e+000,-1.01635324833876e+000

3.02738446952187e+005,-8.88928780809570e+000,-1.03049904972931e+000

3.06964518184081e+005,-8.88931490118099e+000,-1.04484062285104e+000

3.11249583171928e+005,-8.88934268513169e+000,-1.05938063441483e+000

3.15594465437872e+005,-8.88937117555878e+000,-1.07412178594461e+000

3.19999999999997e+005,-8.88940038831381e+000,-1.08906681418396e+000

3.24467033532806e+005,-8.88943033948508e+000,-1.10421849151273e+000

3.28996424529938e+005,-8.88946104539478e+000,-1.11957962635971e+000

3.33589043469155e+005,-8.88949252259424e+000,-1.13515306362956e+000

3.38245772979638e+005,-8.88952478785946e+000,-1.15094168512544e+000

3.42967508011610e+005,-8.88955785818575e+000,-1.16694840998079e+000

3.47755156008335e+005,-8.88959175078151e+000,-1.18317619509425e+000

3.52609637080511e+005,-8.88962648306184e+000,-1.19962803556869e+000

3.57531884183106e+005,-8.88966207264066e+000,-1.21630696515702e+000

3.62522843294651e+005,-8.88969853732269e+000,-1.23321605671107e+000

3.67583473599047e+005,-8.88973589509455e+000,-1.25035842263529e+000

3.72714747669902e+005,-8.88977416411448e+000,-1.26773721534814e+000

3.77917651657445e+005,-8.88981336270196e+000,-1.28535562774613e+000

3.83193185478053e+005,-8.88985350932576e+000,-1.30321689367531e+000

3.88542363006410e+005,-8.88989462259114e+000,-1.32132428840822e+000

3.93966212270369e+005,-8.88993672122649e+000,-1.33968112912575e+000

3.99465775648511e+005,-8.88997982406815e+000,-1.35829077540692e+000

4.05042110070485e+005,-8.89002395004471e+000,-1.37715662972441e+000

4.10696287220124e+005,-8.89006911815993e+000,-1.39628213794673e+000

4.16429393741414e+005,-8.89011534747438e+000,-1.41567078984747e+000

4.22242531447321e+005,-8.89016265708570e+000,-1.43532611962402e+000

4.28136817531551e+005,-8.89021106610832e+000,-1.45525170641891e+000

4.34113384783250e+005,-8.89026059365067e+000,-1.47545117485488e+000

4.40173381804713e+005,-8.89031125879162e+000,-1.49592819557632e+000

4.46317973232124e+005,-8.89036308055569e+000,-1.51668648579715e+000

4.52548339959385e+005,-8.89041607788618e+000,-1.53772980986158e+000

4.58865679365059e+005,-8.89047026961715e+000,-1.55906197981179e+000

4.65271205542494e+005,-8.89052567444327e+000,-1.58068685596945e+000

4.71766149533147e+005,-8.89058231088898e+000,-1.60260834752102e+000

4.78351759563174e+005,-8.89064019727469e+000,-1.62483041312247e+000

4.85029301283321e+005,-8.89069935168218e+000,-1.64735706151039e+000

4.91800058012158e+005,-8.89075979191788e+000,-1.67019235212530e+000

4.98665330982714e+005,-8.89082153547404e+000,-1.69334039575111e+000

5.05626439592555e+005,-8.89088459948841e+000,-1.71680535516514e+000

5.12684721657352e+005,-8.89094900070162e+000,-1.74059144580335e+000

5.19841533667984e+005,-8.89101475541295e+000,-1.76470293643986e+000

5.27098251051240e+005,-8.89108187943351e+000,-1.78914414988419e+000

5.34456268434150e+005,-8.89115038803807e+000,-1.81391946369018e+000

5.41916999912011e+005,-8.89122029591416e+000,-1.83903331088711e+000

