Freq.,VOut,OutRef

1.00000000000000e+004,-7.16762270983918e+000,-2.17740387850360e-002

1.01395947979003e+004,-7.16762287848018e+000,-2.20779858267553e-002

1.02811382665607e+004,-7.16762305186142e+000,-2.23861755080775e-002

1.04246576084112e+004,-7.16762323011708e+000,-2.26986670350556e-002

1.05701804056138e+004,-7.16762341338367e+000,-2.30155204487790e-002

1.07177346253629e+004,-7.16762360180204e+000,-2.33367966251084e-002

1.08673486252606e+004,-7.16762379551691e+000,-2.36625572889584e-002

1.10190511587661e+004,-7.16762399467714e+000,-2.39928650264788e-002

1.11728713807222e+004,-7.16762419943619e+000,-2.43277832938620e-002

1.13288388529580e+004,-7.16762440995160e+000,-2.46673764338528e-002

1.14869835499703e+004,-7.16762462638441e+000,-2.50117096925955e-002

1.16473358646846e+004,-7.16762484890159e+000,-2.53608492177478e-002

1.18099266142953e+004,-7.16762507767338e+000,-2.57148620880089e-002

1.19747870461893e+004,-7.16762531287626e+000,-2.60738163090898e-002

1.21419488439505e+004,-7.16762555469126e+000,-2.64377808371198e-002

1.23114441334492e+004,-7.16762580330345e+000,-2.68068255969341e-002

1.24833054890161e+004,-7.16762605890423e+000,-2.71810214813811e-002

1.26575659397028e+004,-7.16762632168982e+000,-2.75604403756759e-002

1.28342589756290e+004,-7.16762659186271e+000,-2.79451551623767e-002

1.30134185544193e+004,-7.16762686962977e+000,-2.83352397490547e-002

1.31950791077289e+004,-7.16762715520546e+000,-2.87307690621907e-002

1.33792755478611e+004,-7.16762744880817e+000,-2.91318190872678e-002

1.35660432744767e+004,-7.16762775066386e+000,-2.95384668591419e-002

1.37554181813974e+004,-7.16762806100498e+000,-2.99507904867459e-002

1.39474366635040e+004,-7.16762838006938e+000,-3.03688691747361e-002

1.41421356237309e+004,-7.16762870810219e+000,-3.07927832288647e-002

1.43395524801583e+004,-7.16762904535609e+000,-3.12226140696338e-002

1.45397251732031e+004,-7.16762939208977e+000,-3.16584442603651e-002

1.47426921729110e+004,-7.16762974857020e+000,-3.21003575080906e-002

1.49484924863494e+004,-7.16763011507022e+000,-3.25484386981948e-002

1.51571656651040e+004,-7.16763049187243e+000,-3.30027738853631e-002

1.53687518128801e+004,-7.16763087926620e+000,-3.34634503313065e-002

1.55832915932100e+004,-7.16763127754866e+000,-3.39305565168855e-002

1.58008262372675e+004,-7.16763168702638e+000,-3.44041821489093e-002

1.60213975517924e+004,-7.16763210801332e+000,-3.48844181925142e-002

1.62450479271247e+004,-7.16763254083360e+000,-3.53713568721242e-002

1.64718203453514e+004,-7.16763298581942e+000,-3.58650917037161e-002

1.67017583885674e+004,-7.16763344331269e+000,-3.63657175044319e-002

1.69349062472505e+004,-7.16763391366498e+000,-3.68733304123122e-002

1.71713087287550e+004,-7.16763439723792e+000,-3.73880279038026e-002

1.74110112659224e+004,-7.16763489440211e+000,-3.79099088212725e-002

1.76540599258131e+004,-7.16763540554029e+000,-3.84390733732537e-002

1.79005014185594e+004,-7.16763593104495e+000,-3.89756231708217e-002

1.81503831063432e+004,-7.16763647131909e+000,-3.95196612438966e-002

1.84037530124975e+004,-7.16763702677890e+000,-4.00712920459684e-002

1.86606598307361e+004,-7.16763759785038e+000,-4.06306214973954e-002

1.89211529345119e+004,-7.16763818497232e+000,-4.11977569885450e-002

1.91852823865052e+004,-7.16763878859554e+000,-4.17728074080350e-002

1.94530989482457e+004,-7.16763940918376e+000,-4.23558831589308e-002

1.97246540898671e+004,-7.16764004721379e+000,-4.29470961819694e-002

1.99999999999999e+004,-7.16764070317550e+000,-4.35465599783944e-002

2.02791895958005e+004,-7.16764137757294e+000,-4.41543896274111e-002

2.05622765331213e+004,-7.16764207092368e+000,-4.47707018150582e-002

2.08493152168224e+004,-7.16764278376054e+000,-4.53956148467920e-002

2.11403608112276e+004,-7.16764351663064e+000,-4.60292486797440e-002

2.14354692507258e+004,-7.16764427009702e+000,-4.66717249371836e-002

2.17346972505211e+004,-7.16764504473823e+000,-4.73231669376694e-002

2.20381023175322e+004,-7.16764584114949e+000,-4.79836997127545e-002

2.23457427614443e+004,-7.16764665994171e+000,-4.86534500417790e-002

2.26576777059159e+004,-7.16764750174438e+000,-4.93325464579456e-002

2.29739670999406e+004,-7.16764836720277e+000,-5.00211192963803e-002

2.32946717293690e+004,-7.16764925698229e+000,-5.07193006917031e-002

2.36198532285905e+004,-7.16765017176563e+000,-5.14272246263561e-002

2.39495740923785e+004,-7.16765111225555e+000,-5.21450269409373e-002

2.42838976879009e+004,-7.16765207917367e+000,-5.28728453710185e-002

2.46228882668982e+004,-7.16765307326260e+000,-5.36108195630181e-002

2.49666109780322e+004,-7.16765409528526e+000,-5.43590911092280e-002

2.53151318794055e+004,-7.16765514602588e+000,-5.51178035712782e-002

2.56685179512580e+004,-7.16765622629186e+000,-5.58871024992137e-002

2.60268371088386e+004,-7.16765733691155e+000,-5.66671354781965e-002

2.63901582154578e+004,-7.16765847873772e+000,-5.74580521369123e-002

2.67585510957221e+004,-7.16765965264665e+000,-5.82600041867093e-002

2.71320865489533e+004,-7.16766085953936e+000,-5.90731454465542e-002

2.75108363627948e+004,-7.16766210034206e+000,-5.98976318730719e-002

2.78948733270080e+004,-7.16766337600673e+000,-6.07336215915839e-002

2.82842712474618e+004,-7.16766468751229e+000,-6.15812749223822e-002

2.86791049603164e+004,-7.16766603586560e+000,-6.24407544094262e-002

2.90794503464061e+004,-7.16766742210060e+000,-6.33122248622254e-002

2.94853843458219e+004,-7.16766884728070e+000,-6.41958533752248e-002

2.98969849726987e+004,-7.16767031249962e+000,-6.50918093603913e-002

3.03143313302078e+004,-7.16767181888161e+000,-6.60002645821160e-002

3.07375036257601e+004,-7.16767336758168e+000,-6.69213931938500e-002

3.11665831864199e+004,-7.16767495978789e+000,-6.78553717617493e-002

3.16016524745350e+004,-7.16767659672177e+000,-6.88023793009455e-002

3.20427951035848e+004,-7.16767827963838e+000,-6.97625973148857e-002

3.24900958542493e+004,-7.16768000982835e+000,-7.07362098214053e-002

3.29436406907028e+004,-7.16768178861887e+000,-7.17234033888461e-002

3.34035167771346e+004,-7.16768361737313e+000,-7.27243671800130e-002

3.38698124945009e+004,-7.16768549749403e+000,-7.37392929697784e-002

3.43426174575100e+004,-7.16768743042285e+000,-7.47683751977163e-002

3.48220225318448e+004,-7.16768941764107e+000,-7.58118109992111e-002

3.53081198516260e+004,-7.16769146067187e+000,-7.68698002393158e-002

3.58010028371187e+004,-7.16769356108181e+000,-7.79425455471240e-002

3.63007662126863e+004,-7.16769572048038e+000,-7.90302523641505e-002

3.68075060249948e+004,-7.16769794052239e+000,-8.01331289748928e-002

3.73213196614721e+004,-7.16770022290901e+000,-8.12513865469353e-002

3.78423058690237e+004,-7.16770256938914e+000,-8.23852391695898e-002

3.83705647730104e+004,-7.16770498176052e+000,-8.35349038952149e-002

3.89061978964912e+004,-7.16770746187107e+000,-8.47006007796715e-002

3.94493081797342e+004,-7.16771001162083e+000,-8.58825529190913e-002

3.99999999999998e+004,-7.16771263296229e+000,-8.70809864989132e-002

4.05583791916010e+004,-7.16771532790334e+000,-8.82961308259037e-002

4.11245530662425e+004,-7.16771809850777e+000,-8.95282183771199e-002

4.16986304336447e+004,-7.16772094689629e+000,-9.07774848461431e-002

4.22807216224550e+004,-7.16772387525018e+000,-9.20441691732536e-002

4.28709385014515e+004,-7.16772688581092e+000,-9.33285136031585e-002

4.34693945010421e+004,-7.16772998088265e+000,-9.46307637232094e-002

4.40762046350642e+004,-7.16773316283439e+000,-9.59511685064125e-002

4.46914855228886e+004,-7.16773643410053e+000,-9.72899803653354e-002

4.53153554118317e+004,-7.16773979718421e+000,-9.86474551880132e-002

4.59479341998812e+004,-7.16774325465852e+000,-1.00023852388623e-001

4.65893434587380e+004,-7.16774680916736e+000,-1.01419434963540e-001

4.72397064571810e+004,-7.16775046342982e+000,-1.02834469521759e-001

4.78991481847569e+004,-7.16775422023995e+000,-1.04269226349264e-001

4.85677953758016e+004,-7.16775808247040e+000,-1.05723979448129e-001

4.92457765337964e+004,-7.16776205307312e+000,-1.07199006595652e-001

4.99332219560642e+004,-7.16776613508340e+000,-1.08694589382113e-001

5.06302637588109e+004,-7.16777033162035e+000,-1.10211013274334e-001

5.13370359025159e+004,-7.16777464589092e+000,-1.11748567655495e-001

5.20536742176771e+004,-7.16777908119053e+000,-1.13307545889502e-001

5.27803164309155e+004,-7.16778364090709e+000,-1.14888245362698e-001

5.35171021914442e+004,-7.16778832852249e+000,-1.16490967545013e-001

5.42641730979066e+004,-7.16779314761626e+000,-1.18116018036266e-001

5.50216727255895e+004,-7.16779810186683e+000,-1.19763706630748e-001

5.57897466540159e+004,-7.16780319505556e+000,-1.21434347363089e-001

5.65685424949235e+004,-7.16780843106872e+000,-1.23128258570442e-001

5.73582099206328e+004,-7.16781381390121e+000,-1.24845762943732e-001

5.81589006928121e+004,-7.16781934765828e+000,-1.26587187592022e-001

5.89707686916437e+004,-7.16782503656050e+000,-1.28352864089033e-001

5.97939699453972e+004,-7.16783088494463e+000,-1.30143128545589e-001

6.06286626604156e+004,-7.16783689726862e+000,-1.31958321657064e-001

6.14750072515201e+004,-7.16784307811394e+000,-1.33798788769926e-001

6.23331663728396e+004,-7.16784943218981e+000,-1.35664879936568e-001

6.32033049490698e+004,-7.16785596433557e+000,-1.37556949983532e-001

6.40855902071694e+004,-7.16786267952523e+000,-1.39475358566910e-001

6.49801917084985e+004,-7.16786958287076e+000,-1.41420470237633e-001

6.58872813814055e+004,-7.16787667962583e+000,-1.43392654503797e-001

6.68070335542691e+004,-7.16788397518998e+000,-1.45392285893240e-001

6.77396249890018e+004,-7.16789147511209e+000,-1.47419744020939e-001

6.86852349150199e+004,-7.16789918509490e+000,-1.49475413651091e-001

6.96440450636895e+004,-7.16790711099920e+000,-1.51559684762571e-001

7.06162397032520e+004,-7.16791525884788e+000,-1.53672952617566e-001

7.16020056742374e+004,-7.16792363483034e+000,-1.55815617827681e-001

7.26015324253724e+004,-7.16793224530714e+000,-1.57988086421218e-001

7.36150120499896e+004,-7.16794109681482e+000,-1.60190769910269e-001

7.46426393229441e+004,-7.16795019607055e+000,-1.62424085360563e-001

7.56846117380472e+004,-7.16795954997687e+000,-1.64688455461757e-001

7.67411295460207e+004,-7.16796916562649e+000,-1.66984308599095e-001

7.78123957929823e+004,-7.16797905030842e+000,-1.69312078918146e-001

7.88986163594682e+004,-7.16798921151231e+000,-1.71672206402195e-001

7.99999999999995e+004,-7.16799965693425e+000,-1.74065136941846e-001

8.11167583832018e+004,-7.16801039448167e+000,-1.76491322411998e-001

8.22491061324848e+004,-7.16802143228080e+000,-1.78951220734251e-001

8.33972608672892e+004,-7.16803277868055e+000,-1.81445295962522e-001

8.45614432449099e+004,-7.16804444225934e+000,-1.83974018353625e-001

8.57418770029029e+004,-7.16805643183161e+000,-1.86537864438772e-001

8.69387890020841e+004,-7.16806875645367e+000,-1.89137317102896e-001

8.81524092701283e+004,-7.16808142542998e+000,-1.91772865662196e-001

8.93829710457770e+004,-7.16809444832068e+000,-1.94445005934561e-001

9.06307108236633e+004,-7.16810783494742e+000,-1.97154240323660e-001

9.18958683997622e+004,-7.16812159540042e+000,-1.99901077896255e-001

9.31786869174758e+004,-7.16813574004643e+000,-2.02686034454515e-001

9.44794129143618e+004,-7.16815027953551e+000,-2.05509632619708e-001

9.57982963695136e+004,-7.16816522480845e+000,-2.08372401910793e-001

9.71355907516031e+004,-7.16818058710438e+000,-2.11274878825512e-001

9.84915530675926e+004,-7.16819637796912e+000,-2.14217606917052e-001

9.98664439121282e+004,-7.16821260926310e+000,-2.17201136876243e-001

1.01260527517622e+005,-7.16822929316941e+000,-2.20226026613604e-001

1.02674071805032e+005,-7.16824644220223e+000,-2.23292841341090e-001

1.04107348435354e+005,-7.16826406921599e+000,-2.26402153650780e-001

1.05560632861831e+005,-7.16828218741378e+000,-2.29554543599979e-001

1.07034204382888e+005,-7.16830081035656e+000,-2.32750598792908e-001

1.08528346195813e+005,-7.16831995197295e+000,-2.35990914460104e-001

1.10043345451179e+005,-7.16833962656788e+000,-2.39276093547483e-001

1.11579493308032e+005,-7.16835984883289e+000,-2.42606746795054e-001

1.13137084989847e+005,-7.16838063385654e+000,-2.45983492818271e-001

1.14716419841265e+005,-7.16840199713361e+000,-2.49406958197255e-001

1.16317801385624e+005,-7.16842395457647e+000,-2.52877777555444e-001

1.17941537383287e+005,-7.16844652252547e+000,-2.56396593643564e-001

1.19587939890794e+005,-7.16846971775942e+000,-2.59964057427219e-001

1.21257325320831e+005,-7.16849355750759e+000,-2.63580828164797e-001

1.22950014503040e+005,-7.16851805946074e+000,-2.67247573493584e-001

1.24666332745679e+005,-7.16854324178273e+000,-2.70964969513584e-001

1.26406609898139e+005,-7.16856912312263e+000,-2.74733700868982e-001

1.28171180414339e+005,-7.16859572262692e+000,-2.78554460831966e-001

1.29960383416997e+005,-7.16862305995182e+000,-2.82427951386062e-001

1.31774562762811e+005,-7.16865115527661e+000,-2.86354883304522e-001

1.33614067108538e+005,-7.16868002931550e+000,-2.90335976238754e-001

1.35479249978003e+005,-7.16870970333238e+000,-2.94371958791983e-001

1.37370469830040e+005,-7.16874019915331e+000,-2.98463568605405e-001

1.39288090127379e+005,-7.16877153918059e+000,-3.02611552437949e-001

1.41232479406504e+005,-7.16880374640722e+000,-3.06816666242915e-001

1.43204011348474e+005,-7.16883684443110e+000,-3.11079675249123e-001

1.45203064850745e+005,-7.16887085746980e+000,-3.15401354037289e-001

1.47230024099979e+005,-7.16890581037540e+000,-3.19782486618631e-001

1.49285278645888e+005,-7.16894172865000e+000,-3.24223866509326e-001

1.51369223476094e+005,-7.16897863846105e+000,-3.28726296807250e-001

1.53482259092041e+005,-7.16901656665744e+000,-3.33290590263402e-001

1.55624791585964e+005,-7.16905554078556e+000,-3.37917569355673e-001

1.57797232718936e+005,-7.16909558910574e+000,-3.42608066359801e-001

1.59999999999999e+005,-7.16913674060874e+000,-3.47362923420627e-001

1.62233516766403e+005,-7.16917902503334e+000,-3.52182992616051e-001

1.64498212264969e+005,-7.16922247288332e+000,-3.57069136026625e-001

1.66794521734578e+005,-7.16926711544486e+000,-3.62022225799605e-001

1.69122886489819e+005,-7.16931298480484e+000,-3.67043144210801e-001

1.71483754005805e+005,-7.16936011386852e+000,-3.72132783727014e-001

1.73877578004168e+005,-7.16940853637871e+000,-3.77292047060416e-001

1.76304818540256e+005,-7.16945828693366e+000,-3.82521847229141e-001

1.78765942091554e+005,-7.16950940100656e+000,-3.87823107609463e-001

1.81261421647326e+005,-7.16956191496480e+000,-3.93196761984070e-001

1.83791736799524e+005,-7.16961586608920e+000,-3.98643754595282e-001

1.86357373834951e+005,-7.16967129259374e+000,-4.04165040188631e-001

1.88958825828723e+005,-7.16972823364615e+000,-4.09761584051714e-001

1.91596592739027e+005,-7.16978672938740e+000,-4.15434362059791e-001

1.94271181503206e+005,-7.16984682095231e+000,-4.21184360708806e-001

1.96983106135185e+005,-7.16990855049073e+000,-4.27012577145804e-001

1.99732887824256e+005,-7.16997196118781e+000,-4.32920019201897e-001

2.02521055035243e+005,-7.17003709728515e+000,-4.38907705414781e-001

2.05348143610063e+005,-7.17010400410232e+000,-4.44976665050025e-001

2.08214696870707e+005,-7.17017272805771e+000,-4.51127938119411e-001

2.11121265723661e+005,-7.17024331669053e+000,-4.57362575391360e-001

2.14068408765776e+005,-7.17031581868199e+000,-4.63681638400897e-001

2.17056692391625e+005,-7.17039028387742e+000,-4.70086199450515e-001

2.20086690902357e+005,-7.17046676330775e+000,-4.76577341609803e-001

2.23158986616063e+005,-7.17054530921117e+000,-4.83156158710853e-001

2.26274169979693e+005,-7.17062597505547e+000,-4.89823755331003e-001

2.29432839682530e+005,-7.17070881555962e+000,-4.96581246778392e-001

2.32635602771247e+005,-7.17079388671532e+000,-5.03429759068838e-001

2.35883074766574e+005,-7.17088124580931e+000,-5.10370428893354e-001

2.39175879781588e+005,-7.17097095144433e+000,-5.17404403586306e-001

2.42514650641661e+005,-7.17106306356109e+000,-5.24532841080862e-001

2.45900029006080e+005,-7.17115764345958e+000,-5.31756909859454e-001

2.49332665491357e+005,-7.17125475381995e+000,-5.39077788900740e-001

2.52813219796278e+005,-7.17135445872330e+000,-5.46496667616958e-001

2.56342360828676e+005,-7.17145682367260e+000,-5.54014745781110e-001

2.59920766833993e+005,-7.17156191561235e+000,-5.61633233453862e-001

2.63549125525621e+005,-7.17166980294877e+000,-5.69353350895161e-001

2.67228134217075e+005,-7.17178055556892e+000,-5.77176328473574e-001

2.70958499956006e+005,-7.17189424485945e+000,-5.85103406564525e-001

2.74740939660078e+005,-7.17201094372485e+000,-5.93135835441323e-001

2.78576180254757e+005,-7.17213072660505e+000,-6.01274875157102e-001

2.82464958813007e+005,-7.17225366949199e+000,-6.09521795419758e-001

2.86408022696948e+005,-7.17237984994598e+000,-6.17877875455639e-001

2.90406129701488e+005,-7.17250934711066e+000,-6.26344403865166e-001

2.94460048199957e+005,-7.17264224172743e+000,-6.34922678469356e-001

2.98570557291775e+005,-7.17277861614838e+000,-6.43614006148657e-001

3.02738446952187e+005,-7.17291855434852e+000,-6.52419702668633e-001

3.06964518184081e+005,-7.17306214193693e+000,-6.61341092497549e-001

3.11249583171928e+005,-7.17320946616575e+000,-6.70379508617897e-001

3.15594465437872e+005,-7.17336061593887e+000,-6.79536292321509e-001

3.19999999999997e+005,-7.17351568181857e+000,-6.88812792998445e-001

3.24467033532806e+005,-7.17367475603017e+000,-6.98210367917718e-001

3.28996424529938e+005,-7.17383793246613e+000,-7.07730381991950e-001

3.33589043469155e+005,-7.17400530668663e+000,-7.17374207540093e-001

3.38245772979638e+005,-7.17417697592020e+000,-7.27143224030269e-001

3.42967508011610e+005,-7.17435303906006e+000,-7.37038817823815e-001

3.47755156008335e+005,-7.17453359666027e+000,-7.47062381898878e-001

3.52609637080511e+005,-7.17471875092814e+000,-7.57215315571106e-001

3.57531884183106e+005,-7.17490860571495e+000,-7.67499024200859e-001

3.62522843294651e+005,-7.17510326650326e+000,-7.77914918894293e-001

3.67583473599047e+005,-7.17530284039258e+000,-7.88464416189963e-001

3.72714747669902e+005,-7.17550743608063e+000,-7.99148937743194e-001

3.77917651657445e+005,-7.17571716384312e+000,-8.09969909993660e-001

3.83193185478053e+005,-7.17593213550871e+000,-8.20928763833401e-001

3.88542363006410e+005,-7.17615246443192e+000,-8.32026934257101e-001

3.93966212270369e+005,-7.17637826546131e+000,-8.43265860014225e-001

3.99465775648511e+005,-7.17660965490490e+000,-8.54646983246774e-001

4.05042110070485e+005,-7.17684675049085e+000,-8.66171749124847e-001

4.10696287220124e+005,-7.17708967132455e+000,-8.77841605474556e-001

4.16429393741414e+005,-7.17733853784112e+000,-8.89658002401082e-001

4.22242531447321e+005,-7.17759347175348e+000,-9.01622391908754e-001

4.28136817531551e+005,-7.17785459599625e+000,-9.13736227513227e-001

4.34113384783250e+005,-7.17812203466384e+000,-9.26000963858451e-001

4.40173381804713e+005,-7.17839591294440e+000,-9.38418056325379e-001

4.46317973232124e+005,-7.17867635704803e+000,-9.50988960643944e-001

4.52548339959385e+005,-7.17896349412996e+000,-9.63715132504036e-001

4.58865679365059e+005,-7.17925745220794e+000,-9.76598027169659e-001

4.65271205542494e+005,-7.17955836007339e+000,-9.89639099097931e-001

4.71766149533147e+005,-7.17986634719777e+000,-1.00283980155870e+000

4.78351759563174e+005,-7.18018154363176e+000,-1.01620158626450e+000

4.85029301283321e+005,-7.18050407989852e+000,-1.02972590300869e+000

4.91800058012158e+005,-7.18083408688046e+000,-1.04341419931135e+000

4.98665330982714e+005,-7.18117169569938e+000,-1.05726792007975e+000

5.05626439592555e+005,-7.18151703758988e+000,-1.07128850728039e+000

5.12684721657352e+005,-7.18187024376569e+000,-1.08547739962933e+000

5.19841533667984e+005,-7.18223144527924e+000,-1.09983603229847e+000

5.27098251051240e+005,-7.18260077287344e+000,-1.11436583664611e+000

5.34456268434150e+005,-7.18297835682689e+000,-1.12906823996715e+000

5.41916999912011e+005,-7.18336432679122e+000,-1.14394466527155e+000

