Freq.,VOut,OutRef

1.00000000000000e+004,-6.19385969199863e+000,-5.51958641171230e-002

1.01395947979003e+004,-6.19385970603224e+000,-5.59663679676242e-002

1.02811382665607e+004,-6.19385972046055e+000,-5.67476275770083e-002

1.04246576084112e+004,-6.19385973529423e+000,-5.75397930898286e-002

1.05701804056138e+004,-6.19385975054505e+000,-5.83430167413500e-002

1.07177346253629e+004,-6.19385976622434e+000,-5.91574528964699e-002

1.08673486252606e+004,-6.19385978234426e+000,-5.99832580717080e-002

1.10190511587661e+004,-6.19385979891741e+000,-6.08205909674847e-002

1.11728713807222e+004,-6.19385981595640e+000,-6.16696125022154e-002

1.13288388529580e+004,-6.19385983347391e+000,-6.25304858415786e-002

1.14869835499703e+004,-6.19385985148402e+000,-6.34033764223302e-002

1.16473358646846e+004,-6.19385987000042e+000,-6.42884519959496e-002

1.18099266142953e+004,-6.19385988903716e+000,-6.51858826548125e-002

1.19747870461893e+004,-6.19385990860867e+000,-6.60958408664716e-002

1.21419488439505e+004,-6.19385992873051e+000,-6.70185015006487e-002

1.23114441334492e+004,-6.19385994941764e+000,-6.79540418745405e-002

1.24833054890161e+004,-6.19385997068624e+000,-6.89026417757863e-002

1.26575659397028e+004,-6.19385999255253e+000,-6.98644835033295e-002

1.28342589756290e+004,-6.19386001503358e+000,-7.08397518990607e-002

1.30134185544193e+004,-6.19386003814614e+000,-7.18286343894729e-002

1.31950791077289e+004,-6.19386006190816e+000,-7.28313210128348e-002

1.33792755478611e+004,-6.19386008633802e+000,-7.38480044601796e-002

1.35660432744767e+004,-6.19386011145425e+000,-7.48788801146325e-002

1.37554181813974e+004,-6.19386013727676e+000,-7.59241460809180e-002

1.39474366635040e+004,-6.19386016382452e+000,-7.69840032386866e-002

1.41421356237309e+004,-6.19386019111830e+000,-7.80586552628970e-002

1.43395524801583e+004,-6.19386021917917e+000,-7.91483086736258e-002

1.45397251732031e+004,-6.19386024802836e+000,-8.02531728762462e-002

1.47426921729110e+004,-6.19386027768838e+000,-8.13734601941992e-002

1.49484924863494e+004,-6.19386030818174e+000,-8.25093859187422e-002

1.51571656651040e+004,-6.19386033953201e+000,-8.36611683438539e-002

1.53687518128801e+004,-6.19386037176287e+000,-8.48290288130720e-002

1.55832915932100e+004,-6.19386040489961e+000,-8.60131917540457e-002

1.58008262372675e+004,-6.19386043896742e+000,-8.72138847310726e-002

1.60213975517924e+004,-6.19386047399243e+000,-8.84313384843839e-002

1.62450479271247e+004,-6.19386051000141e+000,-8.96657869746546e-002

1.64718203453514e+004,-6.19386054702208e+000,-9.09174674268215e-002

1.67017583885674e+004,-6.19386058508298e+000,-9.21866203769252e-002

1.69349062472505e+004,-6.19386062421298e+000,-9.34734897206963e-002

1.71713087287550e+004,-6.19386066444244e+000,-9.47783227535983e-002

1.74110112659224e+004,-6.19386070580229e+000,-9.61013702252462e-002

1.76540599258131e+004,-6.19386074832376e+000,-9.74428863877393e-002

1.79005014185594e+004,-6.19386079204006e+000,-9.88031290351582e-002

1.81503831063432e+004,-6.19386083698428e+000,-1.00182359566116e-001

1.84037530124975e+004,-6.19386088319091e+000,-1.01580843024602e-001

1.86606598307361e+004,-6.19386093069570e+000,-1.02998848151954e-001

1.89211529345119e+004,-6.19386097953496e+000,-1.04436647442963e-001

1.91852823865052e+004,-6.19386102974596e+000,-1.05894517195897e-001

1.94530989482457e+004,-6.19386108136729e+000,-1.07372737563316e-001

1.97246540898671e+004,-6.19386113443864e+000,-1.08871592607996e-001

1.99999999999999e+004,-6.19386118900065e+000,-1.10391370357829e-001

2.02791895958005e+004,-6.19386124509511e+000,-1.11932362860526e-001

2.05622765331213e+004,-6.19386130276507e+000,-1.13494866239435e-001

2.08493152168224e+004,-6.19386136205456e+000,-1.15079180751271e-001

2.11403608112276e+004,-6.19386142300927e+000,-1.16685610841654e-001

2.14354692507258e+004,-6.19386148567568e+000,-1.18314465206863e-001

2.17346972505211e+004,-6.19386155010195e+000,-1.19966056849454e-001

2.20381023175322e+004,-6.19386161633747e+000,-1.21640703141159e-001

2.23457427614443e+004,-6.19386168443304e+000,-1.23338725882292e-001

2.26576777059159e+004,-6.19386175444062e+000,-1.25060451365829e-001

2.29739670999406e+004,-6.19386182641386e+000,-1.26806210436658e-001

2.32946717293690e+004,-6.19386190040811e+000,-1.28576338555330e-001

2.36198532285905e+004,-6.19386197647968e+000,-1.30371175868152e-001

2.39495740923785e+004,-6.19386205468731e+000,-1.32191067262348e-001

2.42838976879009e+004,-6.19386213509033e+000,-1.34036362444112e-001

2.46228882668982e+004,-6.19386221775073e+000,-1.35907415994512e-001

2.49666109780322e+004,-6.19386230273159e+000,-1.37804587446057e-001

2.53151318794055e+004,-6.19386239009784e+000,-1.39728241347675e-001

2.56685179512580e+004,-6.19386247991663e+000,-1.41678747333237e-001

2.60268371088386e+004,-6.19386257225642e+000,-1.43656480197910e-001

2.63901582154578e+004,-6.19386266718811e+000,-1.45661819963506e-001

2.67585510957221e+004,-6.19386276478412e+000,-1.47695151957486e-001

2.71320865489533e+004,-6.19386286511924e+000,-1.49756866881768e-001

2.75108363627948e+004,-6.19386296827018e+000,-1.51847360891269e-001

2.78948733270080e+004,-6.19386307431555e+000,-1.53967035670145e-001

2.82842712474618e+004,-6.19386318333687e+000,-1.56116298502858e-001

2.86791049603164e+004,-6.19386329541722e+000,-1.58295562361013e-001

2.90794503464061e+004,-6.19386341064221e+000,-1.60505245977230e-001

2.94853843458219e+004,-6.19386352909997e+000,-1.62745773925722e-001

2.98969849726987e+004,-6.19386365088112e+000,-1.65017576704527e-001

3.03143313302078e+004,-6.19386377607863e+000,-1.67321090819081e-001

3.07375036257601e+004,-6.19386390478790e+000,-1.69656758866044e-001

3.11665831864199e+004,-6.19386403710752e+000,-1.72025029613948e-001

3.16016524745350e+004,-6.19386417313842e+000,-1.74426358094862e-001

3.20427951035848e+004,-6.19386431298437e+000,-1.76861205689058e-001

3.24900958542493e+004,-6.19386445675216e+000,-1.79330040213078e-001

3.29436406907028e+004,-6.19386460455154e+000,-1.81833336009895e-001

3.34035167771346e+004,-6.19386475649508e+000,-1.84371574041503e-001

3.38698124945009e+004,-6.19386491269891e+000,-1.86945241976456e-001

3.43426174575100e+004,-6.19386507328198e+000,-1.89554834289913e-001

3.48220225318448e+004,-6.19386523836675e+000,-1.92200852353268e-001

3.53081198516260e+004,-6.19386540807908e+000,-1.94883804531602e-001

3.58010028371187e+004,-6.19386558254822e+000,-1.97604206282856e-001

3.63007662126863e+004,-6.19386576190708e+000,-2.00362580254418e-001

3.68075060249948e+004,-6.19386594629238e+000,-2.03159456383375e-001

3.73213196614721e+004,-6.19386613584446e+000,-2.05995371999806e-001

3.78423058690237e+004,-6.19386633070752e+000,-2.08870871928878e-001

3.83705647730104e+004,-6.19386653103000e+000,-2.11786508593947e-001

3.89061978964912e+004,-6.19386673696413e+000,-2.14742842124898e-001

3.94493081797342e+004,-6.19386694866670e+000,-2.17740440462140e-001

3.99999999999998e+004,-6.19386716629849e+000,-2.20779879469467e-001

4.05583791916010e+004,-6.19386739002513e+000,-2.23861743039426e-001

4.11245530662425e+004,-6.19386762001650e+000,-2.26986623210259e-001

4.16986304336447e+004,-6.19386785644718e+000,-2.30155120276362e-001

4.22807216224550e+004,-6.19386809949690e+000,-2.33367842901651e-001

4.28709385014515e+004,-6.19386834934998e+000,-2.36625408240827e-001

4.34693945010421e+004,-6.19386860619632e+000,-2.39928442051466e-001

4.40762046350642e+004,-6.19386887023027e+000,-2.43277578821787e-001

4.46914855228886e+004,-6.19386914165237e+000,-2.46673461882322e-001

4.53153554118317e+004,-6.19386942066822e+000,-2.50116743536934e-001

4.59479341998812e+004,-6.19386970748925e+000,-2.53608085183709e-001

4.65893434587380e+004,-6.19387000233253e+000,-2.57148157443645e-001

4.72397064571810e+004,-6.19387030542139e+000,-2.60737640285798e-001

4.78991481847569e+004,-6.19387061698514e+000,-2.64377223160178e-001

4.85677953758016e+004,-6.19387093725947e+000,-2.68067605128630e-001

4.92457765337964e+004,-6.19387126648635e+000,-2.71809494999159e-001

4.99332219560642e+004,-6.19387160491465e+000,-2.75603611459433e-001

5.06302637588109e+004,-6.19387195279979e+000,-2.79450683217085e-001

5.13370359025159e+004,-6.19387231040452e+000,-2.83351449135773e-001

5.20536742176771e+004,-6.19387267799871e+000,-2.87306658377480e-001

5.27803164309155e+004,-6.19387305585928e+000,-2.91317070548975e-001

5.35171021914442e+004,-6.19387344427122e+000,-2.95383455840736e-001

5.42641730979066e+004,-6.19387384352696e+000,-2.99506595179447e-001

5.50216727255895e+004,-6.19387425392705e+000,-3.03687280373767e-001

5.57897466540159e+004,-6.19387467578034e+000,-3.07926314266869e-001

5.65685424949235e+004,-6.19387510940386e+000,-3.12224510890145e-001

5.73582099206328e+004,-6.19387555512358e+000,-3.16582695616609e-001

5.81589006928121e+004,-6.19387601327396e+000,-3.21001705321564e-001

5.89707686916437e+004,-6.19387648419897e+000,-3.25482388538030e-001

5.97939699453972e+004,-6.19387696825158e+000,-3.30025605622996e-001

6.06286626604156e+004,-6.19387746579467e+000,-3.34632228917151e-001

6.14750072515201e+004,-6.19387797720059e+000,-3.39303142915934e-001

6.23331663728396e+004,-6.19387850285214e+000,-3.44039244432631e-001

6.32033049490698e+004,-6.19387904314211e+000,-3.48841442775097e-001

6.40855902071694e+004,-6.19387959847437e+000,-3.53710659913013e-001

6.49801917084985e+004,-6.19388016926319e+000,-3.58647830659398e-001

6.58872813814055e+004,-6.19388075593440e+000,-3.63653902843438e-001

6.68070335542691e+004,-6.19388135892510e+000,-3.68729837494511e-001

6.77396249890018e+004,-6.19388197868419e+000,-3.73876609023266e-001

6.86852349150199e+004,-6.19388261567260e+000,-3.79095205407713e-001

6.96440450636895e+004,-6.19388327036373e+000,-3.84386628380546e-001

7.06162397032520e+004,-6.19388394324358e+000,-3.89751893620076e-001

7.16020056742374e+004,-6.19388463481113e+000,-3.95192030943764e-001

7.26015324253724e+004,-6.19388534557853e+000,-4.00708084503975e-001

7.36150120499896e+004,-6.19388607607214e+000,-4.06301112982484e-001

7.46426393229441e+004,-6.19388682683175e+000,-4.11972189798704e-001

7.56846117380472e+004,-6.19388759841167e+000,-4.17722403307962e-001

7.67411295460207e+004,-6.19388839138117e+000,-4.23552857008727e-001

7.78123957929823e+004,-6.19388920632426e+000,-4.29464669754640e-001

7.88986163594682e+004,-6.19389004384052e+000,-4.35458975964247e-001

7.99999999999995e+004,-6.19389090454531e+000,-4.41536925837292e-001

8.11167583832018e+004,-6.19389178907047e+000,-4.47699685570577e-001

8.22491061324848e+004,-6.19389269806418e+000,-4.53948437582039e-001

8.33972608672892e+004,-6.19389363219155e+000,-4.60284380734060e-001

8.45614432449099e+004,-6.19389459213540e+000,-4.66708730556912e-001

8.57418770029029e+004,-6.19389557859618e+000,-4.73222719483840e-001

8.69387890020841e+004,-6.19389659229272e+000,-4.79827597079877e-001

8.81524092701283e+004,-6.19389763396234e+000,-4.86524630281651e-001

8.93829710457770e+004,-6.19389870436177e+000,-4.93315103633767e-001

9.06307108236633e+004,-6.19389980426706e+000,-5.00200319533776e-001

9.18958683997622e+004,-6.19390093447459e+000,-5.07181598475034e-001

9.31786869174758e+004,-6.19390209580098e+000,-5.14260279300080e-001

9.44794129143618e+004,-6.19390328908397e+000,-5.21437719449898e-001

9.57982963695136e+004,-6.19390451518267e+000,-5.28715295221302e-001

9.71355907516031e+004,-6.19390577497806e+000,-5.36094402025897e-001

9.84915530675926e+004,-6.19390706937371e+000,-5.43576454652162e-001

9.98664439121282e+004,-6.19390839929610e+000,-5.51162887532399e-001

1.01260527517622e+005,-6.19390976569496e+000,-5.58855155013710e-001

1.02674071805032e+005,-6.19391116954405e+000,-5.66654731629305e-001

1.04107348435354e+005,-6.19391261184158e+000,-5.74563112376862e-001

1.05560632861831e+005,-6.19391409361094e+000,-5.82581812997726e-001

1.07034204382888e+005,-6.19391561590065e+000,-5.90712370264413e-001

1.08528346195813e+005,-6.19391717978555e+000,-5.98956342265965e-001

1.10043345451179e+005,-6.19391878636693e+000,-6.07315308701023e-001

1.11579493308032e+005,-6.19392043677331e+000,-6.15790871173282e-001

1.13137084989847e+005,-6.19392213216083e+000,-6.24384653491908e-001

1.14716419841265e+005,-6.19392387371376e+000,-6.33098301975567e-001

1.16317801385624e+005,-6.19392566264529e+000,-6.41933485758158e-001

1.17941537383287e+005,-6.19392750019787e+000,-6.50891897102881e-001

1.19587939890794e+005,-6.19392938764379e+000,-6.59975251717006e-001

1.21257325320831e+005,-6.19393132628597e+000,-6.69185289070970e-001

1.22950014503040e+005,-6.19393331745813e+000,-6.78523772724198e-001

1.24666332745679e+005,-6.19393536252556e+000,-6.87992490653070e-001

1.26406609898139e+005,-6.19393746288592e+000,-6.97593255581128e-001

1.28171180414339e+005,-6.19393961996915e+000,-7.07327905320686e-001

1.29960383416997e+005,-6.19394183523878e+000,-7.17198303108789e-001

1.31774562762811e+005,-6.19394411019195e+000,-7.27206337956669e-001

1.33614067108538e+005,-6.19394644635996e+000,-7.37353924999642e-001

1.35479249978003e+005,-6.19394884530917e+000,-7.47643005849252e-001

1.37370469830040e+005,-6.19395130864117e+000,-7.58075548955096e-001

1.39288090127379e+005,-6.19395383799349e+000,-7.68653549967432e-001

1.41232479406504e+005,-6.19395643504006e+000,-7.79379032105426e-001

1.43204011348474e+005,-6.19395910149153e+000,-7.90254046531728e-001

1.45203064850745e+005,-6.19396183909586e+000,-8.01280672730196e-001

1.47230024099979e+005,-6.19396464963900e+000,-8.12461018885902e-001

1.49285278645888e+005,-6.19396753494497e+000,-8.23797222276913e-001

1.51369223476094e+005,-6.19397049687631e+000,-8.35291449664340e-001

1.53482259092041e+005,-6.19397353733469e+000,-8.46945897690182e-001

1.55624791585964e+005,-6.19397665826121e+000,-8.58762793280107e-001

1.57797232718936e+005,-6.19397986163637e+000,-8.70744394051759e-001

1.59999999999999e+005,-6.19398314948100e+000,-8.82892988725143e-001

1.62233516766403e+005,-6.19398652385598e+000,-8.95210897543240e-001

1.64498212264969e+005,-6.19398998686267e+000,-9.07700472693734e-001

1.66794521734578e+005,-6.19399354064309e+000,-9.20364098737314e-001

1.69122886489819e+005,-6.19399718738001e+000,-9.33204193041989e-001

1.71483754005805e+005,-6.19400092929714e+000,-9.46223206220772e-001

1.73877578004168e+005,-6.19400476865884e+000,-9.59423622578642e-001

1.76304818540256e+005,-6.19400870777056e+000,-9.72807960559379e-001

1.78765942091554e+005,-6.19401274897843e+000,-9.86378773203513e-001

1.81261421647326e+005,-6.19401689466894e+000,-1.00013864860906e+000

1.83791736799524e+005,-6.19402114726910e+000,-1.01409021039716e+000

1.86357373834951e+005,-6.19402550924585e+000,-1.02823611818521e+000

1.88958825828723e+005,-6.19402998310580e+000,-1.04257906806487e+000

1.91596592739027e+005,-6.19403457139444e+000,-1.05712179308650e+000

1.94271181503206e+005,-6.19403927669597e+000,-1.07186706374818e+000

1.96983106135185e+005,-6.19404410163212e+000,-1.08681768849291e+000

1.99732887824256e+005,-6.19404904886164e+000,-1.10197651420885e+000

2.02521055035243e+005,-6.19405412107938e+000,-1.11734642673706e+000

2.05348143610063e+005,-6.19405932101496e+000,-1.13293035138638e+000

2.08214696870707e+005,-6.19406465143177e+000,-1.14873125345326e+000

2.11121265723661e+005,-6.19407011512536e+000,-1.16475213874758e+000

2.14068408765776e+005,-6.19407571492227e+000,-1.18099605412461e+000

2.17056692391625e+005,-6.19408145367798e+000,-1.19746608802520e+000

2.20086690902357e+005,-6.19408733427534e+000,-1.21416537101893e+000

2.23158986616063e+005,-6.19409335962211e+000,-1.23109707635840e+000

2.26274169979693e+005,-6.19409953264917e+000,-1.24826442053410e+000

2.29432839682530e+005,-6.19410585630761e+000,-1.26567066384196e+000

2.32635602771247e+005,-6.19411233356640e+000,-1.28331911095191e+000

2.35883074766574e+005,-6.19411896740898e+000,-1.30121311148881e+000

2.39175879781588e+005,-6.19412576083033e+000,-1.31935606061487e+000

2.42514650641661e+005,-6.19413271683355e+000,-1.33775139962189e+000

2.45900029006080e+005,-6.19413983842574e+000,-1.35640261653019e+000

2.49332665491357e+005,-6.19414712861439e+000,-1.37531324669240e+000

2.52813219796278e+005,-6.19415459040232e+000,-1.39448687340892e+000

2.56342360828676e+005,-6.19416222678360e+000,-1.41392712854374e+000

2.59920766833993e+005,-6.19417004073785e+000,-1.43363769315438e+000

2.63549125525621e+005,-6.19417803522513e+000,-1.45362229812410e+000

2.67228134217075e+005,-6.19418621317980e+000,-1.47388472480357e+000

2.70958499956006e+005,-6.19419457750420e+000,-1.49442880566012e+000

2.74740939660078e+005,-6.19420313106196e+000,-1.51525842493363e+000

2.78576180254757e+005,-6.19421187667056e+000,-1.53637751930078e+000

2.82464958813007e+005,-6.19422081709372e+000,-1.55779007854634e+000

2.86408022696948e+005,-6.19422995503286e+000,-1.57950014624352e+000

2.90406129701488e+005,-6.19423929311859e+000,-1.60151182043982e+000

2.94460048199957e+005,-6.19424883390079e+000,-1.62382925435389e+000

2.98570557291775e+005,-6.19425857983903e+000,-1.64645665707824e+000

3.02738446952187e+005,-6.19426853329139e+000,-1.66939829429188e+000

3.06964518184081e+005,-6.19427869650336e+000,-1.69265848897978e+000

3.11249583171928e+005,-6.19428907159569e+000,-1.71624162216155e+000

3.15594465437872e+005,-6.19429966055134e+000,-1.74015213362934e+000

3.19999999999997e+005,-6.19431046520197e+000,-1.76439452269389e+000

3.24467033532806e+005,-6.19432148721349e+000,-1.78897334893882e+000

3.28996424529938e+005,-6.19433272807043e+000,-1.81389323298673e+000

3.33589043469155e+005,-6.19434418906018e+000,-1.83915885727002e+000

3.38245772979638e+005,-6.19435587125516e+000,-1.86477496681683e+000

3.42967508011610e+005,-6.19436777549504e+000,-1.89074637004132e+000

3.47755156008335e+005,-6.19437990236746e+000,-1.91707793954684e+000

3.52609637080511e+005,-6.19439225218735e+000,-1.94377461293928e+000

3.57531884183106e+005,-6.19440482497589e+000,-1.97084139364848e+000

3.62522843294651e+005,-6.19441762043759e+000,-1.99828335176239e+000

3.67583473599047e+005,-6.19443063793631e+000,-2.02610562487148e+000

3.72714747669902e+005,-6.19444387647037e+000,-2.05431341892276e+000

3.77917651657445e+005,-6.19445733464562e+000,-2.08291200908708e+000

3.83193185478053e+005,-6.19447101064793e+000,-2.11190674063636e+000

3.88542363006410e+005,-6.19448490221326e+000,-2.14130302983465e+000

3.93966212270369e+005,-6.19449900659718e+000,-2.17110636483887e+000

3.99465775648511e+005,-6.19451332054212e+000,-2.20132230661471e+000

4.05042110070485e+005,-6.19452784024331e+000,-2.23195648986373e+000

4.10696287220124e+005,-6.19454256131288e+000,-2.26301462396406e+000

4.16429393741414e+005,-6.19455747874217e+000,-2.29450249392649e+000

4.22242531447321e+005,-6.19457258686236e+000,-2.32642596136196e+000

4.28136817531551e+005,-6.19458787930326e+000,-2.35879096546490e+000

4.34113384783250e+005,-6.19460334894953e+000,-2.39160352401381e+000

4.40173381804713e+005,-6.19461898789577e+000,-2.42486973438355e+000

4.46317973232124e+005,-6.19463478739884e+000,-2.45859577457665e+000

4.52548339959385e+005,-6.19465073782824e+000,-2.49278790427035e+000

4.58865679365059e+005,-6.19466682861415e+000,-2.52745246588061e+000

4.65271205542494e+005,-6.19468304819351e+000,-2.56259588564435e+000

4.71766149533147e+005,-6.19469938395301e+000,-2.59822467472101e+000

4.78351759563174e+005,-6.19471582217052e+000,-2.63434543031100e+000

4.85029301283321e+005,-6.19473234795319e+000,-2.67096483679695e+000

4.91800058012158e+005,-6.19474894517355e+000,-2.70808966690324e+000

4.98665330982714e+005,-6.19476559640244e+000,-2.74572678287891e+000

5.05626439592555e+005,-6.19478228283978e+000,-2.78388313770082e+000

5.12684721657352e+005,-6.19479898424213e+000,-2.82256577630100e+000

5.19841533667984e+005,-6.19481567884745e+000,-2.86178183681857e+000

5.27098251051240e+005,-6.19483234329718e+000,-2.90153855187458e+000

5.34456268434150e+005,-6.19484895255512e+000,-2.94184324987403e+000

5.41916999912011e+005,-6.19486547982325e+000,-2.98270335633524e+000

