Freq.,VOut,OutRef

1.00000000000000e+004,-2.02110229433483e+000,-7.09324317632623e-002

1.01395947979003e+004,-2.02110226875891e+000,-7.19226116924320e-002

1.02811382665607e+004,-2.02110224246403e+000,-7.29266140211431e-002

1.04246576084112e+004,-2.02110221542975e+000,-7.39446317044929e-002

1.05701804056138e+004,-2.02110218763553e+000,-7.49768603883694e-002

1.07177346253629e+004,-2.02110215905995e+000,-7.60234984513416e-002

1.08673486252606e+004,-2.02110212968109e+000,-7.70847470406909e-002

1.10190511587661e+004,-2.02110209947598e+000,-7.81608101143773e-002

1.11728713807222e+004,-2.02110206842206e+000,-7.92518944708519e-002

1.13288388529580e+004,-2.02110203649476e+000,-8.03582098041259e-002

1.14869835499703e+004,-2.02110200367000e+000,-8.14799687278069e-002

1.16473358646846e+004,-2.02110196992244e+000,-8.26173868273840e-002

1.18099266142953e+004,-2.02110193522605e+000,-8.37706826974888e-002

1.19747870461893e+004,-2.02110189955428e+000,-8.49400779828241e-002

1.21419488439505e+004,-2.02110186287945e+000,-8.61257974251328e-002

1.23114441334492e+004,-2.02110182517371e+000,-8.73280688987141e-002

1.24833054890161e+004,-2.02110178640789e+000,-8.85471234631241e-002

1.26575659397028e+004,-2.02110174655233e+000,-8.97831954007065e-002

1.28342589756290e+004,-2.02110170557598e+000,-9.10365222680921e-002

1.30134185544193e+004,-2.02110166344798e+000,-9.23073449313106e-002

1.31950791077289e+004,-2.02110162013531e+000,-9.35959076270712e-002

1.33792755478611e+004,-2.02110157560509e+000,-9.49024579942232e-002

1.35660432744767e+004,-2.02110152982295e+000,-9.62272471329294e-002

1.37554181813974e+004,-2.02110148275369e+000,-9.75705296468941e-002

1.39474366635040e+004,-2.02110143436115e+000,-9.89325636945450e-002

1.41421356237309e+004,-2.02110138460806e+000,-1.00313611038374e-001

1.43395524801583e+004,-2.02110133345615e+000,-1.01713937094498e-001

1.45397251732031e+004,-2.02110128086629e+000,-1.03133810982825e-001

1.47426921729110e+004,-2.02110122679783e+000,-1.04573505582635e-001

1.49484924863494e+004,-2.02110117120943e+000,-1.06033297579767e-001

1.51571656651040e+004,-2.02110111405811e+000,-1.07513467525594e-001

1.53687518128801e+004,-2.02110105529996e+000,-1.09014299885860e-001

1.55832915932100e+004,-2.02110099489005e+000,-1.10536083096332e-001

1.58008262372675e+004,-2.02110093278164e+000,-1.12079109621985e-001

1.60213975517924e+004,-2.02110086892724e+000,-1.13643676007621e-001

1.62450479271247e+004,-2.02110080327768e+000,-1.15230082939388e-001

1.64718203453514e+004,-2.02110073578225e+000,-1.16838635302276e-001

1.67017583885674e+004,-2.02110066638948e+000,-1.18469642232590e-001

1.69349062472505e+004,-2.02110059504572e+000,-1.20123417187249e-001

1.71713087287550e+004,-2.02110052169615e+000,-1.21800277996275e-001

1.74110112659224e+004,-2.02110044628448e+000,-1.23500546926511e-001

1.76540599258131e+004,-2.02110036875278e+000,-1.25224550743107e-001

1.79005014185594e+004,-2.02110028904128e+000,-1.26972620774994e-001

1.81503831063432e+004,-2.02110020708866e+000,-1.28745092975053e-001

1.84037530124975e+004,-2.02110012283210e+000,-1.30542307984024e-001

1.86606598307361e+004,-2.02110003620681e+000,-1.32364611200046e-001

1.89211529345119e+004,-2.02109994714624e+000,-1.34212352841811e-001

1.91852823865052e+004,-2.02109985558162e+000,-1.36085888019091e-001

1.94530989482457e+004,-2.02109976144290e+000,-1.37985576795531e-001

1.97246540898671e+004,-2.02109966465748e+000,-1.39911784263894e-001

1.99999999999999e+004,-2.02109956515102e+000,-1.41864880611925e-001

2.02791895958005e+004,-2.02109946284724e+000,-1.43845241194349e-001

2.05622765331213e+004,-2.02109935766712e+000,-1.45853246608900e-001

2.08493152168224e+004,-2.02109924952996e+000,-1.47889282763166e-001

2.11403608112276e+004,-2.02109913835270e+000,-1.49953740952563e-001

2.14354692507258e+004,-2.02109902404973e+000,-1.52047017936001e-001

2.17346972505211e+004,-2.02109890653332e+000,-1.54169516009339e-001

2.20381023175322e+004,-2.02109878571299e+000,-1.56321643086159e-001

2.23457427614443e+004,-2.02109866149601e+000,-1.58503812771982e-001

2.26576777059159e+004,-2.02109853378669e+000,-1.60716444449192e-001

2.29739670999406e+004,-2.02109840248702e+000,-1.62959963351464e-001

2.32946717293690e+004,-2.02109826749595e+000,-1.65234800650928e-001

2.36198532285905e+004,-2.02109812870978e+000,-1.67541393537223e-001

2.39495740923785e+004,-2.02109798602185e+000,-1.69880185303408e-001

2.42838976879009e+004,-2.02109783932222e+000,-1.72251625432453e-001

2.46228882668982e+004,-2.02109768849830e+000,-1.74656169679210e-001

2.49666109780322e+004,-2.02109753343424e+000,-1.77094280161394e-001

2.53151318794055e+004,-2.02109737401056e+000,-1.79566425449914e-001

2.56685179512580e+004,-2.02109721010487e+000,-1.82073080654009e-001

2.60268371088386e+004,-2.02109704159123e+000,-1.84614727516236e-001

2.63901582154578e+004,-2.02109686833992e+000,-1.87191854504901e-001

2.67585510957221e+004,-2.02109669021777e+000,-1.89804956907003e-001

2.71320865489533e+004,-2.02109650708792e+000,-1.92454536922188e-001

2.75108363627948e+004,-2.02109631880957e+000,-1.95141103761997e-001

2.78948733270080e+004,-2.02109612523793e+000,-1.97865173746451e-001

2.82842712474618e+004,-2.02109592622409e+000,-2.00627270403171e-001

2.86791049603164e+004,-2.02109572161528e+000,-2.03427924566287e-001

2.90794503464061e+004,-2.02109551125398e+000,-2.06267674483316e-001

2.94853843458219e+004,-2.02109529497867e+000,-2.09147065912475e-001

2.98969849726987e+004,-2.02109507262290e+000,-2.12066652233406e-001

3.03143313302078e+004,-2.02109484401586e+000,-2.15026994548533e-001

3.07375036257601e+004,-2.02109460898161e+000,-2.18028661795105e-001

3.11665831864199e+004,-2.02109436733968e+000,-2.21072230850515e-001

3.16016524745350e+004,-2.02109411890408e+000,-2.24158286647338e-001

3.20427951035848e+004,-2.02109386348401e+000,-2.27287422281617e-001

3.24900958542493e+004,-2.02109360088300e+000,-2.30460239130394e-001

3.29436406907028e+004,-2.02109333089916e+000,-2.33677346965156e-001

3.34035167771346e+004,-2.02109305332502e+000,-2.36939364069736e-001

3.38698124945009e+004,-2.02109276794701e+000,-2.40246917360036e-001

3.43426174575100e+004,-2.02109247454580e+000,-2.43600642502123e-001

3.48220225318448e+004,-2.02109217289591e+000,-2.47001184036296e-001

3.53081198516260e+004,-2.02109186276530e+000,-2.50449195501135e-001

3.58010028371187e+004,-2.02109154391565e+000,-2.53945339557733e-001

3.63007662126863e+004,-2.02109121610170e+000,-2.57490288118940e-001

3.68075060249948e+004,-2.02109087907161e+000,-2.61084722475529e-001

3.73213196614721e+004,-2.02109053256603e+000,-2.64729333431425e-001

3.78423058690237e+004,-2.02109017631876e+000,-2.68424821432022e-001

3.83705647730104e+004,-2.02108981005578e+000,-2.72171896702107e-001

3.89061978964912e+004,-2.02108943349567e+000,-2.75971279379944e-001

3.94493081797342e+004,-2.02108904634879e+000,-2.79823699658728e-001

3.99999999999998e+004,-2.02108864831752e+000,-2.83729897923543e-001

4.05583791916010e+004,-2.02108823909585e+000,-2.87690624895801e-001

4.11245530662425e+004,-2.02108781836912e+000,-2.91706641777096e-001

4.16986304336447e+004,-2.02108738581389e+000,-2.95778720395148e-001

4.22807216224550e+004,-2.02108694109763e+000,-2.99907643352300e-001

4.28709385014515e+004,-2.02108648387854e+000,-3.04094204175206e-001

4.34693945010421e+004,-2.02108601380482e+000,-3.08339207471124e-001

4.40762046350642e+004,-2.02108553051530e+000,-3.12643469076043e-001

4.46914855228886e+004,-2.02108503363828e+000,-3.17007816217460e-001

4.53153554118317e+004,-2.02108452279190e+000,-3.21433087669435e-001

4.59479341998812e+004,-2.02108399758328e+000,-3.25920133916914e-001

4.65893434587380e+004,-2.02108345760866e+000,-3.30469817316913e-001

4.72397064571810e+004,-2.02108290245287e+000,-3.35083012264912e-001

4.78991481847569e+004,-2.02108233168909e+000,-3.39760605363563e-001

4.85677953758016e+004,-2.02108174487861e+000,-3.44503495591525e-001

4.92457765337964e+004,-2.02108114157006e+000,-3.49312594479583e-001

4.99332219560642e+004,-2.02108052129965e+000,-3.54188826281914e-001

5.06302637588109e+004,-2.02107988359064e+000,-3.59133128154840e-001

5.13370359025159e+004,-2.02107922795259e+000,-3.64146450339754e-001

5.20536742176771e+004,-2.02107855388148e+000,-3.69229756341846e-001

5.27803164309155e+004,-2.02107786085894e+000,-3.74384023118805e-001

5.35171021914442e+004,-2.02107714835232e+000,-3.79610241264617e-001

5.42641730979066e+004,-2.02107641581365e+000,-3.84909415204759e-001

5.50216727255895e+004,-2.02107566267985e+000,-3.90282563385066e-001

5.57897466540159e+004,-2.02107488837177e+000,-3.95730718470152e-001

5.65685424949235e+004,-2.02107409229401e+000,-4.01254927541370e-001

5.73582099206328e+004,-2.02107327383465e+000,-4.06856252296322e-001

5.81589006928121e+004,-2.02107243236436e+000,-4.12535769255755e-001

5.89707686916437e+004,-2.02107156723618e+000,-4.18294569968324e-001

5.97939699453972e+004,-2.02107067778486e+000,-4.24133761222330e-001

6.06286626604156e+004,-2.02106976332656e+000,-4.30054465256388e-001

6.14750072515201e+004,-2.02106882315823e+000,-4.36057819976606e-001

6.23331663728396e+004,-2.02106785655695e+000,-4.42144979174844e-001

6.32033049490698e+004,-2.02106686277948e+000,-4.48317112751126e-001

6.40855902071694e+004,-2.02106584106177e+000,-4.54575406937306e-001

6.49801917084985e+004,-2.02106479061821e+000,-4.60921064526367e-001

6.58872813814055e+004,-2.02106371064118e+000,-4.67355305102766e-001

6.68070335542691e+004,-2.02106260030031e+000,-4.73879365277422e-001

6.77396249890018e+004,-2.02106145874179e+000,-4.80494498925734e-001

6.86852349150199e+004,-2.02106028508789e+000,-4.87201977428334e-001

6.96440450636895e+004,-2.02105907843615e+000,-4.94003089914779e-001

7.06162397032520e+004,-2.02105783785886e+000,-5.00899143512615e-001

7.16020056742374e+004,-2.02105656240213e+000,-5.07891463597080e-001

7.26015324253724e+004,-2.02105525108512e+000,-5.14981394049078e-001

7.36150120499896e+004,-2.02105390289964e+000,-5.22170297509688e-001

7.46426393229441e+004,-2.02105251680902e+000,-5.29459555644570e-001

7.56846117380472e+004,-2.02105109174745e+000,-5.36850569408912e-001

7.67411295460207e+004,-2.02104962661920e+000,-5.44344759316843e-001

7.78123957929823e+004,-2.02104812029762e+000,-5.51943565715035e-001

7.88986163594682e+004,-2.02104657162448e+000,-5.59648449059017e-001

7.99999999999995e+004,-2.02104497940884e+000,-5.67460890194178e-001

8.11167583832018e+004,-2.02104334242657e+000,-5.75382390639972e-001

8.22491061324848e+004,-2.02104165941874e+000,-5.83414472880584e-001

8.33972608672892e+004,-2.02103992909126e+000,-5.91558680655166e-001

8.45614432449099e+004,-2.02103815011360e+000,-5.99816579256143e-001

8.57418770029029e+004,-2.02103632111763e+000,-6.08189755830967e-001

8.69387890020841e+004,-2.02103444069714e+000,-6.16679819684372e-001

8.81524092701283e+004,-2.02103250740596e+000,-6.25288402591419e-001

8.93829710457770e+004,-2.02103051975743e+000,-6.34017159109259e-001

9.06307108236633e+004,-2.02102847622316e+000,-6.42867766895171e-001

9.18958683997622e+004,-2.02102637523161e+000,-6.51841927030724e-001

9.31786869174758e+004,-2.02102421516709e+000,-6.60941364347588e-001

9.44794129143618e+004,-2.02102199436858e+000,-6.70167827759065e-001

9.57982963695136e+004,-2.02101971112813e+000,-6.79523090598227e-001

9.71355907516031e+004,-2.02101736369005e+000,-6.89008950956264e-001

9.84915530675926e+004,-2.02101495024896e+000,-6.98627232031373e-001

9.98664439121282e+004,-2.02101246894887e+000,-7.08379782477422e-001

1.01260527517622e+005,-2.02100991788151e+000,-7.18268476760021e-001

1.02674071805032e+005,-2.02100729508513e+000,-7.28295215516497e-001

1.04107348435354e+005,-2.02100459854251e+000,-7.38461925922799e-001

1.05560632861831e+005,-2.02100182617995e+000,-7.48770562063300e-001

1.07034204382888e+005,-2.02099897586517e+000,-7.59223105307308e-001

1.08528346195813e+005,-2.02099604540613e+000,-7.69821564689160e-001

1.10043345451179e+005,-2.02099303254902e+000,-7.80567977295612e-001

1.11579493308032e+005,-2.02098993497666e+000,-7.91464408657741e-001

1.13137084989847e+005,-2.02098675030672e+000,-8.02512953147671e-001

1.14716419841265e+005,-2.02098347608976e+000,-8.13715734382169e-001

1.16317801385624e+005,-2.02098010980755e+000,-8.25074905630868e-001

1.17941537383287e+005,-2.02097664887098e+000,-8.36592650230700e-001

1.19587939890794e+005,-2.02097309061799e+000,-8.48271182006410e-001

1.21257325320831e+005,-2.02096943231185e+000,-8.60112745694975e-001

1.22950014503040e+005,-2.02096567113868e+000,-8.72119617379856e-001

1.24666332745679e+005,-2.02096180420542e+000,-8.84294104927456e-001

1.26406609898139e+005,-2.02095782853775e+000,-8.96638548431078e-001

1.28171180414339e+005,-2.02095374107762e+000,-9.09155320662077e-001

1.29960383416997e+005,-2.02094953868082e+000,-9.21846827526814e-001

1.31774562762811e+005,-2.02094521811480e+000,-9.34715508528532e-001

1.33614067108538e+005,-2.02094077605612e+000,-9.47763837236721e-001

1.35479249978003e+005,-2.02093620908767e+000,-9.60994321765452e-001

1.37370469830040e+005,-2.02093151369636e+000,-9.74409505253391e-001

1.39288090127379e+005,-2.02092668627008e+000,-9.88011966355328e-001

1.41232479406504e+005,-2.02092172309513e+000,-1.00180431973780e+000

1.43204011348474e+005,-2.02091662035347e+000,-1.01578921658177e+000

1.45203064850745e+005,-2.02091137411946e+000,-1.02996934509443e+000

1.47230024099979e+005,-2.02090598035695e+000,-1.04434743102647e+000

1.49285278645888e+005,-2.02090043491638e+000,-1.05892623819537e+000

1.51369223476094e+005,-2.02089473353136e+000,-1.07370856901931e+000

1.53482259092041e+005,-2.02088887181528e+000,-1.08869726505685e+000

1.55624791585964e+005,-2.02088284525829e+000,-1.10389520755250e+000

1.57797232718936e+005,-2.02087664922358e+000,-1.11930531799287e+000

1.59999999999999e+005,-2.02087027894374e+000,-1.13493055866943e+000

1.62233516766403e+005,-2.02086372951720e+000,-1.15077393324893e+000

1.64498212264969e+005,-2.02085699590455e+000,-1.16683848735065e+000

1.66794521734578e+005,-2.02085007292436e+000,-1.18312730913579e+000

1.69122886489819e+005,-2.02084295524953e+000,-1.19964352989950e+000

1.71483754005805e+005,-2.02083563740291e+000,-1.21639032467622e+000

1.73877578004168e+005,-2.02082811375313e+000,-1.23337091285049e+000

1.76304818540256e+005,-2.02082037851047e+000,-1.25058855877720e+000

1.78765942091554e+005,-2.02081242572211e+000,-1.26804657241096e+000

1.81261421647326e+005,-2.02080424926761e+000,-1.28574830994441e+000

1.83791736799524e+005,-2.02079584285426e+000,-1.30369717445440e+000

1.86357373834951e+005,-2.02078720001228e+000,-1.32189661655760e+000

1.88958825828723e+005,-2.02077831408958e+000,-1.34035013507707e+000

1.91596592739027e+005,-2.02076917824681e+000,-1.35906127771570e+000

1.94271181503206e+005,-2.02075978545226e+000,-1.37803364173940e+000

1.96983106135185e+005,-2.02075012847592e+000,-1.39727087467315e+000

1.99732887824256e+005,-2.02074019988433e+000,-1.41677667500246e+000

2.02521055035243e+005,-2.02072999203480e+000,-1.43655479288642e+000

2.05348143610063e+005,-2.02071949706917e+000,-1.45660903088346e+000

2.08214696870707e+005,-2.02070870690828e+000,-1.47694324468103e+000

2.11121265723661e+005,-2.02069761324521e+000,-1.49756134384338e+000

2.14068408765776e+005,-2.02068620753918e+000,-1.51846729256304e+000

2.17056692391625e+005,-2.02067448100881e+000,-1.53966511042719e+000

2.20086690902357e+005,-2.02066242462548e+000,-1.56115887319271e+000

2.23158986616063e+005,-2.02065002910607e+000,-1.58295271357342e+000

2.26274169979693e+005,-2.02063728490619e+000,-1.60505082203720e+000

2.29432839682530e+005,-2.02062418221240e+000,-1.62745744761538e+000

2.32635602771247e+005,-2.02061071093491e+000,-1.65017689872339e+000

2.35883074766574e+005,-2.02059686069959e+000,-1.67321354399230e+000

2.39175879781588e+005,-2.02058262084017e+000,-1.69657181311231e+000

2.42514650641661e+005,-2.02056798038965e+000,-1.72025619768988e+000

2.45900029006080e+005,-2.02055292807224e+000,-1.74427125211330e+000

2.49332665491357e+005,-2.02053745229427e+000,-1.76862159443510e+000

2.52813219796278e+005,-2.02052154113542e+000,-1.79331190726252e+000

2.56342360828676e+005,-2.02050518233941e+000,-1.81834693866368e+000

2.59920766833993e+005,-2.02048836330473e+000,-1.84373150308512e+000

2.63549125525621e+005,-2.02047107107441e+000,-1.86947048228364e+000

2.67228134217075e+005,-2.02045329232650e+000,-1.89556882626897e+000

2.70958499956006e+005,-2.02043501336361e+000,-1.92203155426165e+000

2.74740939660078e+005,-2.02041622010207e+000,-1.94886375566530e+000

2.78576180254757e+005,-2.02039689806136e+000,-1.97607059104963e+000

2.82464958813007e+005,-2.02037703235262e+000,-2.00365729315099e+000

2.86408022696948e+005,-2.02035660766737e+000,-2.03162916788374e+000

2.90406129701488e+005,-2.02033560826540e+000,-2.05999159536946e+000

2.94460048199957e+005,-2.02031401796286e+000,-2.08875003097679e+000

2.98570557291775e+005,-2.02029182011951e+000,-2.11791000638013e+000

3.02738446952187e+005,-2.02026899762585e+000,-2.14747713063065e+000

3.06964518184081e+005,-2.02024553288990e+000,-2.17745709124384e+000

3.11249583171928e+005,-2.02022140782360e+000,-2.20785565530137e+000

3.15594465437872e+005,-2.02019660382896e+000,-2.23867867056970e+000

3.19999999999997e+005,-2.02017110178309e+000,-2.26993206663566e+000

3.24467033532806e+005,-2.02014488202404e+000,-2.30162185605443e+000

3.28996424529938e+005,-2.02011792433520e+000,-2.33375413551911e+000

3.33589043469155e+005,-2.02009020792962e+000,-2.36633508704222e+000

3.38245772979638e+005,-2.02006171143397e+000,-2.39937097915799e+000

3.42967508011610e+005,-2.02003241287212e+000,-2.43286816813824e+000

3.47755156008335e+005,-2.02000228964778e+000,-2.46683309922935e+000

3.52609637080511e+005,-2.01997131852721e+000,-2.50127230790447e+000

3.57531884183106e+005,-2.01993947562127e+000,-2.53619242113336e+000

3.62522843294651e+005,-2.01990673636653e+000,-2.57160015867354e+000

3.67583473599047e+005,-2.01987307550667e+000,-2.60750233437631e+000

3.72714747669902e+005,-2.01983846707257e+000,-2.64390585751419e+000

3.77917651657445e+005,-2.01980288436236e+000,-2.68081773412607e+000

3.83193185478053e+005,-2.01976629992062e+000,-2.71824506838215e+000

3.88542363006410e+005,-2.01972868551708e+000,-2.75619506396929e+000

3.93966212270369e+005,-2.01969001212481e+000,-2.79467502549469e+000

3.99465775648511e+005,-2.01965024989762e+000,-2.83369235991230e+000

4.05042110070485e+005,-2.01960936814695e+000,-2.87325457796704e+000

4.10696287220124e+005,-2.01956733531815e+000,-2.91336929566228e+000

4.16429393741414e+005,-2.01952411896584e+000,-2.95404423574778e+000

4.22242531447321e+005,-2.01947968572888e+000,-2.99528722922891e+000

4.28136817531551e+005,-2.01943400130460e+000,-3.03710621689800e+000

4.34113384783250e+005,-2.01938703042190e+000,-3.07950925088857e+000

4.40173381804713e+005,-2.01933873681429e+000,-3.12250449625150e+000

4.46317973232124e+005,-2.01928908319148e+000,-3.16610023255459e+000

4.52548339959385e+005,-2.01923803121072e+000,-3.21030485550500e+000

4.58865679365059e+005,-2.01918554144683e+000,-3.25512687859699e+000

4.65271205542494e+005,-2.01913157336201e+000,-3.30057493478118e+000

4.71766149533147e+005,-2.01907608527415e+000,-3.34665777816069e+000

4.78351759563174e+005,-2.01901903432463e+000,-3.39338428571170e+000

4.85029301283321e+005,-2.01896037644529e+000,-3.44076345902802e+000

4.91800058012158e+005,-2.01890006632420e+000,-3.48880442609290e+000

4.98665330982714e+005,-2.01883805737055e+000,-3.53751644307703e+000

5.05626439592555e+005,-2.01877430167888e+000,-3.58690889616119e+000

5.12684721657352e+005,-2.01870874999178e+000,-3.63699130338905e+000

5.19841533667984e+005,-2.01864135166187e+000,-3.68777331654450e+000

5.27098251051240e+005,-2.01857205461293e+000,-3.73926472305863e+000

5.34456268434150e+005,-2.01850080529932e+000,-3.79147544794495e+000

5.41916999912011e+005,-2.01842754866501e+000,-3.84441555576235e+000

