Freq.,VOut,OutRef

1.00000000000000e+004,-1.10267160839040e+001,-1.73755791933060e-002

1.01395947979003e+004,-1.10267162635743e+001,-1.76181256366856e-002

1.02811382665607e+004,-1.10267164482953e+001,-1.78640575794187e-002

1.04246576084112e+004,-1.10267166382090e+001,-1.81134222684676e-002

1.05701804056138e+004,-1.10267168334618e+001,-1.83662676060890e-002

1.07177346253629e+004,-1.10267170342037e+001,-1.86226421649438e-002

1.08673486252606e+004,-1.10267172405882e+001,-1.88825952007873e-002

1.10190511587661e+004,-1.10267174527744e+001,-1.91461766487776e-002

1.11728713807222e+004,-1.10267176709252e+001,-1.94134371436268e-002

1.13288388529580e+004,-1.10267178952085e+001,-1.96844280237714e-002

1.14869835499703e+004,-1.10267181257969e+001,-1.99592013428055e-002

1.16473358646846e+004,-1.10267183628671e+001,-2.02378098868045e-002

1.18099266142953e+004,-1.10267186066016e+001,-2.05203071708675e-002

1.19747870461893e+004,-1.10267188571879e+001,-2.08067474584012e-002

1.21419488439505e+004,-1.10267191148177e+001,-2.10971857760929e-002

1.23114441334492e+004,-1.10267193796900e+001,-2.13916779037599e-002

1.24833054890161e+004,-1.10267196520079e+001,-2.16902804116047e-002

1.26575659397028e+004,-1.10267199319809e+001,-2.19930506508188e-002

1.28342589756290e+004,-1.10267202198235e+001,-2.23000467808108e-002

1.30134185544193e+004,-1.10267205157578e+001,-2.26113277597070e-002

1.31950791077289e+004,-1.10267208200110e+001,-2.29269533751279e-002

1.33792755478611e+004,-1.10267211328161e+001,-2.32469842523664e-002

1.35660432744767e+004,-1.10267214544148e+001,-2.35714818480110e-002

1.37554181813974e+004,-1.10267217850530e+001,-2.39005084912967e-002

1.39474366635040e+004,-1.10267221249851e+001,-2.42341273705313e-002

1.41421356237309e+004,-1.10267224744731e+001,-2.45724025521281e-002

1.43395524801583e+004,-1.10267228337845e+001,-2.49153990056481e-002

1.45397251732031e+004,-1.10267232031959e+001,-2.52631825980532e-002

1.47426921729110e+004,-1.10267235829913e+001,-2.56158201150530e-002

1.49484924863494e+004,-1.10267239734619e+001,-2.59733792786640e-002

1.51571656651040e+004,-1.10267243749088e+001,-2.63359287442487e-002

1.53687518128801e+004,-1.10267247876395e+001,-2.67035381344999e-002

1.55832915932100e+004,-1.10267252119709e+001,-2.70762780409166e-002

1.58008262372675e+004,-1.10267256482303e+001,-2.74542200249516e-002

1.60213975517924e+004,-1.10267260967517e+001,-2.78374366642566e-002

1.62450479271247e+004,-1.10267265578804e+001,-2.82260015330509e-002

1.64718203453514e+004,-1.10267270319704e+001,-2.86199892378668e-002

1.67017583885674e+004,-1.10267275193858e+001,-2.90194754233304e-002

1.69349062472505e+004,-1.10267280205011e+001,-2.94245367861940e-002

1.71713087287550e+004,-1.10267285357016e+001,-2.98352510898836e-002

1.74110112659224e+004,-1.10267290653829e+001,-3.02516971836550e-002

1.76540599258131e+004,-1.10267296099517e+001,-3.06739550161013e-002

1.79005014185594e+004,-1.10267301698266e+001,-3.11021056431976e-002

1.81503831063432e+004,-1.10267307454379e+001,-3.15362312537725e-002

1.84037530124975e+004,-1.10267313372271e+001,-3.19764151825624e-002

1.86606598307361e+004,-1.10267319456495e+001,-3.24227419184063e-002

1.89211529345119e+004,-1.10267325711722e+001,-3.28752971315216e-002

1.91852823865052e+004,-1.10267332142755e+001,-3.33341676829615e-002

1.94530989482457e+004,-1.10267338754539e+001,-3.37994416400455e-002

1.97246540898671e+004,-1.10267345552142e+001,-3.42712083045816e-002

1.99999999999999e+004,-1.10267352540795e+001,-3.47495582086782e-002

2.02791895958005e+004,-1.10267359725863e+001,-3.52345831502822e-002

2.05622765331213e+004,-1.10267367112861e+001,-3.57263762081141e-002

2.08493152168224e+004,-1.10267374707467e+001,-3.62250317479968e-002

2.11403608112276e+004,-1.10267382515511e+001,-3.67306454547791e-002

2.14354692507258e+004,-1.10267390542987e+001,-3.72433143422377e-002

2.17346972505211e+004,-1.10267398796067e+001,-3.77631367686782e-002

2.20381023175322e+004,-1.10267407281079e+001,-3.82902124698563e-002

2.23457427614443e+004,-1.10267416004547e+001,-3.88246425586744e-002

2.26576777059159e+004,-1.10267424973164e+001,-3.93665295607357e-002

2.29739670999406e+004,-1.10267434193816e+001,-3.99159774242777e-002

2.32946717293690e+004,-1.10267443673586e+001,-4.04730915401365e-002

2.36198532285905e+004,-1.10267453419755e+001,-4.10379787641891e-002

2.39495740923785e+004,-1.10267463439800e+001,-4.16107474424286e-002

2.42838976879009e+004,-1.10267473741417e+001,-4.21915074213040e-002

2.46228882668982e+004,-1.10267484332510e+001,-4.27803700772731e-002

2.49666109780322e+004,-1.10267495221218e+001,-4.33774483258918e-002

2.53151318794055e+004,-1.10267506415890e+001,-4.39828566622783e-002

2.56685179512580e+004,-1.10267517925129e+001,-4.45967111604932e-002

2.60268371088386e+004,-1.10267529757758e+001,-4.52191295171525e-002

2.63901582154578e+004,-1.10267541922870e+001,-4.58502310513685e-002

2.67585510957221e+004,-1.10267554429794e+001,-4.64901367483026e-002

2.71320865489533e+004,-1.10267567288135e+001,-4.71389692651522e-002

2.75108363627948e+004,-1.10267580507754e+001,-4.77968529677305e-002

2.78948733270080e+004,-1.10267594098800e+001,-4.84639139411116e-002

2.82842712474618e+004,-1.10267608071705e+001,-4.91402800192768e-002

2.86791049603164e+004,-1.10267622437184e+001,-4.98260808172638e-002

2.90794503464061e+004,-1.10267637206264e+001,-5.05214477379487e-002

2.94853843458219e+004,-1.10267652390272e+001,-5.12265140126201e-002

2.98969849726987e+004,-1.10267668000863e+001,-5.19414147126147e-002

3.03143313302078e+004,-1.10267684050010e+001,-5.26662867863309e-002

3.07375036257601e+004,-1.10267700550023e+001,-5.34012690798370e-002

3.11665831864199e+004,-1.10267717513561e+001,-5.41465023583564e-002

3.16016524745350e+004,-1.10267734953631e+001,-5.49021293420867e-002

3.20427951035848e+004,-1.10267752883613e+001,-5.56682947218131e-002

3.24900958542493e+004,-1.10267771317260e+001,-5.64451451926314e-002

3.29436406907028e+004,-1.10267790268700e+001,-5.72328294860965e-002

3.34035167771346e+004,-1.10267809752472e+001,-5.80314983819937e-002

3.38698124945009e+004,-1.10267829783511e+001,-5.88413047526087e-002

3.43426174575100e+004,-1.10267850377177e+001,-5.96624035816387e-002

3.48220225318448e+004,-1.10267871549259e+001,-6.04949519949742e-002

3.53081198516260e+004,-1.10267893315979e+001,-6.13391092965266e-002

3.58010028371187e+004,-1.10267915694032e+001,-6.21950369796478e-002

3.63007662126863e+004,-1.10267938700563e+001,-6.30628987802304e-002

3.68075060249948e+004,-1.10267962353208e+001,-6.39428606869177e-002

3.73213196614721e+004,-1.10267986670085e+001,-6.48350909879920e-002

3.78423058690237e+004,-1.10268011669837e+001,-6.57397602844336e-002

3.83705647730104e+004,-1.10268037371610e+001,-6.66570415409062e-002

3.89061978964912e+004,-1.10268063795098e+001,-6.75871101010785e-002

3.94493081797342e+004,-1.10268090960542e+001,-6.85301437278971e-002

3.99999999999998e+004,-1.10268118888748e+001,-6.94863226369935e-002

4.05583791916010e+004,-1.10268147601103e+001,-7.04558295253180e-002

4.11245530662425e+004,-1.10268177119599e+001,-7.14388496031470e-002

4.16986304336447e+004,-1.10268207466839e+001,-7.24355706333544e-002

4.22807216224550e+004,-1.10268238666055e+001,-7.34461829630800e-002

4.28709385014515e+004,-1.10268270741131e+001,-7.44708795588999e-002

4.34693945010421e+004,-1.10268303716616e+001,-7.55098560405925e-002

4.40762046350642e+004,-1.10268337617752e+001,-7.65633107127734e-002

4.46914855228886e+004,-1.10268372470480e+001,-7.76314446088399e-002

4.53153554118317e+004,-1.10268408301468e+001,-7.87144615215221e-002

4.59479341998812e+004,-1.10268445138127e+001,-7.98125680419076e-002

4.65893434587380e+004,-1.10268483008636e+001,-8.09259735934789e-002

4.72397064571810e+004,-1.10268521941962e+001,-8.20548904725228e-002

4.78991481847569e+004,-1.10268561967875e+001,-8.31995338863618e-002

4.85677953758016e+004,-1.10268603116980e+001,-8.43601219894144e-002

4.92457765337964e+004,-1.10268645420738e+001,-8.55368759218094e-002

4.99332219560642e+004,-1.10268688911477e+001,-8.67300198551713e-002

5.06302637588109e+004,-1.10268733622445e+001,-8.79397810169034e-002

5.13370359025159e+004,-1.10268779587802e+001,-8.91663897497780e-002

5.20536742176771e+004,-1.10268826842665e+001,-9.04100795398565e-002

5.27803164309155e+004,-1.10268875423127e+001,-9.16710870616024e-002

5.35171021914442e+004,-1.10268925366296e+001,-9.29496522146116e-002

5.42641730979066e+004,-1.10268976710306e+001,-9.42460181728949e-002

5.50216727255895e+004,-1.10269029494355e+001,-9.55604314232850e-002

5.57897466540159e+004,-1.10269083758727e+001,-9.68931418108882e-002

5.65685424949235e+004,-1.10269139544842e+001,-9.82444025740922e-002

5.73582099206328e+004,-1.10269196895255e+001,-9.96144704015842e-002

5.81589006928121e+004,-1.10269255853719e+001,-1.01003605464073e-001

5.89707686916437e+004,-1.10269316465195e+001,-1.02412071467543e-001

5.97939699453972e+004,-1.10269378775898e+001,-1.03840135693519e-001

6.06286626604156e+004,-1.10269442833327e+001,-1.05288069046251e-001

6.14750072515201e+004,-1.10269508686304e+001,-1.06756146097646e-001

6.23331663728396e+004,-1.10269576384999e+001,-1.08244645138158e-001

6.32033049490698e+004,-1.10269645980985e+001,-1.09753848215095e-001

6.40855902071694e+004,-1.10269717527259e+001,-1.11284041190706e-001

6.49801917084985e+004,-1.10269791078293e+001,-1.12835513779485e-001

6.58872813814055e+004,-1.10269866690069e+001,-1.14408559604352e-001

6.68070335542691e+004,-1.10269944420119e+001,-1.16003476240994e-001

6.77396249890018e+004,-1.10270024327573e+001,-1.17620565269318e-001

6.86852349150199e+004,-1.10270106473196e+001,-1.19260132321900e-001

6.96440450636895e+004,-1.10270190919440e+001,-1.20922487131175e-001

7.06162397032520e+004,-1.10270277730483e+001,-1.22607943586223e-001

7.16020056742374e+004,-1.10270366972276e+001,-1.24316819780412e-001

7.26015324253724e+004,-1.10270458712603e+001,-1.26049438057215e-001

7.36150120499896e+004,-1.10270553021115e+001,-1.27806125071332e-001

7.46426393229441e+004,-1.10270649969385e+001,-1.29587211837042e-001

7.56846117380472e+004,-1.10270749630973e+001,-1.31393033775350e-001

7.67411295460207e+004,-1.10270852081456e+001,-1.33223930777727e-001

7.78123957929823e+004,-1.10270957398510e+001,-1.35080247245118e-001

7.88986163594682e+004,-1.10271065661945e+001,-1.36962332154843e-001

7.99999999999995e+004,-1.10271176953770e+001,-1.38870539107809e-001

8.11167583832018e+004,-1.10271291358258e+001,-1.40805226381940e-001

8.22491061324848e+004,-1.10271408961998e+001,-1.42766756990898e-001

8.33972608672892e+004,-1.10271529853963e+001,-1.44755498735380e-001

8.45614432449099e+004,-1.10271654125568e+001,-1.46771824261769e-001

8.57418770029029e+004,-1.10271781870751e+001,-1.48816111109264e-001

8.69387890020841e+004,-1.10271913186015e+001,-1.50888741780744e-001

8.81524092701283e+004,-1.10272048170524e+001,-1.52990103781833e-001

8.93829710457770e+004,-1.10272186926151e+001,-1.55120589691531e-001

9.06307108236633e+004,-1.10272329557570e+001,-1.57280597206127e-001

9.18958683997622e+004,-1.10272476172313e+001,-1.59470529208462e-001

9.31786869174758e+004,-1.10272626880862e+001,-1.61690793813211e-001

9.44794129143618e+004,-1.10272781796711e+001,-1.63941804433110e-001

9.57982963695136e+004,-1.10272941036463e+001,-1.66223979828259e-001

9.71355907516031e+004,-1.10273104719900e+001,-1.68537744170236e-001

9.84915530675926e+004,-1.10273272970073e+001,-1.70883527093975e-001

9.98664439121282e+004,-1.10273445913381e+001,-1.73261763760464e-001

1.01260527517622e+005,-1.10273623679667e+001,-1.75672894911067e-001

1.02674071805032e+005,-1.10273806402311e+001,-1.78117366921408e-001

1.04107348435354e+005,-1.10273994218313e+001,-1.80595631865472e-001

1.05560632861831e+005,-1.10274187268391e+001,-1.83108147572131e-001

1.07034204382888e+005,-1.10274385697079e+001,-1.85655377677801e-001

1.08528346195813e+005,-1.10274589652835e+001,-1.88237791685252e-001

1.10043345451179e+005,-1.10274799288123e+001,-1.90855865024754e-001

1.11579493308032e+005,-1.10275014759539e+001,-1.93510079104892e-001

1.13137084989847e+005,-1.10275236227903e+001,-1.96200921371917e-001

1.14716419841265e+005,-1.10275463858370e+001,-1.98928885368967e-001

1.16317801385624e+005,-1.10275697820551e+001,-2.01694470783589e-001

1.17941537383287e+005,-1.10275938288618e+001,-2.04498183511234e-001

1.19587939890794e+005,-1.10276185441420e+001,-2.07340535708954e-001

1.21257325320831e+005,-1.10276439462614e+001,-2.10222045842466e-001

1.22950014503040e+005,-1.10276700540770e+001,-2.13143238753139e-001

1.24666332745679e+005,-1.10276968869512e+001,-2.16104645697938e-001

1.26406609898139e+005,-1.10277244647637e+001,-2.19106804411534e-001

1.28171180414339e+005,-1.10277528079244e+001,-2.22150259154929e-001

1.29960383416997e+005,-1.10277819373874e+001,-2.25235560765959e-001

1.31774562762811e+005,-1.10278118746646e+001,-2.28363266708557e-001

1.33614067108538e+005,-1.10278426418386e+001,-2.31533941126593e-001

1.35479249978003e+005,-1.10278742615779e+001,-2.34748154888152e-001

1.37370469830040e+005,-1.10279067571515e+001,-2.38006485633037e-001

1.39288090127379e+005,-1.10279401524429e+001,-2.41309517819893e-001

1.41232479406504e+005,-1.10279744719655e+001,-2.44657842773717e-001

1.43204011348474e+005,-1.10280097408785e+001,-2.48052058722793e-001

1.45203064850745e+005,-1.10280459850020e+001,-2.51492770846563e-001

1.47230024099979e+005,-1.10280832308336e+001,-2.54980591312901e-001

1.49285278645888e+005,-1.10281215055642e+001,-2.58516139317974e-001

1.51369223476094e+005,-1.10281608370947e+001,-2.62100041126227e-001

1.53482259092041e+005,-1.10282012540535e+001,-2.65732930099551e-001

1.55624791585964e+005,-1.10282427858132e+001,-2.69415446735411e-001

1.57797232718936e+005,-1.10282854625085e+001,-2.73148238698882e-001

1.59999999999999e+005,-1.10283293150540e+001,-2.76931960847237e-001

1.62233516766403e+005,-1.10283743751626e+001,-2.80767275260572e-001

1.64498212264969e+005,-1.10284206753635e+001,-2.84654851267142e-001

1.66794521734578e+005,-1.10284682490218e+001,-2.88595365460822e-001

1.69122886489819e+005,-1.10285171303571e+001,-2.92589501724054e-001

1.71483754005805e+005,-1.10285673544630e+001,-2.96637951246280e-001

1.73877578004168e+005,-1.10286189573274e+001,-3.00741412529309e-001

1.76304818540256e+005,-1.10286719758516e+001,-3.04900591408024e-001

1.78765942091554e+005,-1.10287264478717e+001,-3.09116201049882e-001

1.81261421647326e+005,-1.10287824121783e+001,-3.13388961962712e-001

1.83791736799524e+005,-1.10288399085378e+001,-3.17719601995326e-001

1.86357373834951e+005,-1.10288989777143e+001,-3.22108856328310e-001

1.88958825828723e+005,-1.10289596614893e+001,-3.26557467476197e-001

1.91596592739027e+005,-1.10290220026853e+001,-3.31066185266656e-001

1.94271181503206e+005,-1.10290860451867e+001,-3.35635766830134e-001

1.96983106135185e+005,-1.10291518339618e+001,-3.40266976579790e-001

1.99732887824256e+005,-1.10292194150861e+001,-3.44960586184924e-001

2.02521055035243e+005,-1.10292888357642e+001,-3.49717374539684e-001

2.05348143610063e+005,-1.10293601443524e+001,-3.54538127735996e-001

2.08214696870707e+005,-1.10294333903826e+001,-3.59423639013635e-001

2.11121265723661e+005,-1.10295086245847e+001,-3.64374708722096e-001

2.14068408765776e+005,-1.10295858989096e+001,-3.69392144269719e-001

2.17056692391625e+005,-1.10296652665537e+001,-3.74476760061756e-001

2.20086690902357e+005,-1.10297467819808e+001,-3.79629377444409e-001

2.23158986616063e+005,-1.10298305009470e+001,-3.84850824630714e-001

2.26274169979693e+005,-1.10299164805237e+001,-3.90141936627108e-001

2.29432839682530e+005,-1.10300047791209e+001,-3.95503555152203e-001

2.32635602771247e+005,-1.10300954565111e+001,-4.00936528546251e-001

2.35883074766574e+005,-1.10301885738527e+001,-4.06441711675604e-001

2.39175879781588e+005,-1.10302841937137e+001,-4.12019965827511e-001

2.42514650641661e+005,-1.10303823800942e+001,-4.17672158601324e-001

2.45900029006080e+005,-1.10304831984503e+001,-4.23399163785787e-001

2.49332665491357e+005,-1.10305867157162e+001,-4.29201861237015e-001

2.52813219796278e+005,-1.10306930003280e+001,-4.35081136735282e-001

2.56342360828676e+005,-1.10308021222448e+001,-4.41037881846006e-001

2.59920766833993e+005,-1.10309141529713e+001,-4.47072993765526e-001

2.63549125525621e+005,-1.10310291655793e+001,-4.53187375157696e-001

2.67228134217075e+005,-1.10311472347285e+001,-4.59381933982624e-001

2.70958499956006e+005,-1.10312684366877e+001,-4.65657583314013e-001

2.74740939660078e+005,-1.10313928493539e+001,-4.72015241151253e-001

2.78576180254757e+005,-1.10315205522723e+001,-4.78455830214675e-001

2.82464958813007e+005,-1.10316516266543e+001,-4.84980277738167e-001

2.86408022696948e+005,-1.10317861553961e+001,-4.91589515241981e-001

2.90406129701488e+005,-1.10319242230945e+001,-4.98284478305784e-001

2.94460048199957e+005,-1.10320659160637e+001,-5.05066106321975e-001

2.98570557291775e+005,-1.10322113223493e+001,-5.11935342243484e-001

3.02738446952187e+005,-1.10323605317432e+001,-5.18893132314876e-001

3.06964518184081e+005,-1.10325136357946e+001,-5.25940425800706e-001

3.11249583171928e+005,-1.10326707278224e+001,-5.33078174691475e-001

3.15594465437872e+005,-1.10328319029238e+001,-5.40307333409369e-001

3.19999999999997e+005,-1.10329972579835e+001,-5.47628858490126e-001

3.24467033532806e+005,-1.10331668916789e+001,-5.55043708266288e-001

3.28996424529938e+005,-1.10333409044862e+001,-5.62552842526391e-001

3.33589043469155e+005,-1.10335193986815e+001,-5.70157222171047e-001

3.38245772979638e+005,-1.10337024783431e+001,-5.77857808852171e-001

3.42967508011610e+005,-1.10338902493488e+001,-5.85655564602640e-001

3.47755156008335e+005,-1.10340828193731e+001,-5.93551451452621e-001

3.52609637080511e+005,-1.10342802978804e+001,-6.01546431034520e-001

3.57531884183106e+005,-1.10344827961163e+001,-6.09641464179362e-001

3.62522843294651e+005,-1.10346904270964e+001,-6.17837510493993e-001

3.67583473599047e+005,-1.10349033055914e+001,-6.26135527936879e-001

3.72714747669902e+005,-1.10351215481101e+001,-6.34536472375368e-001

3.77917651657445e+005,-1.10353452728781e+001,-6.43041297135766e-001

3.83193185478053e+005,-1.10355745998144e+001,-6.51650952540773e-001

3.88542363006410e+005,-1.10358096505034e+001,-6.60366385438621e-001

3.93966212270369e+005,-1.10360505481632e+001,-6.69188538723570e-001

3.99465775648511e+005,-1.10362974176110e+001,-6.78118350844680e-001

4.05042110070485e+005,-1.10365503852232e+001,-6.87156755307737e-001

4.10696287220124e+005,-1.10368095788918e+001,-6.96304680170313e-001

4.16429393741414e+005,-1.10370751279761e+001,-7.05563047527352e-001

4.22242531447321e+005,-1.10373471632504e+001,-7.14932772992719e-001

4.28136817531551e+005,-1.10376258168455e+001,-7.24414765174631e-001

4.34113384783250e+005,-1.10379112221867e+001,-7.34009925147462e-001

4.40173381804713e+005,-1.10382035139252e+001,-7.43719145917154e-001

4.46317973232124e+005,-1.10385028278652e+001,-7.53543311889538e-001

4.52548339959385e+005,-1.10388093008843e+001,-7.63483298333515e-001

4.58865679365059e+005,-1.10391230708489e+001,-7.73539970846391e-001

4.65271205542494e+005,-1.10394442765234e+001,-7.83714184821335e-001

4.71766149533147e+005,-1.10397730574722e+001,-7.94006784917232e-001

4.78351759563174e+005,-1.10401095539574e+001,-8.04418604534794e-001

4.85029301283321e+005,-1.10404539068275e+001,-8.14950465297253e-001

4.91800058012158e+005,-1.10408062574012e+001,-8.25603176544080e-001

4.98665330982714e+005,-1.10411667473433e+001,-8.36377534829155e-001

5.05626439592555e+005,-1.10415355185338e+001,-8.47274323437805e-001

5.12684721657352e+005,-1.10419127129297e+001,-8.58294311915247e-001

5.19841533667984e+005,-1.10422984724198e+001,-8.69438255612880e-001

5.27098251051240e+005,-1.10426929386711e+001,-8.80706895255176e-001

5.34456268434150e+005,-1.10430962529687e+001,-8.92100956529285e-001

5.41916999912011e+005,-1.10435085560469e+001,-9.03621149697608e-001

