Freq.,VOut,OutRef

1.00000000000000e+004,-1.75473906864980e+001,-2.78451455200042e-001

1.01395947979003e+004,-1.75473913767498e+001,-2.82338481887066e-001

1.02811382665607e+004,-1.75473920864068e+001,-2.86279768987964e-001

1.04246576084112e+004,-1.75473928160147e+001,-2.90276073928561e-001

1.05701804056138e+004,-1.75473935661342e+001,-2.94328164710969e-001

1.07177346253629e+004,-1.75473943373420e+001,-2.98436820054060e-001

1.08673486252606e+004,-1.75473951302310e+001,-3.02602829548270e-001

1.10190511587661e+004,-1.75473959454108e+001,-3.06826993803908e-001

1.11728713807222e+004,-1.75473967835079e+001,-3.11110124608698e-001

1.13288388529580e+004,-1.75473976451666e+001,-3.15453045078480e-001

1.14869835499703e+004,-1.75473985310493e+001,-3.19856589821614e-001

1.16473358646846e+004,-1.75473994418370e+001,-3.24321605092887e-001

1.18099266142953e+004,-1.75474003782298e+001,-3.28848948961119e-001

1.19747870461893e+004,-1.75474013409476e+001,-3.33439491471615e-001

1.21419488439505e+004,-1.75474023307304e+001,-3.38094114814470e-001

1.23114441334492e+004,-1.75474033483392e+001,-3.42813713491136e-001

1.24833054890161e+004,-1.75474043945561e+001,-3.47599194491958e-001

1.26575659397028e+004,-1.75474054701852e+001,-3.52451477464991e-001

1.28342589756290e+004,-1.75474065760538e+001,-3.57371494892903e-001

1.30134185544193e+004,-1.75474077130116e+001,-3.62360192277437e-001

1.31950791077289e+004,-1.75474088819326e+001,-3.67418528315527e-001

1.33792755478611e+004,-1.75474100837156e+001,-3.72547475084650e-001

1.35660432744767e+004,-1.75474113192843e+001,-3.77748018231770e-001

1.37554181813974e+004,-1.75474125895885e+001,-3.83021157159768e-001

1.39474366635040e+004,-1.75474138956046e+001,-3.88367905222450e-001

1.41421356237309e+004,-1.75474152383366e+001,-3.93789289915642e-001

1.43395524801583e+004,-1.75474166188168e+001,-3.99286353077245e-001

1.45397251732031e+004,-1.75474180381060e+001,-4.04860151087702e-001

1.47426921729110e+004,-1.75474194972956e+001,-4.10511755069480e-001

1.49484924863494e+004,-1.75474209975070e+001,-4.16242251096816e-001

1.51571656651040e+004,-1.75474225398935e+001,-4.22052740401855e-001

1.53687518128801e+004,-1.75474241256407e+001,-4.27944339586706e-001

1.55832915932100e+004,-1.75474257559676e+001,-4.33918180838153e-001

1.58008262372675e+004,-1.75474274321273e+001,-4.39975412145123e-001

1.60213975517924e+004,-1.75474291554083e+001,-4.46117197519288e-001

1.62450479271247e+004,-1.75474309271351e+001,-4.52344717217660e-001

1.64718203453514e+004,-1.75474327486699e+001,-4.58659167969194e-001

1.67017583885674e+004,-1.75474346214125e+001,-4.65061763207665e-001

1.69349062472505e+004,-1.75474365468025e+001,-4.71553733301093e-001

1.71713087287550e+004,-1.75474385263202e+001,-4.78136325787818e-001

1.74110112659224e+004,-1.75474405614868e+001,-4.84810805619706e-001

1.76540599258131e+004,-1.75474426538667e+001,-4.91578455402005e-001

1.79005014185594e+004,-1.75474448050684e+001,-4.98440575640040e-001

1.81503831063432e+004,-1.75474470167454e+001,-5.05398484989959e-001

1.84037530124975e+004,-1.75474492905975e+001,-5.12453520511074e-001

1.86606598307361e+004,-1.75474516283726e+001,-5.19607037922373e-001

1.89211529345119e+004,-1.75474540318677e+001,-5.26860411864519e-001

1.91852823865052e+004,-1.75474565029301e+001,-5.34215036161117e-001

1.94530989482457e+004,-1.75474590434593e+001,-5.41672324088024e-001

1.97246540898671e+004,-1.75474616554078e+001,-5.49233708644581e-001

1.99999999999999e+004,-1.75474643407834e+001,-5.56900642828679e-001

2.02791895958005e+004,-1.75474671016500e+001,-5.64674599915804e-001

2.05622765331213e+004,-1.75474699401298e+001,-5.72557073739779e-001

2.08493152168224e+004,-1.75474728584043e+001,-5.80549578983427e-001

2.11403608112276e+004,-1.75474758587168e+001,-5.88653651465291e-001

2.14354692507258e+004,-1.75474789433731e+001,-5.96870848437684e-001

2.17346972505211e+004,-1.75474821147441e+001,-6.05202748883571e-001

2.20381023175322e+004,-1.75474853752674e+001,-6.13650953820290e-001

2.23457427614443e+004,-1.75474887274488e+001,-6.22217086607198e-001

2.26576777059159e+004,-1.75474921738650e+001,-6.30902793255339e-001

2.29739670999406e+004,-1.75474957171647e+001,-6.39709742746226e-001

2.32946717293690e+004,-1.75474993600712e+001,-6.48639627350251e-001

2.36198532285905e+004,-1.75475031053844e+001,-6.57694162951647e-001

2.39495740923785e+004,-1.75475069559827e+001,-6.66875089378510e-001

2.42838976879009e+004,-1.75475109148255e+001,-6.76184170734683e-001

2.46228882668982e+004,-1.75475149849554e+001,-6.85623195741381e-001

2.49666109780322e+004,-1.75475191695006e+001,-6.95193978076477e-001

2.53151318794055e+004,-1.75475234716768e+001,-7.04898356726909e-001

2.56685179512580e+004,-1.75475278947906e+001,-7.14738196336747e-001

2.60268371088386e+004,-1.75475324422412e+001,-7.24715387569315e-001

2.63901582154578e+004,-1.75475371175232e+001,-7.34831847466364e-001

2.67585510957221e+004,-1.75475419242299e+001,-7.45089519817526e-001

2.71320865489533e+004,-1.75475468660552e+001,-7.55490375532898e-001

2.75108363627948e+004,-1.75475519467967e+001,-7.66036413020958e-001

2.78948733270080e+004,-1.75475571703590e+001,-7.76729658571381e-001

2.82842712474618e+004,-1.75475625407563e+001,-7.87572166745394e-001

2.86791049603164e+004,-1.75475680621155e+001,-7.98566020766529e-001

2.90794503464061e+004,-1.75475737386797e+001,-8.09713332922385e-001

2.94853843458219e+004,-1.75475795748110e+001,-8.21016244970306e-001

2.98969849726987e+004,-1.75475855749941e+001,-8.32476928545346e-001

3.03143313302078e+004,-1.75475917438397e+001,-8.44097585578740e-001

3.07375036257601e+004,-1.75475980860882e+001,-8.55880448719291e-001

3.11665831864199e+004,-1.75476046066131e+001,-8.67827781760787e-001

3.16016524745350e+004,-1.75476113104248e+001,-8.79941880076967e-001

3.20427951035848e+004,-1.75476182026744e+001,-8.92225071060263e-001

3.24900958542493e+004,-1.75476252886577e+001,-9.04679714569370e-001

3.29436406907028e+004,-1.75476325738197e+001,-9.17308203379234e-001

3.34035167771346e+004,-1.75476400637577e+001,-9.30112963641821e-001

3.38698124945009e+004,-1.75476477642268e+001,-9.43096455348394e-001

3.43426174575100e+004,-1.75476556811435e+001,-9.56261172803829e-001

3.48220225318448e+004,-1.75476638205907e+001,-9.69609645101488e-001

3.53081198516260e+004,-1.75476721888218e+001,-9.83144436609807e-001

3.58010028371187e+004,-1.75476807922662e+001,-9.96868147461778e-001

3.63007662126863e+004,-1.75476896375340e+001,-1.01078341405371e+000

3.68075060249948e+004,-1.75476987314206e+001,-1.02489290954972e+000

3.73213196614721e+004,-1.75477080809125e+001,-1.03919934439476e+000

3.78423058690237e+004,-1.75477176931924e+001,-1.05370546683063e+000

3.83705647730104e+004,-1.75477275756449e+001,-1.06841406342492e+000

3.89061978964912e+004,-1.75477377358617e+001,-1.08332795960291e+000

3.94493081797342e+004,-1.75477481816478e+001,-1.09845002018876e+000

3.99999999999998e+004,-1.75477589210276e+001,-1.11378314995366e+000

4.05583791916010e+004,-1.75477699622508e+001,-1.12933029417066e+000

4.11245530662425e+004,-1.75477813137985e+001,-1.14509443917919e+000

4.16986304336447e+004,-1.75477929843904e+001,-1.16107861295608e+000

4.22807216224550e+004,-1.75478049829907e+001,-1.17728588569466e+000

4.28709385014515e+004,-1.75478173188156e+001,-1.19371937039108e+000

4.34693945010421e+004,-1.75478300013398e+001,-1.21038222344027e+000

4.40762046350642e+004,-1.75478430403043e+001,-1.22727764523956e+000

4.46914855228886e+004,-1.75478564457235e+001,-1.24440888079975e+000

4.53153554118317e+004,-1.75478702278931e+001,-1.26177922036500e+000

4.59479341998812e+004,-1.75478843973975e+001,-1.27939200004276e+000

4.65893434587380e+004,-1.75478989651186e+001,-1.29725060244018e+000

4.72397064571810e+004,-1.75479139422437e+001,-1.31535845731015e+000

4.78991481847569e+004,-1.75479293402742e+001,-1.33371904220687e+000

4.85677953758016e+004,-1.75479451710343e+001,-1.35233588314996e+000

4.92457765337964e+004,-1.75479614466800e+001,-1.37121255529647e+000

4.99332219560642e+004,-1.75479781797087e+001,-1.39035268362476e+000

5.06302637588109e+004,-1.75479953829685e+001,-1.40975994362597e+000

5.13370359025159e+004,-1.75480130696681e+001,-1.42943806200396e+000

5.20536742176771e+004,-1.75480312533868e+001,-1.44939081738867e+000

5.27803164309155e+004,-1.75480499480853e+001,-1.46962204105432e+000

5.35171021914442e+004,-1.75480691681157e+001,-1.49013561765182e+000

5.42641730979066e+004,-1.75480889282330e+001,-1.51093548594850e+000

5.50216727255895e+004,-1.75481092436063e+001,-1.53202563957864e+000

5.57897466540159e+004,-1.75481301298301e+001,-1.55341012780557e+000

5.65685424949235e+004,-1.75481516029367e+001,-1.57509305629173e+000

5.73582099206328e+004,-1.75481736794078e+001,-1.59707858788159e+000

5.81589006928121e+004,-1.75481963761879e+001,-1.61937094339406e+000

5.89707686916437e+004,-1.75482197106966e+001,-1.64197440242577e+000

5.97939699453972e+004,-1.75482437008420e+001,-1.66489330416633e+000

6.06286626604156e+004,-1.75482683650346e+001,-1.68813204822273e+000

6.14750072515201e+004,-1.75482937222014e+001,-1.71169509545688e+000

6.23331663728396e+004,-1.75483197917999e+001,-1.73558696883460e+000

6.32033049490698e+004,-1.75483465938335e+001,-1.75981225428348e+000

6.40855902071694e+004,-1.75483741488662e+001,-1.78437560156665e+000

6.49801917084985e+004,-1.75484024780389e+001,-1.80928172516429e+000

6.58872813814055e+004,-1.75484316030850e+001,-1.83453540517012e+000

6.68070335542691e+004,-1.75484615463472e+001,-1.86014148819881e+000

6.77396249890018e+004,-1.75484923307945e+001,-1.88610488830534e+000

6.86852349150199e+004,-1.75485239800397e+001,-1.91243058791793e+000

6.96440450636895e+004,-1.75485565183575e+001,-1.93912363878186e+000

7.06162397032520e+004,-1.75485899707027e+001,-1.96618916291955e+000

7.16020056742374e+004,-1.75486243627296e+001,-1.99363235359797e+000

7.26015324253724e+004,-1.75486597208112e+001,-2.02145847631546e+000

7.36150120499896e+004,-1.75486960720593e+001,-2.04967286979764e+000

7.46426393229441e+004,-1.75487334443454e+001,-2.07828094700692e+000

7.56846117380472e+004,-1.75487718663215e+001,-2.10728819616877e+000

7.67411295460207e+004,-1.75488113674423e+001,-2.13670018180804e+000

7.78123957929823e+004,-1.75488519779874e+001,-2.16652254580131e+000

7.88986163594682e+004,-1.75488937290840e+001,-2.19676100844299e+000

7.99999999999995e+004,-1.75489366527312e+001,-2.22742136952635e+000

8.11167583832018e+004,-1.75489807818238e+001,-2.25850950943677e+000

8.22491061324848e+004,-1.75490261501773e+001,-2.29003139026262e+000

8.33972608672892e+004,-1.75490727925540e+001,-2.32199305691889e+000

8.45614432449099e+004,-1.75491207446887e+001,-2.35440063828654e+000

8.57418770029029e+004,-1.75491700433165e+001,-2.38726034836753e+000

8.69387890020841e+004,-1.75492207261999e+001,-2.42057848745418e+000

8.81524092701283e+004,-1.75492728321581e+001,-2.45436144331442e+000

8.93829710457770e+004,-1.75493264010962e+001,-2.48861569239403e+000

9.06307108236633e+004,-1.75493814740349e+001,-2.52334780103257e+000

9.18958683997622e+004,-1.75494380931425e+001,-2.55856442669742e+000

9.31786869174758e+004,-1.75494963017659e+001,-2.59427231923338e+000

9.44794129143618e+004,-1.75495561444639e+001,-2.63047832212795e+000

9.57982963695136e+004,-1.75496176670408e+001,-2.66718937379490e+000

9.71355907516031e+004,-1.75496809165807e+001,-2.70441250887404e+000

9.84915530675926e+004,-1.75497459414835e+001,-2.74215485954663e+000

9.98664439121282e+004,-1.75498127915011e+001,-2.78042365687175e+000

1.01260527517622e+005,-1.75498815177751e+001,-2.81922623213512e+000

1.02674071805032e+005,-1.75499521728752e+001,-2.85857001822023e+000

1.04107348435354e+005,-1.75500248108390e+001,-2.89846255099449e+000

1.05560632861831e+005,-1.75500994872126e+001,-2.93891147071386e+000

1.07034204382888e+005,-1.75501762590923e+001,-2.97992452344770e+000

1.08528346195813e+005,-1.75502551851676e+001,-3.02150956251896e+000

1.10043345451179e+005,-1.75503363257656e+001,-3.06367454996552e+000

1.11579493308032e+005,-1.75504197428959e+001,-3.10642755801883e+000

1.13137084989847e+005,-1.75505055002974e+001,-3.14977677060354e+000

1.14716419841265e+005,-1.75505936634861e+001,-3.19373048485324e+000

1.16317801385624e+005,-1.75506842998040e+001,-3.23829711264959e+000

1.17941537383287e+005,-1.75507774784701e+001,-3.28348518217703e+000

1.19587939890794e+005,-1.75508732706316e+001,-3.32930333950129e+000

1.21257325320831e+005,-1.75509717494174e+001,-3.37576035016445e+000

1.22950014503040e+005,-1.75510729899928e+001,-3.42286510080312e+000

1.24666332745679e+005,-1.75511770696157e+001,-3.47062660078547e+000

1.26406609898139e+005,-1.75512840676943e+001,-3.51905398386842e+000

1.28171180414339e+005,-1.75513940658458e+001,-3.56815650987818e+000

1.29960383416997e+005,-1.75515071479581e+001,-3.61794356640910e+000

1.31774562762811e+005,-1.75516234002516e+001,-3.66842467054527e+000

1.33614067108538e+005,-1.75517429113434e+001,-3.71960947060300e+000

1.35479249978003e+005,-1.75518657723136e+001,-3.77150774789619e+000

1.37370469830040e+005,-1.75519920767724e+001,-3.82412941852128e+000

1.39288090127379e+005,-1.75521219209297e+001,-3.87748453516640e+000

1.41232479406504e+005,-1.75522554036669e+001,-3.93158328894141e+000

1.43204011348474e+005,-1.75523926266093e+001,-3.98643601123152e+000

1.45203064850745e+005,-1.75525336942016e+001,-4.04205317557215e+000

1.47230024099979e+005,-1.75526787137854e+001,-4.09844539954773e+000

1.49285278645888e+005,-1.75528277956778e+001,-4.15562344671275e+000

1.51369223476094e+005,-1.75529810532533e+001,-4.21359822853693e+000

1.53482259092041e+005,-1.75531386030269e+001,-4.27238080637239e+000

1.55624791585964e+005,-1.75533005647398e+001,-4.33198239344553e+000

1.57797232718936e+005,-1.75534670614477e+001,-4.39241435687162e+000

1.59999999999999e+005,-1.75536382196105e+001,-4.45368821969471e+000

1.62233516766403e+005,-1.75538141691857e+001,-4.51581566294921e+000

1.64498212264969e+005,-1.75539950437225e+001,-4.57880852774869e+000

1.66794521734578e+005,-1.75541809804606e+001,-4.64267881739600e+000

1.69122886489819e+005,-1.75543721204292e+001,-4.70743869951993e+000

1.71483754005805e+005,-1.75545686085504e+001,-4.77310050823623e+000

1.73877578004168e+005,-1.75547705937447e+001,-4.83967674633213e+000

1.76304818540256e+005,-1.75549782290387e+001,-4.90718008747777e+000

1.78765942091554e+005,-1.75551916716765e+001,-4.97562337846052e+000

1.81261421647326e+005,-1.75554110832335e+001,-5.04501964144672e+000

1.83791736799524e+005,-1.75556366297332e+001,-5.11538207626676e+000

1.86357373834951e+005,-1.75558684817671e+001,-5.18672406272683e+000

1.88958825828723e+005,-1.75561068146173e+001,-5.25905916294558e+000

1.91596592739027e+005,-1.75563518083832e+001,-5.33240112371673e+000

1.94271181503206e+005,-1.75566036481102e+001,-5.40676387889735e+000

1.96983106135185e+005,-1.75568625239227e+001,-5.48216155182140e+000

1.99732887824256e+005,-1.75571286311600e+001,-5.55860845773999e+000

2.02521055035243e+005,-1.75574021705159e+001,-5.63611910628705e+000

2.05348143610063e+005,-1.75576833481812e+001,-5.71470820397107e+000

2.08214696870707e+005,-1.75579723759910e+001,-5.79439065669285e+000

2.11121265723661e+005,-1.75582694715747e+001,-5.87518157228923e+000

2.14068408765776e+005,-1.75585748585099e+001,-5.95709626310342e+000

2.17056692391625e+005,-1.75588887664805e+001,-6.04015024858080e+000

2.20086690902357e+005,-1.75592114314391e+001,-6.12435925789093e+000

2.23158986616063e+005,-1.75595430957718e+001,-6.20973923257656e+000

2.26274169979693e+005,-1.75598840084696e+001,-6.29630632922686e+000

2.29432839682530e+005,-1.75602344253014e+001,-6.38407692217901e+000

2.32635602771247e+005,-1.75605946089934e+001,-6.47306760624384e+000

2.35883074766574e+005,-1.75609648294120e+001,-6.56329519945865e+000

2.39175879781588e+005,-1.75613453637505e+001,-6.65477674586490e+000

2.42514650641661e+005,-1.75617364967220e+001,-6.74752951831326e+000

2.45900029006080e+005,-1.75621385207553e+001,-6.84157102129216e+000

2.49332665491357e+005,-1.75625517361970e+001,-6.93691899378369e+000

2.52813219796278e+005,-1.75629764515169e+001,-7.03359141214406e+000

2.56342360828676e+005,-1.75634129835202e+001,-7.13160649300992e+000

2.59920766833993e+005,-1.75638616575629e+001,-7.23098269622870e+000

2.63549125525621e+005,-1.75643228077737e+001,-7.33173872781532e+000

2.67228134217075e+005,-1.75647967772804e+001,-7.43389354293256e+000

2.70958499956006e+005,-1.75652839184421e+001,-7.53746634889547e+000

2.74740939660078e+005,-1.75657845930863e+001,-7.64247660820195e+000

2.78576180254757e+005,-1.75662991727523e+001,-7.74894404158543e+000

2.82464958813007e+005,-1.75668280389392e+001,-7.85688863109150e+000

2.86408022696948e+005,-1.75673715833612e+001,-7.96633062317905e+000

2.90406129701488e+005,-1.75679302082069e+001,-8.07729053184304e+000

2.94460048199957e+005,-1.75685043264057e+001,-8.18978914176107e+000

2.98570557291775e+005,-1.75690943619006e+001,-8.30384751146140e+000

3.02738446952187e+005,-1.75697007499256e+001,-8.41948697651376e+000

3.06964518184081e+005,-1.75703239372913e+001,-8.53672915274053e+000

3.11249583171928e+005,-1.75709643826754e+001,-8.65559593945059e+000

3.15594465437872e+005,-1.75716225569201e+001,-8.77610952269177e+000

3.19999999999997e+005,-1.75722989433366e+001,-8.89829237852534e+000

3.24467033532806e+005,-1.75729940380153e+001,-9.02216727631881e+000

3.28996424529938e+005,-1.75737083501439e+001,-9.14775728205813e+000

3.33589043469155e+005,-1.75744424023313e+001,-9.27508576167863e+000

3.38245772979638e+005,-1.75751967309393e+001,-9.40417638441339e+000

3.42967508011610e+005,-1.75759718864212e+001,-9.53505312615900e+000

3.47755156008335e+005,-1.75767684336670e+001,-9.66774027285835e+000

3.52609637080511e+005,-1.75775869523568e+001,-9.80226242389823e+000

3.57531884183106e+005,-1.75784280373210e+001,-9.93864449552388e+000

3.62522843294651e+005,-1.75792922989085e+001,-1.00769117242658e+001

3.67583473599047e+005,-1.75801803633615e+001,-1.02170896703821e+001

3.72714747669902e+005,-1.75810928731995e+001,-1.03592042213130e+001

3.77917651657445e+005,-1.75820304876093e+001,-1.05032815951468e+001

3.83193185478053e+005,-1.75829938828449e+001,-1.06493483440988e+001

3.88542363006410e+005,-1.75839837526333e+001,-1.07974313579979e+001

3.93966212270369e+005,-1.75850008085903e+001,-1.09475578677853e+001

3.99465775648511e+005,-1.75860457806428e+001,-1.10997554490196e+001

4.05042110070485e+005,-1.75871194174607e+001,-1.12540520253904e+001

4.10696287220124e+005,-1.75882224868961e+001,-1.14104758722375e+001

4.16429393741414e+005,-1.75893557764320e+001,-1.15690556200767e+001

4.22242531447321e+005,-1.75905200936382e+001,-1.17298202581281e+001

4.28136817531551e+005,-1.75917162666372e+001,-1.18927991378487e+001

4.34113384783250e+005,-1.75929451445777e+001,-1.20580219764675e+001

4.40173381804713e+005,-1.75942075981175e+001,-1.22255188605188e+001

4.46317973232124e+005,-1.75955045199152e+001,-1.23953202493783e+001

4.52548339959385e+005,-1.75968368251301e+001,-1.25674569787950e+001

4.58865679365059e+005,-1.75982054519326e+001,-1.27419602644208e+001

4.65271205542494e+005,-1.75996113620221e+001,-1.29188617053357e+001

4.71766149533147e+005,-1.76010555411551e+001,-1.30981932875672e+001

4.78351759563174e+005,-1.76025389996818e+001,-1.32799873876018e+001

4.85029301283321e+005,-1.76040627730930e+001,-1.34642767758886e+001

4.91800058012158e+005,-1.76056279225750e+001,-1.36510946203313e+001

4.98665330982714e+005,-1.76072355355755e+001,-1.38404744897697e+001

5.05626439592555e+005,-1.76088867263774e+001,-1.40324503574462e+001

5.12684721657352e+005,-1.76105826366837e+001,-1.42270566044581e+001

5.19841533667984e+005,-1.76123244362104e+001,-1.44243280231922e+001

5.27098251051240e+005,-1.76141133232910e+001,-1.46242998207408e+001

5.34456268434150e+005,-1.76159505254889e+001,-1.48270076222966e+001

5.41916999912011e+005,-1.76178373002208e+001,-1.50324874745257e+001

