Freq.,VOut,OutRef

1.00000000000000e+004,-5.98743582594952e+000,-5.77874903839867e-002

1.01395947979003e+004,-5.98743583700203e+000,-5.85941720091930e-002

1.02811382665607e+004,-5.98743584836524e+000,-5.94121144185178e-002

1.04246576084112e+004,-5.98743586004786e+000,-6.02414748038091e-002

1.05701804056138e+004,-5.98743587205870e+000,-6.10824125516561e-002

1.07177346253629e+004,-5.98743588440711e+000,-6.19350892723387e-002

1.08673486252606e+004,-5.98743589710270e+000,-6.27996688311604e-002

1.10190511587661e+004,-5.98743591015515e+000,-6.36763173827735e-002

1.11728713807222e+004,-5.98743592357401e+000,-6.45652034029958e-002

1.13288388529580e+004,-5.98743593737039e+000,-6.54664977119944e-002

1.14869835499703e+004,-5.98743595155424e+000,-6.63803735225896e-002

1.16473358646846e+004,-5.98743596613689e+000,-6.73070064591745e-002

1.18099266142953e+004,-5.98743598112920e+000,-6.82465746022073e-002

1.19747870461893e+004,-5.98743599654301e+000,-6.91992585140145e-002

1.21419488439505e+004,-5.98743601238972e+000,-7.01652412817502e-002

1.23114441334492e+004,-5.98743602868187e+000,-7.11447085432186e-002

1.24833054890161e+004,-5.98743604543184e+000,-7.21378485304177e-002

1.26575659397028e+004,-5.98743606265234e+000,-7.31448521031007e-002

1.28342589756290e+004,-5.98743608035699e+000,-7.41659127816482e-002

1.30134185544193e+004,-5.98743609855884e+000,-7.52012267931216e-002

1.31950791077289e+004,-5.98743611727246e+000,-7.62509930970308e-002

1.33792755478611e+004,-5.98743613651157e+000,-7.73154134371986e-002

1.35660432744767e+004,-5.98743615629163e+000,-7.83946923658476e-002

1.37554181813974e+004,-5.98743617662726e+000,-7.94890372975161e-002

1.39474366635040e+004,-5.98743619753441e+000,-8.05986585360303e-002

1.41421356237309e+004,-5.98743621902895e+000,-8.17237693243628e-002

1.43395524801583e+004,-5.98743624112718e+000,-8.28645858822041e-002

1.45397251732031e+004,-5.98743626384660e+000,-8.40213274419570e-002

1.47426921729110e+004,-5.98743628720422e+000,-8.51942163028107e-002

1.49484924863494e+004,-5.98743631121792e+000,-8.63834778638051e-002

1.51571656651040e+004,-5.98743633590651e+000,-8.75893406674716e-002

1.53687518128801e+004,-5.98743636128873e+000,-8.88120364502892e-002

1.55832915932100e+004,-5.98743638738379e+000,-9.00518001833371e-002

1.58008262372675e+004,-5.98743641421199e+000,-9.13088701140760e-002

1.60213975517924e+004,-5.98743644179407e+000,-9.25834878159351e-002

1.62450479271247e+004,-5.98743647015076e+000,-9.38758982380113e-002

1.64718203453514e+004,-5.98743649930410e+000,-9.51863497434211e-002

1.67017583885674e+004,-5.98743652927645e+000,-9.65150941642584e-002

1.69349062472505e+004,-5.98743656009049e+000,-9.78623868485640e-002

1.71713087287550e+004,-5.98743659177033e+000,-9.92284867042979e-002

1.74110112659224e+004,-5.98743662434002e+000,-1.00613656256787e-001

1.76540599258131e+004,-5.98743665782419e+000,-1.02018161697026e-001

1.79005014185594e+004,-5.98743669224913e+000,-1.03442272924233e-001

1.81503831063432e+004,-5.98743672764081e+000,-1.04886263611956e-001

1.84037530124975e+004,-5.98743676402648e+000,-1.06350411249470e-001

1.86606598307361e+004,-5.98743680143410e+000,-1.07834997199871e-001

1.89211529345119e+004,-5.98743683989223e+000,-1.09340306753498e-001

1.91852823865052e+004,-5.98743687943028e+000,-1.10866629183271e-001

1.94530989482457e+004,-5.98743692007877e+000,-1.12414257796093e-001

1.97246540898671e+004,-5.98743696186883e+000,-1.13983489995363e-001

1.99999999999999e+004,-5.98743700483226e+000,-1.15574627335530e-001

2.02791895958005e+004,-5.98743704900200e+000,-1.17187975578887e-001

2.05622765331213e+004,-5.98743709441203e+000,-1.18823844753840e-001

2.08493152168224e+004,-5.98743714109711e+000,-1.20482549216500e-001

2.11403608112276e+004,-5.98743718909298e+000,-1.22164407710800e-001

2.14354692507258e+004,-5.98743723843628e+000,-1.23869743429031e-001

2.17346972505211e+004,-5.98743728916466e+000,-1.25598884074767e-001

2.20381023175322e+004,-5.98743734131737e+000,-1.27352161920932e-001

2.23457427614443e+004,-5.98743739493418e+000,-1.29129913881639e-001

2.26576777059159e+004,-5.98743745005586e+000,-1.30932481573283e-001

2.29739670999406e+004,-5.98743750672491e+000,-1.32760211376119e-001

2.32946717293690e+004,-5.98743756498446e+000,-1.34613454508041e-001

2.36198532285905e+004,-5.98743762487938e+000,-1.36492567084553e-001

2.39495740923785e+004,-5.98743768645534e+000,-1.38397910193854e-001

2.42838976879009e+004,-5.98743774975908e+000,-1.40329849964916e-001

2.46228882668982e+004,-5.98743781483959e+000,-1.42288757629457e-001

2.49666109780322e+004,-5.98743788174631e+000,-1.44275009605872e-001

2.53151318794055e+004,-5.98743795053042e+000,-1.46288987562825e-001

2.56685179512580e+004,-5.98743802124457e+000,-1.48331078495329e-001

2.60268371088386e+004,-5.98743809394260e+000,-1.50401674799661e-001

2.63901582154578e+004,-5.98743816868041e+000,-1.52501174345112e-001

2.67585510957221e+004,-5.98743824551477e+000,-1.54629980556700e-001

2.71320865489533e+004,-5.98743832450471e+000,-1.56788502484689e-001

2.75108363627948e+004,-5.98743840571011e+000,-1.58977154892218e-001

2.78948733270080e+004,-5.98743848919337e+000,-1.61196358325091e-001

2.82842712474618e+004,-5.98743857501794e+000,-1.63446539200709e-001

2.86791049603164e+004,-5.98743866324954e+000,-1.65728129883867e-001

2.90794503464061e+004,-5.98743875395552e+000,-1.68041568773585e-001

2.94853843458219e+004,-5.98743884720494e+000,-1.70387300386643e-001

2.98969849726987e+004,-5.98743894306888e+000,-1.72765775441700e-001

3.03143313302078e+004,-5.98743904162069e+000,-1.75177450944260e-001

3.07375036257601e+004,-5.98743914293525e+000,-1.77622790279598e-001

3.11665831864199e+004,-5.98743924708996e+000,-1.80102263295338e-001

3.16016524745350e+004,-5.98743935416425e+000,-1.82616346395720e-001

3.20427951035848e+004,-5.98743946423937e+000,-1.85165522633367e-001

3.24900958542493e+004,-5.98743957739972e+000,-1.87750281795699e-001

3.29436406907028e+004,-5.98743969373096e+000,-1.90371120509513e-001

3.34035167771346e+004,-5.98743981332191e+000,-1.93028542325440e-001

3.38698124945009e+004,-5.98743993626346e+000,-1.95723057821980e-001

3.43426174575100e+004,-5.98744006264926e+000,-1.98455184698847e-001

3.48220225318448e+004,-5.98744019257538e+000,-2.01225447879426e-001

3.53081198516260e+004,-5.98744032614082e+000,-2.04034379607725e-001

3.58010028371187e+004,-5.98744046344674e+000,-2.06882519556961e-001

3.63007662126863e+004,-5.98744060459793e+000,-2.09770414922937e-001

3.68075060249948e+004,-5.98744074970116e+000,-2.12698620540718e-001

3.73213196614721e+004,-5.98744089886710e+000,-2.15667698979094e-001

3.78423058690237e+004,-5.98744105220863e+000,-2.18678220658840e-001

3.83705647730104e+004,-5.98744120984235e+000,-2.21730763954691e-001

3.89061978964912e+004,-5.98744137188783e+000,-2.24825915309184e-001

3.94493081797342e+004,-5.98744153846773e+000,-2.27964269346931e-001

3.99999999999998e+004,-5.98744170970856e+000,-2.31146428982829e-001

4.05583791916010e+004,-5.98744188574000e+000,-2.34373005543037e-001

4.11245530662425e+004,-5.98744206669550e+000,-2.37644618878947e-001

4.16986304336447e+004,-5.98744225271193e+000,-2.40961897488004e-001

4.22807216224550e+004,-5.98744244393021e+000,-2.44325478631733e-001

4.28709385014515e+004,-5.98744264049478e+000,-2.47736008461120e-001

4.34693945010421e+004,-5.98744284255439e+000,-2.51194142135566e-001

4.40762046350642e+004,-5.98744305026194e+000,-2.54700543951353e-001

4.46914855228886e+004,-5.98744326377405e+000,-2.58255887470484e-001

4.53153554118317e+004,-5.98744348325199e+000,-2.61860855645732e-001

4.59479341998812e+004,-5.98744370886151e+000,-2.65516140952862e-001

4.65893434587380e+004,-5.98744394077271e+000,-2.69222445523732e-001

4.72397064571810e+004,-5.98744417916041e+000,-2.72980481280681e-001

4.78991481847569e+004,-5.98744442420423e+000,-2.76790970071856e-001

4.85677953758016e+004,-5.98744467608863e+000,-2.80654643809536e-001

4.92457765337964e+004,-5.98744493500328e+000,-2.84572244610243e-001

4.99332219560642e+004,-5.98744520114278e+000,-2.88544524937111e-001

5.06302637588109e+004,-5.98744547470727e+000,-2.92572247742264e-001

5.13370359025159e+004,-5.98744575590217e+000,-2.96656186614714e-001

5.20536742176771e+004,-5.98744604493861e+000,-3.00797125926554e-001

5.27803164309155e+004,-5.98744634203336e+000,-3.04995860983488e-001

5.35171021914442e+004,-5.98744664740914e+000,-3.09253198177064e-001

5.42641730979066e+004,-5.98744696129471e+000,-3.13569955137955e-001

5.50216727255895e+004,-5.98744728392489e+000,-3.17946960893948e-001

5.57897466540159e+004,-5.98744761554117e+000,-3.22385056024373e-001

5.65685424949235e+004,-5.98744795639137e+000,-3.26885092824724e-001

5.73582099206328e+004,-5.98744830672988e+000,-3.31447935468778e-001

5.81589006928121e+004,-5.98744866681806e+000,-3.36074460171195e-001

5.89707686916437e+004,-5.98744903692462e+000,-3.40765555355124e-001

5.97939699453972e+004,-5.98744941732498e+000,-3.45522121825116e-001

6.06286626604156e+004,-5.98744980830229e+000,-3.50345072934966e-001

6.14750072515201e+004,-5.98745021014717e+000,-3.55235334764025e-001

6.23331663728396e+004,-5.98745062315805e+000,-3.60193846293234e-001

6.32033049490698e+004,-5.98745104764157e+000,-3.65221559582624e-001

6.40855902071694e+004,-5.98745148391227e+000,-3.70319439956371e-001

6.49801917084985e+004,-5.98745193229312e+000,-3.75488466184041e-001

6.58872813814055e+004,-5.98745239311575e+000,-3.80729630667590e-001

6.68070335542691e+004,-5.98745286672076e+000,-3.86043939629482e-001

6.77396249890018e+004,-5.98745335345763e+000,-3.91432413306342e-001

6.86852349150199e+004,-5.98745385368503e+000,-3.96896086142141e-001

6.96440450636895e+004,-5.98745436777125e+000,-4.02436006984687e-001

7.06162397032520e+004,-5.98745489609452e+000,-4.08053239284282e-001

7.16020056742374e+004,-5.98745543904261e+000,-4.13748861299455e-001

7.26015324253724e+004,-5.98745599701369e+000,-4.19523966298797e-001

7.36150120499896e+004,-5.98745657041640e+000,-4.25379662769564e-001

7.46426393229441e+004,-5.98745715967021e+000,-4.31317074628061e-001

7.56846117380472e+004,-5.98745776520541e+000,-4.37337341434495e-001

7.67411295460207e+004,-5.98745838746338e+000,-4.43441618609342e-001

7.78123957929823e+004,-5.98745902689738e+000,-4.49631077649449e-001

7.88986163594682e+004,-5.98745968397213e+000,-4.55906906355034e-001

7.99999999999995e+004,-5.98746035916442e+000,-4.62270309052524e-001

8.11167583832018e+004,-5.98746105296359e+000,-4.68722506822389e-001

8.22491061324848e+004,-5.98746176587121e+000,-4.75264737733519e-001

8.33972608672892e+004,-5.98746249840211e+000,-4.81898257073860e-001

8.45614432449099e+004,-5.98746325108405e+000,-4.88624337592165e-001

8.57418770029029e+004,-5.98746402445851e+000,-4.95444269735760e-001

8.69387890020841e+004,-5.98746481908064e+000,-5.02359361897402e-001

8.81524092701283e+004,-5.98746563551965e+000,-5.09370940661528e-001

8.93829710457770e+004,-5.98746647435929e+000,-5.16480351055253e-001

9.06307108236633e+004,-5.98746733619784e+000,-5.23688956803744e-001

9.18958683997622e+004,-5.98746822164888e+000,-5.30998140585713e-001

9.31786869174758e+004,-5.98746913134117e+000,-5.38409304297582e-001

9.44794129143618e+004,-5.98747006591930e+000,-5.45923869314931e-001

9.57982963695136e+004,-5.98747102604371e+000,-5.53543276764442e-001

9.71355907516031e+004,-5.98747201239139e+000,-5.61268987791821e-001

9.84915530675926e+004,-5.98747302565604e+000,-5.69102483839903e-001

9.98664439121282e+004,-5.98747406654811e+000,-5.77045266928180e-001

1.01260527517622e+005,-5.98747513579579e+000,-5.85098859932819e-001

1.02674071805032e+005,-5.98747623414462e+000,-5.93264806877124e-001

1.04107348435354e+005,-5.98747736235856e+000,-6.01544673218386e-001

1.05560632861831e+005,-5.98747852121982e+000,-6.09940046144259e-001

1.07034204382888e+005,-5.98747971152920e+000,-6.18452534871674e-001

1.08528346195813e+005,-5.98748093410688e+000,-6.27083770946721e-001

1.10043345451179e+005,-5.98748218979229e+000,-6.35835408553290e-001

1.11579493308032e+005,-5.98748347944453e+000,-6.44709124822596e-001

1.13137084989847e+005,-5.98748480394331e+000,-6.53706620144987e-001

1.14716419841265e+005,-5.98748616418823e+000,-6.62829618493488e-001

1.16317801385624e+005,-5.98748756110001e+000,-6.72079867742387e-001

1.17941537383287e+005,-5.98748899562041e+000,-6.81459139996149e-001

1.19587939890794e+005,-5.98749046871267e+000,-6.90969231919644e-001

1.21257325320831e+005,-5.98749198136187e+000,-7.00611965074684e-001

1.22950014503040e+005,-5.98749353457509e+000,-7.10389186259771e-001

1.24666332745679e+005,-5.98749512938193e+000,-7.20302767853805e-001

1.26406609898139e+005,-5.98749676683454e+000,-7.30354608166958e-001

1.28171180414339e+005,-5.98749844800823e+000,-7.40546631791946e-001

1.29960383416997e+005,-5.98750017400149e+000,-7.50880789963716e-001

1.31774562762811e+005,-5.98750194593645e+000,-7.61359060920990e-001

1.33614067108538e+005,-5.98750376495890e+000,-7.71983450275585e-001

1.35479249978003e+005,-5.98750563223884e+000,-7.82755991382155e-001

1.37370469830040e+005,-5.98750754897042e+000,-7.93678745717639e-001

1.39288090127379e+005,-5.98750951637217e+000,-8.04753803262163e-001

1.41232479406504e+005,-5.98751153568753e+000,-8.15983282884524e-001

1.43204011348474e+005,-5.98751360818442e+000,-8.27369332737036e-001

1.45203064850745e+005,-5.98751573515592e+000,-8.38914130649532e-001

1.47230024099979e+005,-5.98751791792013e+000,-8.50619884532256e-001

1.49285278645888e+005,-5.98752015782007e+000,-8.62488832784353e-001

1.51369223476094e+005,-5.98752245622428e+000,-8.74523244702578e-001

1.53482259092041e+005,-5.98752481452605e+000,-8.86725420903551e-001

1.55624791585964e+005,-5.98752723414421e+000,-8.99097693741654e-001

1.57797232718936e+005,-5.98752971652241e+000,-9.11642427740465e-001

1.59999999999999e+005,-5.98753226312934e+000,-9.24362020025543e-001

1.62233516766403e+005,-5.98753487545862e+000,-9.37258900762126e-001

1.64498212264969e+005,-5.98753755502836e+000,-9.50335533601434e-001

1.66794521734578e+005,-5.98754030338097e+000,-9.63594416130049e-001

1.69122886489819e+005,-5.98754312208292e+000,-9.77038080325478e-001

1.71483754005805e+005,-5.98754601272429e+000,-9.90669093017739e-001

1.73877578004168e+005,-5.98754897691851e+000,-1.00449005635574e+000

1.76304818540256e+005,-5.98755201630141e+000,-1.01850360828237e+000

1.78765942091554e+005,-5.98755513253094e+000,-1.03271242301145e+000

1.81261421647326e+005,-5.98755832728650e+000,-1.04711921151271e+000

1.83791736799524e+005,-5.98756160226792e+000,-1.06172672200414e+000

1.86357373834951e+005,-5.98756495919484e+000,-1.07653774044644e+000

1.88958825828723e+005,-5.98756839980557e+000,-1.09155509104812e+000

1.91596592739027e+005,-5.98757192585609e+000,-1.10678163677306e+000

1.94271181503206e+005,-5.98757553911881e+000,-1.12222027985667e+000

1.96983106135185e+005,-5.98757924138131e+000,-1.13787396232718e+000

1.99732887824256e+005,-5.98758303444476e+000,-1.15374566653364e+000

2.02521055035243e+005,-5.98758692012242e+000,-1.16983841568088e+000

2.05348143610063e+005,-5.98759090023804e+000,-1.18615527436839e+000

2.08214696870707e+005,-5.98759497662363e+000,-1.20269934914032e+000

2.11121265723661e+005,-5.98759915111763e+000,-1.21947378903787e+000

2.14068408765776e+005,-5.98760342556267e+000,-1.23648178616005e+000

2.17056692391625e+005,-5.98760780180294e+000,-1.25372657623162e+000

2.20086690902357e+005,-5.98761228168186e+000,-1.27121143917641e+000

2.23158986616063e+005,-5.98761686703898e+000,-1.28893969969912e+000

2.26274169979693e+005,-5.98762155970701e+000,-1.30691472787294e+000

2.29432839682530e+005,-5.98762636150860e+000,-1.32513993973442e+000

2.32635602771247e+005,-5.98763127425242e+000,-1.34361879788635e+000

2.35883074766574e+005,-5.98763629972996e+000,-1.36235481210510e+000

2.39175879781588e+005,-5.98764143971075e+000,-1.38135153995881e+000

2.42514650641661e+005,-5.98764669593848e+000,-1.40061258743036e+000

2.45900029006080e+005,-5.98765207012593e+000,-1.42014160954843e+000

2.49332665491357e+005,-5.98765756395001e+000,-1.43994231102680e+000

2.52813219796278e+005,-5.98766317904665e+000,-1.46001844690775e+000

2.56342360828676e+005,-5.98766891700437e+000,-1.48037382321979e+000

2.59920766833993e+005,-5.98767477935889e+000,-1.50101229763529e+000

2.63549125525621e+005,-5.98768076758584e+000,-1.52193778014216e+000

2.67228134217075e+005,-5.98768688309427e+000,-1.54315423371931e+000

2.70958499956006e+005,-5.98769312721887e+000,-1.56466567502260e+000

2.74740939660078e+005,-5.98769950121216e+000,-1.58647617507708e+000

2.78576180254757e+005,-5.98770600623587e+000,-1.60858985997931e+000

2.82464958813007e+005,-5.98771264335227e+000,-1.63101091160500e+000

2.86408022696948e+005,-5.98771941351410e+000,-1.65374356832941e+000

2.90406129701488e+005,-5.98772631755490e+000,-1.67679212575128e+000

2.94460048199957e+005,-5.98773335617802e+000,-1.70016093742953e+000

2.98570557291775e+005,-5.98774052994504e+000,-1.72385441562631e+000

3.02738446952187e+005,-5.98774783926402e+000,-1.74787703205954e+000

3.06964518184081e+005,-5.98775528437629e+000,-1.77223331866447e+000

3.11249583171928e+005,-5.98776286534323e+000,-1.79692786836473e+000

3.15594465437872e+005,-5.98777058203155e+000,-1.82196533585213e+000

3.19999999999997e+005,-5.98777843409831e+000,-1.84735043837613e+000

3.24467033532806e+005,-5.98778642097473e+000,-1.87308795654309e+000

3.28996424529938e+005,-5.98779454184936e+000,-1.89918273512444e+000

3.33589043469155e+005,-5.98780279564985e+000,-1.92563968387698e+000

3.38245772979638e+005,-5.98781118102442e+000,-1.95246377836973e+000

3.42967508011610e+005,-5.98781969632150e+000,-1.97966006082556e+000

3.47755156008335e+005,-5.98782833956888e+000,-2.00723364096914e+000

3.52609637080511e+005,-5.98783710845148e+000,-2.03518969688896e+000

3.57531884183106e+005,-5.98784600028802e+000,-2.06353347590807e+000

3.62522843294651e+005,-5.98785501200621e+000,-2.09227029546737e+000

3.67583473599047e+005,-5.98786414011711e+000,-2.12140554402063e+000

3.72714747669902e+005,-5.98787338068757e+000,-2.15094468194010e+000

3.77917651657445e+005,-5.98788272931199e+000,-2.18089324243434e+000

3.83193185478053e+005,-5.98789218108163e+000,-2.21125683248118e+000

3.88542363006410e+005,-5.98790173055351e+000,-2.24204113376881e+000

3.93966212270369e+005,-5.98791137171689e+000,-2.27325190365391e+000

3.99465775648511e+005,-5.98792109795857e+000,-2.30489497613079e+000

4.05042110070485e+005,-5.98793090202610e+000,-2.33697626281614e+000

4.10696287220124e+005,-5.98794077598984e+000,-2.36950175394608e+000

4.16429393741414e+005,-5.98795071120245e+000,-2.40247751938953e+000

4.22242531447321e+005,-5.98796069825696e+000,-2.43590970967578e+000

4.28136817531551e+005,-5.98797072694279e+000,-2.46980455703766e+000

4.34113384783250e+005,-5.98798078619966e+000,-2.50416837647098e+000

4.40173381804713e+005,-5.98799086406934e+000,-2.53900756681072e+000

4.46317973232124e+005,-5.98800094764532e+000,-2.57432861182403e+000

4.52548339959385e+005,-5.98801102302040e+000,-2.61013808131985e+000

4.58865679365059e+005,-5.98802107523137e+000,-2.64644263228010e+000

4.65271205542494e+005,-5.98803108820221e+000,-2.68324901000513e+000

4.71766149533147e+005,-5.98804104468390e+000,-2.72056404928282e+000

4.78351759563174e+005,-5.98805092619234e+000,-2.75839467557581e+000

4.85029301283321e+005,-5.98806071294322e+000,-2.79674790623029e+000

4.91800058012158e+005,-5.98807038378475e+000,-2.83563085170643e+000

4.98665330982714e+005,-5.98807991612702e+000,-2.87505071683120e+000

5.05626439592555e+005,-5.98808928586893e+000,-2.91501480207522e+000

5.12684721657352e+005,-5.98809846732230e+000,-2.95553050485268e+000

5.19841533667984e+005,-5.98810743313259e+000,-2.99660532084783e+000

5.27098251051240e+005,-5.98811615419721e+000,-3.03824684536568e+000

5.34456268434150e+005,-5.98812459958005e+000,-3.08046277471251e+000

5.41916999912011e+005,-5.98813273642360e+000,-3.12326090760050e+000

