Freq.,VOut,OutRef

1.00000000000000e+004,-1.97127902038799e+001,-1.56045566657641e-001

1.01395947979003e+004,-1.97127904981420e+001,-1.58223877844668e-001

1.02811382665607e+004,-1.97127908006767e+001,-1.60432596964753e-001

1.04246576084112e+004,-1.97127911117168e+001,-1.62672148488022e-001

1.05701804056138e+004,-1.97127914315012e+001,-1.64942962812791e-001

1.07177346253629e+004,-1.97127917602758e+001,-1.67245476344315e-001

1.08673486252606e+004,-1.97127920982933e+001,-1.69580131579108e-001

1.10190511587661e+004,-1.97127924458138e+001,-1.71947377189600e-001

1.11728713807222e+004,-1.97127928031041e+001,-1.74347668113900e-001

1.13288388529580e+004,-1.97127931704390e+001,-1.76781465638099e-001

1.14869835499703e+004,-1.97127935481008e+001,-1.79249237487994e-001

1.16473358646846e+004,-1.97127939363800e+001,-1.81751457917394e-001

1.18099266142953e+004,-1.97127943355750e+001,-1.84288607800844e-001

1.19747870461893e+004,-1.97127947459925e+001,-1.86861174726440e-001

1.21419488439505e+004,-1.97127951679483e+001,-1.89469653085017e-001

1.23114441334492e+004,-1.97127956017666e+001,-1.92114544171960e-001

1.24833054890161e+004,-1.97127960477809e+001,-1.94796356277361e-001

1.26575659397028e+004,-1.97127965063339e+001,-1.97515604788403e-001

1.28342589756290e+004,-1.97127969777784e+001,-2.00272812284219e-001

1.30134185544193e+004,-1.97127974624767e+001,-2.03068508639731e-001

1.31950791077289e+004,-1.97127979608013e+001,-2.05903231125292e-001

1.33792755478611e+004,-1.97127984731353e+001,-2.08777524512343e-001

1.35660432744767e+004,-1.97127989998726e+001,-2.11691941173649e-001

1.37554181813974e+004,-1.97127995414180e+001,-2.14647041195388e-001

1.39474366635040e+004,-1.97128000981880e+001,-2.17643392477626e-001

1.41421356237309e+004,-1.97128006706103e+001,-2.20681570851960e-001

1.43395524801583e+004,-1.97128012591252e+001,-2.23762160184079e-001

1.45397251732031e+004,-1.97128018641849e+001,-2.26885752490405e-001

1.47426921729110e+004,-1.97128024862545e+001,-2.30052948051870e-001

1.49484924863494e+004,-1.97128031258124e+001,-2.33264355526417e-001

1.51571656651040e+004,-1.97128037833500e+001,-2.36520592069080e-001

1.53687518128801e+004,-1.97128044593729e+001,-2.39822283448541e-001

1.55832915932100e+004,-1.97128051544006e+001,-2.43170064168211e-001

1.58008262372675e+004,-1.97128058689675e+001,-2.46564577587581e-001

1.60213975517924e+004,-1.97128066036228e+001,-2.50006476046752e-001

1.62450479271247e+004,-1.97128073589311e+001,-2.53496420990795e-001

1.64718203453514e+004,-1.97128081354734e+001,-2.57035083095194e-001

1.67017583885674e+004,-1.97128089338461e+001,-2.60623142400649e-001

1.69349062472505e+004,-1.97128097546631e+001,-2.64261288436862e-001

1.71713087287550e+004,-1.97128105985556e+001,-2.67950220357170e-001

1.74110112659224e+004,-1.97128114661718e+001,-2.71690647076169e-001

1.76540599258131e+004,-1.97128123581790e+001,-2.75483287400659e-001

1.79005014185594e+004,-1.97128132752626e+001,-2.79328870171870e-001

1.81503831063432e+004,-1.97128142181277e+001,-2.83228134402040e-001

1.84037530124975e+004,-1.97128151874989e+001,-2.87181829420688e-001

1.86606598307361e+004,-1.97128161841214e+001,-2.91190715013966e-001

1.89211529345119e+004,-1.97128172087612e+001,-2.95255561573002e-001

1.91852823865052e+004,-1.97128182622059e+001,-2.99377150242310e-001

1.94530989482457e+004,-1.97128193452653e+001,-3.03556273067447e-001

1.97246540898671e+004,-1.97128204587718e+001,-3.07793733150010e-001

1.99999999999999e+004,-1.97128216035812e+001,-3.12090344800331e-001

2.02791895958005e+004,-1.97128227805737e+001,-3.16446933692814e-001

2.05622765331213e+004,-1.97128239906538e+001,-3.20864337027850e-001

2.08493152168224e+004,-1.97128252347516e+001,-3.25343403688805e-001

2.11403608112276e+004,-1.97128265138232e+001,-3.29884994408098e-001

2.14354692507258e+004,-1.97128278288519e+001,-3.34489981929593e-001

2.17346972505211e+004,-1.97128291808486e+001,-3.39159251177864e-001

2.20381023175322e+004,-1.97128305708520e+001,-3.43893699430089e-001

2.23457427614443e+004,-1.97128319999308e+001,-3.48694236484278e-001

2.26576777059159e+004,-1.97128334691834e+001,-3.53561784835172e-001

2.29739670999406e+004,-1.97128349797388e+001,-3.58497279855122e-001

2.32946717293690e+004,-1.97128365327583e+001,-3.63501669967668e-001

2.36198532285905e+004,-1.97128381294352e+001,-3.68575916834767e-001

2.39495740923785e+004,-1.97128397709971e+001,-3.73720995537138e-001

2.42838976879009e+004,-1.97128414587051e+001,-3.78937894767342e-001

2.46228882668982e+004,-1.97128431938568e+001,-3.84227617011278e-001

2.49666109780322e+004,-1.97128449777855e+001,-3.89591178749318e-001

2.53151318794055e+004,-1.97128468118623e+001,-3.95029610644426e-001

2.56685179512580e+004,-1.97128486974968e+001,-4.00543957745063e-001

2.60268371088386e+004,-1.97128506361383e+001,-4.06135279682333e-001

2.63901582154578e+004,-1.97128526292764e+001,-4.11804650876506e-001

2.67585510957221e+004,-1.97128546784432e+001,-4.17553160739010e-001

2.71320865489533e+004,-1.97128567852133e+001,-4.23381913886427e-001

2.75108363627948e+004,-1.97128589512060e+001,-4.29292030348421e-001

2.78948733270080e+004,-1.97128611780856e+001,-4.35284645786571e-001

2.82842712474618e+004,-1.97128634675637e+001,-4.41360911707468e-001

2.86791049603164e+004,-1.97128658213996e+001,-4.47521995688416e-001

2.90794503464061e+004,-1.97128682414024e+001,-4.53769081598349e-001

2.94853843458219e+004,-1.97128707294314e+001,-4.60103369827845e-001

2.98969849726987e+004,-1.97128732873989e+001,-4.66526077516164e-001

3.03143313302078e+004,-1.97128759172705e+001,-4.73038438786524e-001

3.07375036257601e+004,-1.97128786210671e+001,-4.79641704983676e-001

3.11665831864199e+004,-1.97128814008664e+001,-4.86337144912761e-001

3.16016524745350e+004,-1.97128842588045e+001,-4.93126045083639e-001

3.20427951035848e+004,-1.97128871970774e+001,-5.00009709956037e-001

3.24900958542493e+004,-1.97128902179431e+001,-5.06989462191700e-001

3.29436406907028e+004,-1.97128933237227e+001,-5.14066642906890e-001

3.34035167771346e+004,-1.97128965168026e+001,-5.21242611931901e-001

3.38698124945009e+004,-1.97128997996365e+001,-5.28518748067273e-001

3.43426174575100e+004,-1.97129031747465e+001,-5.35896449353345e-001

3.48220225318448e+004,-1.97129066447262e+001,-5.43377133335074e-001

3.53081198516260e+004,-1.97129102122416e+001,-5.50962237335263e-001

3.58010028371187e+004,-1.97129138800337e+001,-5.58653218729936e-001

3.63007662126863e+004,-1.97129176509205e+001,-5.66451555227626e-001

3.68075060249948e+004,-1.97129215277994e+001,-5.74358745152453e-001

3.73213196614721e+004,-1.97129255136488e+001,-5.82376307732288e-001

3.78423058690237e+004,-1.97129296115310e+001,-5.90505783389665e-001

3.83705647730104e+004,-1.97129338245943e+001,-5.98748734036302e-001

3.89061978964912e+004,-1.97129381560754e+001,-6.07106743373835e-001

3.94493081797342e+004,-1.97129426093018e+001,-6.15581417195565e-001

3.99999999999998e+004,-1.97129471876947e+001,-6.24174383696873e-001

4.05583791916010e+004,-1.97129518947711e+001,-6.32887293784352e-001

4.11245530662425e+004,-1.97129567341471e+001,-6.41721821394148e-001

4.16986304336447e+004,-1.97129617095402e+001,-6.50679663812502e-001

4.22807216224550e+004,-1.97129668247721e+001,-6.59762542000125e-001

4.28709385014515e+004,-1.97129720837721e+001,-6.68972200922434e-001

4.34693945010421e+004,-1.97129774905798e+001,-6.78310409883326e-001

4.40762046350642e+004,-1.97129830493482e+001,-6.87778962865849e-001

4.46914855228886e+004,-1.97129887643468e+001,-6.97379678873442e-001

4.53153554118317e+004,-1.97129946399653e+001,-7.07114402279086e-001

4.59479341998812e+004,-1.97130006807162e+001,-7.16985003179719e-001

4.65893434587380e+004,-1.97130068912392e+001,-7.26993377752890e-001

4.72397064571810e+004,-1.97130132763039e+001,-7.37141448620754e-001

4.78991481847569e+004,-1.97130198408139e+001,-7.47431165216727e-001

4.85677953758016e+004,-1.97130265898105e+001,-7.57864504160973e-001

4.92457765337964e+004,-1.97130335284765e+001,-7.68443469636341e-001

4.99332219560642e+004,-1.97130406621403e+001,-7.79170093773141e-001

5.06302637588109e+004,-1.97130479962797e+001,-7.90046437037471e-001

5.13370359025159e+004,-1.97130555365264e+001,-8.01074588627076e-001

5.20536742176771e+004,-1.97130632886700e+001,-8.12256666868347e-001

5.27803164309155e+004,-1.97130712586629e+001,-8.23594819623339e-001

5.35171021914442e+004,-1.97130794526241e+001,-8.35091224700540e-001

5.42641730979066e+004,-1.97130878768448e+001,-8.46748090270220e-001

5.50216727255895e+004,-1.97130965377925e+001,-8.58567655287823e-001

5.57897466540159e+004,-1.97131054421163e+001,-8.70552189921288e-001

5.65685424949235e+004,-1.97131145966517e+001,-8.82703995985346e-001

5.73582099206328e+004,-1.97131240084262e+001,-8.95025407381262e-001

5.81589006928121e+004,-1.97131336846642e+001,-9.07518790543208e-001

5.89707686916437e+004,-1.97131436327932e+001,-9.20186544889672e-001

5.97939699453972e+004,-1.97131538604486e+001,-9.33031103282661e-001

6.06286626604156e+004,-1.97131643754804e+001,-9.46054932490800e-001

6.14750072515201e+004,-1.97131751859586e+001,-9.59260533662967e-001

6.23331663728396e+004,-1.97131863001795e+001,-9.72650442803484e-001

6.32033049490698e+004,-1.97131977266723e+001,-9.86227231257484e-001

6.40855902071694e+004,-1.97132094742050e+001,-9.99993506201519e-001

6.49801917084985e+004,-1.97132215517920e+001,-1.01395191114042e+000

6.58872813814055e+004,-1.97132339687002e+001,-1.02810512641197e+000

6.68070335542691e+004,-1.97132467344562e+001,-1.04245586969924e+000

6.77396249890018e+004,-1.97132598588540e+001,-1.05700689654711e+000

6.86852349150199e+004,-1.97132733519620e+001,-1.07176100088870e+000

6.96440450636895e+004,-1.97132872241308e+001,-1.08672101557755e+000

7.06162397032520e+004,-1.97133014860012e+001,-1.10188981292830e+000

7.16020056742374e+004,-1.97133161485124e+001,-1.11727030526219e+000

7.26015324253724e+004,-1.97133312229100e+001,-1.13286544546390e+000

7.36150120499896e+004,-1.97133467207547e+001,-1.14867822754320e+000

7.46426393229441e+004,-1.97133626539312e+001,-1.16471168720403e+000

7.56846117380472e+004,-1.97133790346573e+001,-1.18096890242360e+000

7.67411295460207e+004,-1.97133958754929e+001,-1.19745299403709e+000

7.78123957929823e+004,-1.97134131893498e+001,-1.21416712633285e+000

7.88986163594682e+004,-1.97134309895017e+001,-1.23111450765160e+000

7.99999999999995e+004,-1.97134492895936e+001,-1.24829839099967e+000

8.11167583832018e+004,-1.97134681036530e+001,-1.26572207466517e+000

8.22491061324848e+004,-1.97134874461001e+001,-1.28338890284475e+000

8.33972608672892e+004,-1.97135073317586e+001,-1.30130226628049e+000

8.45614432449099e+004,-1.97135277758675e+001,-1.31946560290157e+000

8.57418770029029e+004,-1.97135487940923e+001,-1.33788239847848e+000

8.69387890020841e+004,-1.97135704025368e+001,-1.35655618728391e+000

8.81524092701283e+004,-1.97135926177556e+001,-1.37549055276422e+000

8.93829710457770e+004,-1.97136154567664e+001,-1.39468912821673e+000

9.06307108236633e+004,-1.97136389370632e+001,-1.41415559748084e+000

9.18958683997622e+004,-1.97136630766290e+001,-1.43389369563513e+000

9.31786869174758e+004,-1.97136878939503e+001,-1.45390720970403e+000

9.44794129143618e+004,-1.97137134080302e+001,-1.47419997937670e+000

9.57982963695136e+004,-1.97137396384033e+001,-1.49477589773167e+000

9.71355907516031e+004,-1.97137666051502e+001,-1.51563891197563e+000

9.84915530675926e+004,-1.97137943289130e+001,-1.53679302418770e+000

9.98664439121282e+004,-1.97138228309107e+001,-1.55824229207726e+000

1.01260527517622e+005,-1.97138521329551e+001,-1.57999082975008e+000

1.02674071805032e+005,-1.97138822574675e+001,-1.60204280848559e+000

1.04107348435354e+005,-1.97139132274955e+001,-1.62440245752360e+000

1.05560632861831e+005,-1.97139450667305e+001,-1.64707406486286e+000

1.07034204382888e+005,-1.97139777995255e+001,-1.67006197806872e+000

1.08528346195813e+005,-1.97140114509130e+001,-1.69337060509460e+000

1.10043345451179e+005,-1.97140460466250e+001,-1.71700441510892e+000

1.11579493308032e+005,-1.97140816131109e+001,-1.74096793933987e+000

1.13137084989847e+005,-1.97141181775585e+001,-1.76526577192565e+000

1.14716419841265e+005,-1.97141557679142e+001,-1.78990257077917e+000

1.16317801385624e+005,-1.97141944129034e+001,-1.81488305846435e+000

1.17941537383287e+005,-1.97142341420529e+001,-1.84021202308114e+000

1.19587939890794e+005,-1.97142749857124e+001,-1.86589431916605e+000

1.21257325320831e+005,-1.97143169750778e+001,-1.89193486860137e+000

1.22950014503040e+005,-1.97143601422140e+001,-1.91833866153919e+000

1.24666332745679e+005,-1.97144045200795e+001,-1.94511075733526e+000

1.26406609898139e+005,-1.97144501425503e+001,-1.97225628549627e+000

1.28171180414339e+005,-1.97144970444462e+001,-1.99978044663930e+000

1.29960383416997e+005,-1.97145452615558e+001,-2.02768851346462e+000

1.31774562762811e+005,-1.97145948306642e+001,-2.05598583173923e+000

1.33614067108538e+005,-1.97146457895795e+001,-2.08467782129640e+000

1.35479249978003e+005,-1.97146981771615e+001,-2.11376997704482e+000

1.37370469830040e+005,-1.97147520333506e+001,-2.14326786999371e+000

1.39288090127379e+005,-1.97148073991976e+001,-2.17317714828901e+000

1.41232479406504e+005,-1.97148643168936e+001,-2.20350353826515e+000

1.43204011348474e+005,-1.97149228298024e+001,-2.23425284550861e+000

1.45203064850745e+005,-1.97149829824915e+001,-2.26543095593665e+000

1.47230024099979e+005,-1.97150448207659e+001,-2.29704383688862e+000

1.49285278645888e+005,-1.97151083917019e+001,-2.32909753823226e+000

1.51369223476094e+005,-1.97151737436816e+001,-2.36159819348449e+000

1.53482259092041e+005,-1.97152409264291e+001,-2.39455202094532e+000

1.55624791585964e+005,-1.97153099910466e+001,-2.42796532484733e+000

1.57797232718936e+005,-1.97153809900528e+001,-2.46184449651948e+000

1.59999999999999e+005,-1.97154539774211e+001,-2.49619601556539e+000

1.62233516766403e+005,-1.97155290086192e+001,-2.53102645105769e+000

1.64498212264969e+005,-1.97156061406503e+001,-2.56634246274584e+000

1.66794521734578e+005,-1.97156854320946e+001,-2.60215080228032e+000

1.69122886489819e+005,-1.97157669431523e+001,-2.63845831445205e+000

1.71483754005805e+005,-1.97158507356877e+001,-2.67527193844825e+000

1.73877578004168e+005,-1.97159368732744e+001,-2.71259870912150e+000

1.76304818540256e+005,-1.97160254212417e+001,-2.75044575827691e+000

1.78765942091554e+005,-1.97161164467222e+001,-2.78882031597584e+000

1.81261421647326e+005,-1.97162100187008e+001,-2.82772971185298e+000

1.83791736799524e+005,-1.97163062080647e+001,-2.86718137645251e+000

1.86357373834951e+005,-1.97164050876548e+001,-2.90718284257904e+000

1.88958825828723e+005,-1.97165067323186e+001,-2.94774174666695e+000

1.91596592739027e+005,-1.97166112189646e+001,-2.98886583016365e+000

1.94271181503206e+005,-1.97167186266172e+001,-3.03056294093303e+000

1.96983106135185e+005,-1.97168290364744e+001,-3.07284103467386e+000

1.99732887824256e+005,-1.97169425319658e+001,-3.11570817635639e+000

2.02521055035243e+005,-1.97170591988129e+001,-3.15917254167520e+000

2.05348143610063e+005,-1.97171791250901e+001,-3.20324241852145e+000

2.08214696870707e+005,-1.97173024012886e+001,-3.24792620847061e+000

2.11121265723661e+005,-1.97174291203802e+001,-3.29323242829020e+000

2.14068408765776e+005,-1.97175593778843e+001,-3.33916971146363e+000

2.17056692391625e+005,-1.97176932719355e+001,-3.38574680973332e+000

2.20086690902357e+005,-1.97178309033537e+001,-3.43297259466143e+000

2.23158986616063e+005,-1.97179723757154e+001,-3.48085605920913e+000

2.26274169979693e+005,-1.97181177954269e+001,-3.52940631933511e+000

2.29432839682530e+005,-1.97182672717999e+001,-3.57863261561129e+000

2.32635602771247e+005,-1.97184209171283e+001,-3.62854431485848e+000

2.35883074766574e+005,-1.97185788467668e+001,-3.67915091180123e+000

2.39175879781588e+005,-1.97187411792126e+001,-3.73046203074034e+000

2.42514650641661e+005,-1.97189080361877e+001,-3.78248742724522e+000

2.45900029006080e+005,-1.97190795427243e+001,-3.83523698986747e+000

2.49332665491357e+005,-1.97192558272519e+001,-3.88872074187003e+000

2.52813219796278e+005,-1.97194370216861e+001,-3.94294884297938e+000

2.56342360828676e+005,-1.97196232615208e+001,-3.99793159115601e+000

2.59920766833993e+005,-1.97198146859212e+001,-4.05367942438463e+000

2.63549125525621e+005,-1.97200114378205e+001,-4.11020292248474e+000

2.67228134217075e+005,-1.97202136640173e+001,-4.16751280894108e+000

2.70958499956006e+005,-1.97204215152771e+001,-4.22561995275452e+000

2.74740939660078e+005,-1.97206351464351e+001,-4.28453537031267e+000

2.78576180254757e+005,-1.97208547165019e+001,-4.34427022728139e+000

2.82464958813007e+005,-1.97210803887715e+001,-4.40483584051725e+000

2.86408022696948e+005,-1.97213123309321e+001,-4.46624367999925e+000

2.90406129701488e+005,-1.97215507151797e+001,-4.52850537078307e+000

2.94460048199957e+005,-1.97217957183337e+001,-4.59163269497468e+000

2.98570557291775e+005,-1.97220475219564e+001,-4.65563759372570e+000

3.02738446952187e+005,-1.97223063124739e+001,-4.72053216924993e+000

3.06964518184081e+005,-1.97225722813009e+001,-4.78632868685987e+000

3.11249583171928e+005,-1.97228456249681e+001,-4.85303957702709e+000

3.15594465437872e+005,-1.97231265452525e+001,-4.92067743746036e+000

3.19999999999997e+005,-1.97234152493109e+001,-4.98925503520860e+000

3.24467033532806e+005,-1.97237119498160e+001,-5.05878530878326e+000

3.28996424529938e+005,-1.97240168650965e+001,-5.12928137030376e+000

3.33589043469155e+005,-1.97243302192794e+001,-5.20075650766321e+000

3.38245772979638e+005,-1.97246522424365e+001,-5.27322418671716e+000

3.42967508011610e+005,-1.97249831707337e+001,-5.34669805349435e+000

3.47755156008335e+005,-1.97253232465835e+001,-5.42119193642853e+000

3.52609637080511e+005,-1.97256727188018e+001,-5.49671984861295e+000

3.57531884183106e+005,-1.97260318427671e+001,-5.57329599007747e+000

3.62522843294651e+005,-1.97264008805844e+001,-5.65093475008727e+000

3.67583473599047e+005,-1.97267801012517e+001,-5.72965070946449e+000

3.72714747669902e+005,-1.97271697808313e+001,-5.80945864293216e+000

3.77917651657445e+005,-1.97275702026237e+001,-5.89037352148057e+000

3.83193185478053e+005,-1.97279816573467e+001,-5.97241051475642e+000

3.88542363006410e+005,-1.97284044433174e+001,-6.05558499347536e+000

3.93966212270369e+005,-1.97288388666382e+001,-6.13991253185632e+000

3.99465775648511e+005,-1.97292852413881e+001,-6.22540891007957e+000

4.05042110070485e+005,-1.97297438898165e+001,-6.31209011676779e+000

4.10696287220124e+005,-1.97302151425428e+001,-6.39997235149010e+000

4.16429393741414e+005,-1.97306993387590e+001,-6.48907202728929e+000

4.22242531447321e+005,-1.97311968264376e+001,-6.57940577323272e+000

4.28136817531551e+005,-1.97317079625437e+001,-6.67099043698697e+000

4.34113384783250e+005,-1.97322331132517e+001,-6.76384308741532e+000

4.40173381804713e+005,-1.97327726541668e+001,-6.85798101719906e+000

4.46317973232124e+005,-1.97333269705511e+001,-6.95342174548377e+000

4.52548339959385e+005,-1.97338964575546e+001,-7.05018302054818e+000

4.58865679365059e+005,-1.97344815204512e+001,-7.14828282249720e+000

4.65271205542494e+005,-1.97350825748800e+001,-7.24773936598037e+000

4.71766149533147e+005,-1.97357000470916e+001,-7.34857110293348e+000

4.78351759563174e+005,-1.97363343741994e+001,-7.45079672534438e+000

4.85029301283321e+005,-1.97369860044371e+001,-7.55443516804436e+000

4.91800058012158e+005,-1.97376553974209e+001,-7.65950561152355e+000

4.98665330982714e+005,-1.97383430244178e+001,-7.76602748477123e+000

5.05626439592555e+005,-1.97390493686198e+001,-7.87402046814110e+000

5.12684721657352e+005,-1.97397749254238e+001,-7.98350449624101e+000

5.19841533667984e+005,-1.97405202027176e+001,-8.09449976084882e+000

5.27098251051240e+005,-1.97412857211721e+001,-8.20702671385279e+000

5.34456268434150e+005,-1.97420720145401e+001,-8.32110607021718e+000

5.41916999912011e+005,-1.97428796299617e+001,-8.43675881097375e+000

