Freq.,VOut,OutRef

1.00000000000000e+004,-1.36432312844223e-001,-1.82186517447476e-002

1.01395947979003e+004,-1.36432305461025e-001,-1.84729749657824e-002

1.02811382665607e+004,-1.36432297870354e-001,-1.87308484196227e-002

1.04246576084112e+004,-1.36432290066230e-001,-1.89923216675013e-002

1.05701804056138e+004,-1.36432282042866e-001,-1.92574449597321e-002

1.07177346253629e+004,-1.36432273793868e-001,-1.95262692510288e-002

1.08673486252606e+004,-1.36432265312903e-001,-1.97988462059862e-002

1.10190511587661e+004,-1.36432256593582e-001,-2.00752282100050e-002

1.11728713807222e+004,-1.36432247629175e-001,-2.03554683803946e-002

1.13288388529580e+004,-1.36432238412829e-001,-2.06396205753912e-002

1.14869835499703e+004,-1.36432228937230e-001,-2.09277394074343e-002

1.16473358646846e+004,-1.36432219195403e-001,-2.12198802472534e-002

1.18099266142953e+004,-1.36432209179778e-001,-2.15160992414588e-002

1.19747870461893e+004,-1.36432198882519e-001,-2.18164533206410e-002

1.21419488439505e+004,-1.36432188295798e-001,-2.21210002090772e-002

1.23114441334492e+004,-1.36432177411574e-001,-2.24297984363916e-002

1.24833054890161e+004,-1.36432166221217e-001,-2.27429073515389e-002

1.26575659397028e+004,-1.36432154716360e-001,-2.30603871293409e-002

1.28342589756290e+004,-1.36432142888120e-001,-2.33822987858830e-002

1.30134185544193e+004,-1.36432130727503e-001,-2.37087041886427e-002

1.31950791077289e+004,-1.36432118224842e-001,-2.40396660707348e-002

1.33792755478611e+004,-1.36432105370861e-001,-2.43752480380355e-002

1.35660432744767e+004,-1.36432092155502e-001,-2.47155145863253e-002

1.37554181813974e+004,-1.36432078568735e-001,-2.50605311108892e-002

1.39474366635040e+004,-1.36432064600025e-001,-2.54103639205048e-002

1.41421356237309e+004,-1.36432050238643e-001,-2.57650802496525e-002

1.43395524801583e+004,-1.36432035473517e-001,-2.61247482715807e-002

1.45397251732031e+004,-1.36432020293522e-001,-2.64894371093352e-002

1.47426921729110e+004,-1.36432004686661e-001,-2.68592168546458e-002

1.49484924863494e+004,-1.36431988641154e-001,-2.72341585743015e-002

1.51571656651040e+004,-1.36431972144672e-001,-2.76143343285094e-002

1.53687518128801e+004,-1.36431955184520e-001,-2.79998171836195e-002

1.55832915932100e+004,-1.36431937747683e-001,-2.83906812259885e-002

1.58008262372675e+004,-1.36431919820609e-001,-2.87870015771578e-002

1.60213975517924e+004,-1.36431901389714e-001,-2.91888544051685e-002

1.62450479271247e+004,-1.36431882440753e-001,-2.95963169430580e-002

1.64718203453514e+004,-1.36431862959099e-001,-3.00094675026293e-002

1.67017583885674e+004,-1.36431842929980e-001,-3.04283854863564e-002

1.69349062472505e+004,-1.36431822337803e-001,-3.08531514083844e-002

1.71713087287550e+004,-1.36431801166892e-001,-3.12838469048133e-002

1.74110112659224e+004,-1.36431779400938e-001,-3.17205547520836e-002

1.76540599258131e+004,-1.36431757023198e-001,-3.21633588826148e-002

1.79005014185594e+004,-1.36431734016557e-001,-3.26123443998811e-002

1.81503831063432e+004,-1.36431710363162e-001,-3.30675975966235e-002

1.84037530124975e+004,-1.36431686045012e-001,-3.35292059688151e-002

1.86606598307361e+004,-1.36431661043424e-001,-3.39972582344860e-002

1.89211529345119e+004,-1.36431635339036e-001,-3.44718443516303e-002

1.91852823865052e+004,-1.36431608912375e-001,-3.49530555314729e-002

1.94530989482457e+004,-1.36431581742880e-001,-3.54409842615627e-002

1.97246540898671e+004,-1.36431553809770e-001,-3.59357243188481e-002

1.99999999999999e+004,-1.36431525091615e-001,-3.64373707898217e-002

2.02791895958005e+004,-1.36431495566341e-001,-3.69460200887478e-002

2.05622765331213e+004,-1.36431465211405e-001,-3.74617699751897e-002

2.08493152168224e+004,-1.36431434003213e-001,-3.79847195757619e-002

2.11403608112276e+004,-1.36431401918049e-001,-3.85149693982291e-002

2.14354692507258e+004,-1.36431368931147e-001,-3.90526213556770e-002

2.17346972505211e+004,-1.36431335017252e-001,-3.95977787828200e-002

2.20381023175322e+004,-1.36431300150199e-001,-4.01505464579031e-002

2.23457427614443e+004,-1.36431264303326e-001,-4.07110306213995e-002

2.26576777059159e+004,-1.36431227449123e-001,-4.12793389973920e-002

2.29739670999406e+004,-1.36431189559182e-001,-4.18555808143870e-002

2.32946717293690e+004,-1.36431150604485e-001,-4.24398668250796e-002

2.36198532285905e+004,-1.36431110555084e-001,-4.30323093294116e-002

2.39495740923785e+004,-1.36431069380392e-001,-4.36330221936931e-002

2.42838976879009e+004,-1.36431027048555e-001,-4.42421208764374e-002

2.46228882668982e+004,-1.36430983527194e-001,-4.48597224464951e-002

2.49666109780322e+004,-1.36430938782927e-001,-4.54859456071038e-002

2.53151318794055e+004,-1.36430892781333e-001,-4.61209107201727e-002

2.56685179512580e+004,-1.36430845487177e-001,-4.67647398270882e-002

2.60268371088386e+004,-1.36430796864125e-001,-4.74175566732344e-002

2.63901582154578e+004,-1.36430746874848e-001,-4.80794867326672e-002

2.67585510957221e+004,-1.36430695480953e-001,-4.87506572306624e-002

2.71320865489533e+004,-1.36430642643108e-001,-4.94311971687289e-002

2.75108363627948e+004,-1.36430588320639e-001,-5.01212373504559e-002

2.78948733270080e+004,-1.36430532471955e-001,-5.08209104048887e-002

2.82842712474618e+004,-1.36430475054164e-001,-5.15303508137362e-002

2.86791049603164e+004,-1.36430416023169e-001,-5.22496949362072e-002

2.90794503464061e+004,-1.36430355333671e-001,-5.29790810355920e-002

2.94853843458219e+004,-1.36430292939159e-001,-5.37186493055385e-002

2.98969849726987e+004,-1.36430228791853e-001,-5.44685418968063e-002

3.03143313302078e+004,-1.36430162842372e-001,-5.52289029467434e-002

3.07375036257601e+004,-1.36430095040210e-001,-5.59998786039287e-002

3.11665831864199e+004,-1.36430025333331e-001,-5.67816170580236e-002

3.16016524745350e+004,-1.36429953668403e-001,-5.75742685676299e-002

3.20427951035848e+004,-1.36429879990208e-001,-5.83779854913897e-002

3.24900958542493e+004,-1.36429804242505e-001,-5.91929223127883e-002

3.29436406907028e+004,-1.36429726367094e-001,-6.00192356744818e-002

3.34035167771346e+004,-1.36429646304211e-001,-6.08570844062431e-002

3.38698124945009e+004,-1.36429563992607e-001,-6.17066295547512e-002

3.43426174575100e+004,-1.36429479369040e-001,-6.25680344174825e-002

3.48220225318448e+004,-1.36429392368690e-001,-6.34414645708029e-002

3.53081198516260e+004,-1.36429302924939e-001,-6.43270879034491e-002

3.58010028371187e+004,-1.36429210969106e-001,-6.52250746500882e-002

3.63007662126863e+004,-1.36429116430795e-001,-6.61355974211363e-002

3.68075060249948e+004,-1.36429019237478e-001,-6.70588312390459e-002

3.73213196614721e+004,-1.36428919314852e-001,-6.79949535684288e-002

3.78423058690237e+004,-1.36428816586226e-001,-6.89441443548673e-002

3.83705647730104e+004,-1.36428710972828e-001,-6.99065860558368e-002

3.89061978964912e+004,-1.36428602393886e-001,-7.08824636766894e-002

3.94493081797342e+004,-1.36428490766242e-001,-7.18719648067831e-002

3.99999999999998e+004,-1.36428376004272e-001,-7.28752796566258e-002

4.05583791916010e+004,-1.36428258020250e-001,-7.38926010912509e-002

4.11245530662425e+004,-1.36428136723679e-001,-7.49241246716469e-002

4.16986304336447e+004,-1.36428012021737e-001,-7.59700486886627e-002

4.22807216224550e+004,-1.36427883819022e-001,-7.70305742030745e-002

4.28709385014515e+004,-1.36427752017330e-001,-7.81059050844051e-002

4.34693945010421e+004,-1.36427616515824e-001,-7.91962480494605e-002

4.40762046350642e+004,-1.36427477210776e-001,-8.03018127024736e-002

4.46914855228886e+004,-1.36427333995633e-001,-8.14228115755051e-002

4.53153554118317e+004,-1.36427186760770e-001,-8.25594601697574e-002

4.59479341998812e+004,-1.36427035393631e-001,-8.37119769956601e-002

4.65893434587380e+004,-1.36426879778313e-001,-8.48805836177048e-002

4.72397064571810e+004,-1.36426719795941e-001,-8.60655046934741e-002

4.78991481847569e+004,-1.36426555324166e-001,-8.72669680203958e-002

4.85677953758016e+004,-1.36426386237122e-001,-8.84852045779717e-002

4.92457765337964e+004,-1.36426212405728e-001,-8.97204485716664e-002

4.99332219560642e+004,-1.36426033696995e-001,-9.09729374802152e-002

5.06302637588109e+004,-1.36425849974396e-001,-9.22429120989492e-002

5.13370359025159e+004,-1.36425661097601e-001,-9.35306165876475e-002

5.20536742176771e+004,-1.36425466922280e-001,-9.48362985177555e-002

5.27803164309155e+004,-1.36425267300172e-001,-9.61602089191370e-002

5.35171021914442e+004,-1.36425062078822e-001,-9.75026023295144e-002

5.42641730979066e+004,-1.36424851101504e-001,-9.88637368430889e-002

5.50216727255895e+004,-1.36424634207246e-001,-1.00243874159730e-001

5.57897466540159e+004,-1.36424411230423e-001,-1.01643279637095e-001

5.65685424949235e+004,-1.36424182001015e-001,-1.03062222339660e-001

5.73582099206328e+004,-1.36423946344053e-001,-1.04500975092622e-001

5.81589006928121e+004,-1.36423704079911e-001,-1.05959814533119e-001

5.89707686916437e+004,-1.36423455023777e-001,-1.07439021164624e-001

5.97939699453972e+004,-1.36423198985721e-001,-1.08938879411024e-001

6.06286626604156e+004,-1.36422935770740e-001,-1.10459677670201e-001

6.14750072515201e+004,-1.36422665178156e-001,-1.12001708371361e-001

6.23331663728396e+004,-1.36422387001938e-001,-1.13565268030251e-001

6.32033049490698e+004,-1.36422101030188e-001,-1.15150657307603e-001

6.40855902071694e+004,-1.36421807045079e-001,-1.16758181066841e-001

6.49801917084985e+004,-1.36421504822914e-001,-1.18388148431708e-001

6.58872813814055e+004,-1.36421194133735e-001,-1.20040872847650e-001

6.68070335542691e+004,-1.36420874741150e-001,-1.21716672141550e-001

6.77396249890018e+004,-1.36420546402248e-001,-1.23415868583620e-001

6.86852349150199e+004,-1.36420208867338e-001,-1.25138788949350e-001

6.96440450636895e+004,-1.36419861879952e-001,-1.26885764582172e-001

7.06162397032520e+004,-1.36419505176499e-001,-1.28657131458409e-001

7.16020056742374e+004,-1.36419138485844e-001,-1.30453230252662e-001

7.26015324253724e+004,-1.36418761529694e-001,-1.32274406401907e-001

7.36150120499896e+004,-1.36418374021889e-001,-1.34121010173563e-001

7.46426393229441e+004,-1.36417975668359e-001,-1.35993396733820e-001

7.56846117380472e+004,-1.36417566167041e-001,-1.37891926214414e-001

7.67411295460207e+004,-1.36417145207392e-001,-1.39816963784441e-001

7.78123957929823e+004,-1.36416712470375e-001,-1.41768879719870e-001

7.88986163594682e+004,-1.36416267628157e-001,-1.43748049475229e-001

7.99999999999995e+004,-1.36415810343757e-001,-1.45754853757505e-001

8.11167583832018e+004,-1.36415340271188e-001,-1.47789678597393e-001

8.22491061324848e+004,-1.36414857054682e-001,-1.49852915427030e-001

8.33972608672892e+004,-1.36414360328742e-001,-1.51944961154234e-001

8.45614432449099e+004,-1.36413849717941e-001,-1.54066218239028e-001

8.57418770029029e+004,-1.36413324836441e-001,-1.56217094772665e-001

8.69387890020841e+004,-1.36412785287803e-001,-1.58398004557021e-001

8.81524092701283e+004,-1.36412230664800e-001,-1.60609367183033e-001

8.93829710457770e+004,-1.36411660548962e-001,-1.62851608114497e-001

9.06307108236633e+004,-1.36411074510382e-001,-1.65125158768832e-001

9.18958683997622e+004,-1.36410472107363e-001,-1.67430456601708e-001

9.31786869174758e+004,-1.36409852886214e-001,-1.69767945191294e-001

9.44794129143618e+004,-1.36409216380713e-001,-1.72138074325647e-001

9.57982963695136e+004,-1.36408562112122e-001,-1.74541300088106e-001

9.71355907516031e+004,-1.36407889588317e-001,-1.76978084948557e-001

9.84915530675926e+004,-1.36407198304118e-001,-1.79448897850337e-001

9.98664439121282e+004,-1.36406487740288e-001,-1.81954214304493e-001

1.01260527517622e+005,-1.36405757363699e-001,-1.84494516479209e-001

1.02674071805032e+005,-1.36405006626592e-001,-1.87070293296227e-001

1.04107348435354e+005,-1.36404234966346e-001,-1.89682040524609e-001

1.05560632861831e+005,-1.36403441805028e-001,-1.92330260877646e-001

1.07034204382888e+005,-1.36402626549269e-001,-1.95015464110029e-001

1.08528346195813e+005,-1.36401788589320e-001,-1.97738167118772e-001

1.10043345451179e+005,-1.36400927299222e-001,-2.00498894042407e-001

1.11579493308032e+005,-1.36400042035920e-001,-2.03298176363960e-001

1.13137084989847e+005,-1.36399132139064e-001,-2.06136553014441e-001

1.14716419841265e+005,-1.36398196930559e-001,-2.09014570477687e-001

1.16317801385624e+005,-1.36397235713982e-001,-2.11932782897721e-001

1.17941537383287e+005,-1.36396247774214e-001,-2.14891752186154e-001

1.19587939890794e+005,-1.36395232376976e-001,-2.17892048132614e-001

1.21257325320831e+005,-1.36394188768278e-001,-2.20934248515628e-001

1.22950014503040e+005,-1.36393116173910e-001,-2.24018939215848e-001

1.24666332745679e+005,-1.36392013798986e-001,-2.27146714330820e-001

1.26406609898139e+005,-1.36390880827405e-001,-2.30318176290710e-001

1.28171180414339e+005,-1.36389716421318e-001,-2.33533935976468e-001

1.29960383416997e+005,-1.36388519720491e-001,-2.36794612840128e-001

1.31774562762811e+005,-1.36387289841993e-001,-2.40100835024743e-001

1.33614067108538e+005,-1.36386025879322e-001,-2.43453239489159e-001

1.35479249978003e+005,-1.36384726902054e-001,-2.46852472131894e-001

1.37370469830040e+005,-1.36383391955071e-001,-2.50299187918343e-001

1.39288090127379e+005,-1.36382020058168e-001,-2.53794051009017e-001

1.41232479406504e+005,-1.36380610205296e-001,-2.57337734890435e-001

1.43204011348474e+005,-1.36379161363778e-001,-2.60930922507625e-001

1.45203064850745e+005,-1.36377672474085e-001,-2.64574306397820e-001

1.47230024099979e+005,-1.36376142448817e-001,-2.68268588827050e-001

1.49285278645888e+005,-1.36374570172185e-001,-2.72014481928538e-001

1.51369223476094e+005,-1.36372954499254e-001,-2.75812707843319e-001

1.53482259092041e+005,-1.36371294255431e-001,-2.79663998861453e-001

1.55624791585964e+005,-1.36369588235451e-001,-2.83569097567997e-001

1.57797232718936e+005,-1.36367835202951e-001,-2.87528756988594e-001

1.59999999999999e+005,-1.36366033889669e-001,-2.91543740737844e-001

1.62233516766403e+005,-1.36364182994530e-001,-2.95614823171850e-001

1.64498212264969e+005,-1.36362281183136e-001,-2.99742789539529e-001

1.66794521734578e+005,-1.36360327086817e-001,-3.03928436139268e-001

1.69122886489819e+005,-1.36358319301992e-001,-3.08172570475637e-001

1.71483754005805e+005,-1.36356256389164e-001,-3.12476011420875e-001

1.73877578004168e+005,-1.36354136872431e-001,-3.16839589375285e-001

1.76304818540256e+005,-1.36351959238389e-001,-3.21264146433825e-001

1.78765942091554e+005,-1.36349721935365e-001,-3.25750536552593e-001

1.81261421647326e+005,-1.36347423372792e-001,-3.30299625718126e-001

1.83791736799524e+005,-1.36345061920050e-001,-3.34912292120886e-001

1.86357373834951e+005,-1.36342635905768e-001,-3.39589426328633e-001

1.88958825828723e+005,-1.36340143616980e-001,-3.44331931465137e-001

1.91596592739027e+005,-1.36337583298200e-001,-3.49140723388958e-001

1.94271181503206e+005,-1.36334953150449e-001,-3.54016730877595e-001

1.96983106135185e+005,-1.36332251330584e-001,-3.58960895811521e-001

1.99732887824256e+005,-1.36329475950118e-001,-3.63974173363701e-001

2.02521055035243e+005,-1.36326625074489e-001,-3.69057532189829e-001

2.05348143610063e+005,-1.36323696722040e-001,-3.74211954622764e-001

2.08214696870707e+005,-1.36320688863285e-001,-3.79438436868524e-001

2.11121265723661e+005,-1.36317599419579e-001,-3.84737989207467e-001

2.14068408765776e+005,-1.36314426262678e-001,-3.90111636195666e-001

2.17056692391625e+005,-1.36311167213450e-001,-3.95560416871459e-001

2.20086690902357e+005,-1.36307820040926e-001,-4.01085384964593e-001

2.23158986616063e+005,-1.36304382461627e-001,-4.06687609107555e-001

2.26274169979693e+005,-1.36300852138405e-001,-4.12368173051397e-001

2.29432839682530e+005,-1.36297226679460e-001,-4.18128175884179e-001

2.32635602771247e+005,-1.36293503637583e-001,-4.23968732252552e-001

2.35883074766574e+005,-1.36289680509110e-001,-4.29890972587043e-001

2.39175879781588e+005,-1.36285754732851e-001,-4.35896043331083e-001

2.42514650641661e+005,-1.36281723689552e-001,-4.41985107171615e-001

2.45900029006080e+005,-1.36277584700567e-001,-4.48159343276264e-001

2.49332665491357e+005,-1.36273335027095e-001,-4.54419947531756e-001

2.52813219796278e+005,-1.36268971869370e-001,-4.60768132786218e-001

2.56342360828676e+005,-1.36264492365749e-001,-4.67205129095886e-001

2.59920766833993e+005,-1.36259893591731e-001,-4.73732183975389e-001

2.63549125525621e+005,-1.36255172559227e-001,-4.80350562651352e-001

2.67228134217075e+005,-1.36250326215725e-001,-4.87061548320160e-001

2.70958499956006e+005,-1.36245351443436e-001,-4.93866442409716e-001

2.74740939660078e+005,-1.36240245058574e-001,-5.00766564845011e-001

2.78576180254757e+005,-1.36235003810542e-001,-5.07763254317666e-001

2.82464958813007e+005,-1.36229624381292e-001,-5.14857868559518e-001

2.86408022696948e+005,-1.36224103384722e-001,-5.22051784620521e-001

2.90406129701488e+005,-1.36218437365763e-001,-5.29346399151114e-001

2.94460048199957e+005,-1.36212622800191e-001,-5.36743128687877e-001

2.98570557291775e+005,-1.36206656093677e-001,-5.44243409944525e-001

3.02738446952187e+005,-1.36200533581508e-001,-5.51848700107107e-001

3.06964518184081e+005,-1.36194251528227e-001,-5.59560477133005e-001

3.11249583171928e+005,-1.36187806127068e-001,-5.67380240054767e-001

3.15594465437872e+005,-1.36181193499609e-001,-5.75309509289459e-001

3.19999999999997e+005,-1.36174409695797e-001,-5.83349826950858e-001

3.24467033532806e+005,-1.36167450693508e-001,-5.91502757167590e-001

3.28996424529938e+005,-1.36160312398515e-001,-5.99769886406046e-001

3.33589043469155e+005,-1.36152990644562e-001,-6.08152823797160e-001

3.38245772979638e+005,-1.36145481193282e-001,-6.16653201469398e-001

3.42967508011610e+005,-1.36137779734514e-001,-6.25272674885220e-001

3.47755156008335e+005,-1.36129881886465e-001,-6.34012923183842e-001

3.52609637080511e+005,-1.36121783196214e-001,-6.42875649527901e-001

3.57531884183106e+005,-1.36113479139927e-001,-6.51862581456766e-001

3.62522843294651e+005,-1.36104965123805e-001,-6.60975471242883e-001

3.67583473599047e+005,-1.36096236484608e-001,-6.70216096255258e-001

3.72714747669902e+005,-1.36087288490477e-001,-6.79586259327707e-001

3.77917651657445e+005,-1.36078116342179e-001,-6.89087789131348e-001

3.83193185478053e+005,-1.36068715173957e-001,-6.98722540554190e-001

3.88542363006410e+005,-1.36059080055044e-001,-7.08492395085134e-001

3.93966212270369e+005,-1.36049205991047e-001,-7.18399261203406e-001

3.99465775648511e+005,-1.36039087925525e-001,-7.28445074774270e-001

4.05042110070485e+005,-1.36028720742025e-001,-7.38631799449402e-001

4.10696287220124e+005,-1.36018099265753e-001,-7.48961427073908e-001

4.16429393741414e+005,-1.36007218266113e-001,-7.59435978097895e-001

4.22242531447321e+005,-1.35996072458718e-001,-7.70057501995241e-001

4.28136817531551e+005,-1.35984656508455e-001,-7.80828077686027e-001

4.34113384783250e+005,-1.35972965031852e-001,-7.91749813967243e-001

4.40173381804713e+005,-1.35960992600419e-001,-8.02824849947592e-001

4.46317973232124e+005,-1.35948733743876e-001,-8.14055355488243e-001

4.52548339959385e+005,-1.35936182953631e-001,-8.25443531650687e-001

4.58865679365059e+005,-1.35923334686594e-001,-8.36991611149265e-001

4.65271205542494e+005,-1.35910183369275e-001,-8.48701858809908e-001

4.71766149533147e+005,-1.35896723401962e-001,-8.60576572035769e-001

4.78351759563174e+005,-1.35882949163505e-001,-8.72618081277359e-001

4.85029301283321e+005,-1.35868855016019e-001,-8.84828750509811e-001

4.91800058012158e+005,-1.35854435310223e-001,-8.97210977715612e-001

4.98665330982714e+005,-1.35839684390709e-001,-9.09767195373652e-001

5.05626439592555e+005,-1.35824596601957e-001,-9.22499870953880e-001

5.12684721657352e+005,-1.35809166294230e-001,-9.35411507418391e-001

5.19841533667984e+005,-1.35793387830177e-001,-9.48504643728187e-001

5.27098251051240e+005,-1.35777255591414e-001,-9.61781855356193e-001

5.34456268434150e+005,-1.35760763985716e-001,-9.75245754805950e-001

5.41916999912011e+005,-1.35743907454398e-001,-9.88898992136591e-001

