Freq.,VOut,OutRef

1.00000000000000e+004,-2.01359858591659e+001,-2.54910345417208e-001

1.01395947979003e+004,-2.01359866670443e+001,-2.58468747807114e-001

1.02811382665607e+004,-2.01359874976345e+001,-2.62076823074513e-001

1.04246576084112e+004,-2.01359883515756e+001,-2.65735264599643e-001

1.05701804056138e+004,-2.01359892295234e+001,-2.69444775447509e-001

1.07177346253629e+004,-2.01359901321534e+001,-2.73206068489934e-001

1.08673486252606e+004,-2.01359910601591e+001,-2.77019866553618e-001

1.10190511587661e+004,-2.01359920142540e+001,-2.80886902552580e-001

1.11728713807222e+004,-2.01359929951715e+001,-2.84807919630742e-001

1.13288388529580e+004,-2.01359940036655e+001,-2.88783671305049e-001

1.14869835499703e+004,-2.01359950405116e+001,-2.92814921609083e-001

1.16473358646846e+004,-2.01359961065067e+001,-2.96902445241032e-001

1.18099266142953e+004,-2.01359972024699e+001,-3.01047027713400e-001

1.19747870461893e+004,-2.01359983292442e+001,-3.05249465499819e-001

1.21419488439505e+004,-2.01359994876954e+001,-3.09510566192463e-001

1.23114441334492e+004,-2.01360006787142e+001,-3.13831148655374e-001

1.24833054890161e+004,-2.01360019032160e+001,-3.18212043181494e-001

1.26575659397028e+004,-2.01360031621423e+001,-3.22654091652286e-001

1.28342589756290e+004,-2.01360044564605e+001,-3.27158147700296e-001

1.30134185544193e+004,-2.01360057871659e+001,-3.31725076871236e-001

1.31950791077289e+004,-2.01360071552812e+001,-3.36355756792775e-001

1.33792755478611e+004,-2.01360085618581e+001,-3.41051077340827e-001

1.35660432744767e+004,-2.01360100079778e+001,-3.45811940811524e-001

1.37554181813974e+004,-2.01360114947520e+001,-3.50639262094653e-001

1.39474366635040e+004,-2.01360130233235e+001,-3.55533968848092e-001

1.41421356237309e+004,-2.01360145948673e+001,-3.60497001678085e-001

1.43395524801583e+004,-2.01360162105915e+001,-3.65529314317710e-001

1.45397251732031e+004,-2.01360178717381e+001,-3.70631873811359e-001

1.47426921729110e+004,-2.01360195795838e+001,-3.75805660700816e-001

1.49484924863494e+004,-2.01360213354414e+001,-3.81051669212017e-001

1.51571656651040e+004,-2.01360231406608e+001,-3.86370907445682e-001

1.53687518128801e+004,-2.01360249966294e+001,-3.91764397574497e-001

1.55832915932100e+004,-2.01360269047739e+001,-3.97233176034337e-001

1.58008262372675e+004,-2.01360288665611e+001,-4.02778293727529e-001

1.60213975517924e+004,-2.01360308834989e+001,-4.08400816221726e-001

1.62450479271247e+004,-2.01360329571376e+001,-4.14101823956775e-001

1.64718203453514e+004,-2.01360350890710e+001,-4.19882412450158e-001

1.67017583885674e+004,-2.01360372809381e+001,-4.25743692507605e-001

1.69349062472505e+004,-2.01360395344235e+001,-4.31686790437982e-001

1.71713087287550e+004,-2.01360418512594e+001,-4.37712848268264e-001

1.74110112659224e+004,-2.01360442332265e+001,-4.43823023963261e-001

1.76540599258131e+004,-2.01360466821557e+001,-4.50018491645965e-001

1.79005014185594e+004,-2.01360491999294e+001,-4.56300441826382e-001

1.81503831063432e+004,-2.01360517884829e+001,-4.62670081626557e-001

1.84037530124975e+004,-2.01360544498055e+001,-4.69128635016511e-001

1.86606598307361e+004,-2.01360571859432e+001,-4.75677343042753e-001

1.89211529345119e+004,-2.01360599989987e+001,-4.82317464074102e-001

1.91852823865052e+004,-2.01360628911344e+001,-4.89050274037012e-001

1.94530989482457e+004,-2.01360658645730e+001,-4.95877066663449e-001

1.97246540898671e+004,-2.01360689216000e+001,-5.02799153738547e-001

1.99999999999999e+004,-2.01360720645651e+001,-5.09817865352519e-001

2.02791895958005e+004,-2.01360752958838e+001,-5.16934550155621e-001

2.05622765331213e+004,-2.01360786180398e+001,-5.24150575616640e-001

2.08493152168224e+004,-2.01360820335863e+001,-5.31467328286321e-001

2.11403608112276e+004,-2.01360855451486e+001,-5.38886214061938e-001

2.14354692507258e+004,-2.01360891554254e+001,-5.46408658458137e-001

2.17346972505211e+004,-2.01360928671917e+001,-5.54036106879585e-001

2.20381023175322e+004,-2.01360966833000e+001,-5.61770024900430e-001

2.23457427614443e+004,-2.01361006066833e+001,-5.69611898541562e-001

2.26576777059159e+004,-2.01361046403568e+001,-5.77563234559524e-001

2.29739670999406e+004,-2.01361087874206e+001,-5.85625560732681e-001

2.32946717293690e+004,-2.01361130510620e+001,-5.93800426155887e-001

2.36198532285905e+004,-2.01361174345575e+001,-6.02089401537681e-001

2.39495740923785e+004,-2.01361219412762e+001,-6.10494079499316e-001

2.42838976879009e+004,-2.01361265746813e+001,-6.19016074884115e-001

2.46228882668982e+004,-2.01361313383338e+001,-6.27657025062537e-001

2.49666109780322e+004,-2.01361362358945e+001,-6.36418590249038e-001

2.53151318794055e+004,-2.01361412711272e+001,-6.45302453820521e-001

2.56685179512580e+004,-2.01361464479013e+001,-6.54310322637705e-001

2.60268371088386e+004,-2.01361517701951e+001,-6.63443927372895e-001

2.63901582154578e+004,-2.01361572420987e+001,-6.72705022841047e-001

2.67585510957221e+004,-2.01361628678169e+001,-6.82095388337488e-001

2.71320865489533e+004,-2.01361686516729e+001,-6.91616827978653e-001

2.75108363627948e+004,-2.01361745981112e+001,-7.01271171046097e-001

2.78948733270080e+004,-2.01361807117013e+001,-7.11060272339141e-001

2.82842712474618e+004,-2.01361869971409e+001,-7.20986012530106e-001

2.86791049603164e+004,-2.01361934592600e+001,-7.31050298522593e-001

2.90794503464061e+004,-2.01362001030240e+001,-7.41255063819072e-001

2.94853843458219e+004,-2.01362069335380e+001,-7.51602268890415e-001

2.98969849726987e+004,-2.01362139560504e+001,-7.62093901551035e-001

3.03143313302078e+004,-2.01362211759571e+001,-7.72731977340454e-001

3.07375036257601e+004,-2.01362285988056e+001,-7.83518539908305e-001

3.11665831864199e+004,-2.01362362302992e+001,-7.94455661406894e-001

3.16016524745350e+004,-2.01362440763016e+001,-8.05545442886874e-001

3.20427951035848e+004,-2.01362521428409e+001,-8.16790014699319e-001

3.24900958542493e+004,-2.01362604361148e+001,-8.28191536905499e-001

3.29436406907028e+004,-2.01362689624952e+001,-8.39752199687221e-001

3.34035167771346e+004,-2.01362777285325e+001,-8.51474223769214e-001

3.38698124945009e+004,-2.01362867409615e+001,-8.63359860841854e-001

3.43426174575100e+004,-2.01362960067062e+001,-8.75411393992998e-001

3.48220225318448e+004,-2.01363055328848e+001,-8.87631138144340e-001

3.53081198516260e+004,-2.01363153268156e+001,-9.00021440494554e-001

3.58010028371187e+004,-2.01363253960225e+001,-9.12584680968428e-001

3.63007662126863e+004,-2.01363357482407e+001,-9.25323272671098e-001

3.68075060249948e+004,-2.01363463914224e+001,-9.38239662350679e-001

3.73213196614721e+004,-2.01363573337434e+001,-9.51336330865359e-001

3.78423058690237e+004,-2.01363685836091e+001,-9.64615793657285e-001

3.83705647730104e+004,-2.01363801496608e+001,-9.78080601234219e-001

3.89061978964912e+004,-2.01363920407825e+001,-9.91733339656872e-001

3.94493081797342e+004,-2.01364042661077e+001,-1.00557663103208e+000

3.99999999999998e+004,-2.01364168350265e+001,-1.01961313401457e+000

4.05583791916010e+004,-2.01364297571923e+001,-1.03384554431511e+000

4.11245530662425e+004,-2.01364430425299e+001,-1.04827659521403e+000

4.16986304336447e+004,-2.01364567012426e+001,-1.06290905808446e+000

4.22807216224550e+004,-2.01364707438203e+001,-1.07774574292023e+000

4.28709385014515e+004,-2.01364851810471e+001,-1.09278949887440e+000

4.34693945010421e+004,-2.01365000240101e+001,-1.10804321479975e+000

4.40762046350642e+004,-2.01365152841077e+001,-1.12350981980200e+000

4.46914855228886e+004,-2.01365309730580e+001,-1.13919228379925e+000

4.53153554118317e+004,-2.01365471029083e+001,-1.15509361808641e+000

4.59479341998812e+004,-2.01365636860438e+001,-1.17121687591077e+000

4.65893434587380e+004,-2.01365807351976e+001,-1.18756515305383e+000

4.72397064571810e+004,-2.01365982634600e+001,-1.20414158842028e+000

4.78991481847569e+004,-2.01366162842886e+001,-1.22094936463871e+000

4.85677953758016e+004,-2.01366348115189e+001,-1.23799170866417e+000

4.92457765337964e+004,-2.01366538593744e+001,-1.25527189239685e+000

4.99332219560642e+004,-2.01366734424780e+001,-1.27279323330158e+000

5.06302637588109e+004,-2.01366935758626e+001,-1.29055909504159e+000

5.13370359025159e+004,-2.01367142749832e+001,-1.30857288811775e+000

5.20536742176771e+004,-2.01367355557282e+001,-1.32683807051719e+000

5.27803164309155e+004,-2.01367574344319e+001,-1.34535814837209e+000

5.35171021914442e+004,-2.01367799278865e+001,-1.36413667662503e+000

5.42641730979066e+004,-2.01368030533556e+001,-1.38317725970582e+000

5.50216727255895e+004,-2.01368268285869e+001,-1.40248355221589e+000

5.57897466540159e+004,-2.01368512718259e+001,-1.42205925962248e+000

5.65685424949235e+004,-2.01368764018297e+001,-1.44190813896332e+000

5.73582099206328e+004,-2.01369022378817e+001,-1.46203399955764e+000

5.81589006928121e+004,-2.01369287998057e+001,-1.48244070373243e+000

5.89707686916437e+004,-2.01369561079815e+001,-1.50313216755236e+000

5.97939699453972e+004,-2.01369841833605e+001,-1.52411236156316e+000

6.06286626604156e+004,-2.01370130474811e+001,-1.54538531154547e+000

6.14750072515201e+004,-2.01370427224858e+001,-1.56695509927635e+000

6.23331663728396e+004,-2.01370732311376e+001,-1.58882586330311e+000

6.32033049490698e+004,-2.01371045968378e+001,-1.61100179972707e+000

6.40855902071694e+004,-2.01371368436432e+001,-1.63348716299701e+000

6.49801917084985e+004,-2.01371699962850e+001,-1.65628626671503e+000

6.58872813814055e+004,-2.01372040801874e+001,-1.67940348445193e+000

6.68070335542691e+004,-2.01372391214869e+001,-1.70284325057348e+000

6.77396249890018e+004,-2.01372751470522e+001,-1.72661006107918e+000

6.86852349150199e+004,-2.01373121845048e+001,-1.75070847444982e+000

6.96440450636895e+004,-2.01373502622399e+001,-1.77514311250932e+000

7.06162397032520e+004,-2.01373894094478e+001,-1.79991866129645e+000

7.16020056742374e+004,-2.01374296561368e+001,-1.82503987194706e+000

7.26015324253724e+004,-2.01374710331547e+001,-1.85051156159178e+000

7.36150120499896e+004,-2.01375135722136e+001,-1.87633861426103e+000

7.46426393229441e+004,-2.01375573059134e+001,-1.90252598180552e+000

7.56846117380472e+004,-2.01376022677661e+001,-1.92907868482811e+000

7.67411295460207e+004,-2.01376484922222e+001,-1.95600181362756e+000

7.78123957929823e+004,-2.01376960146960e+001,-1.98330052915486e+000

7.88986163594682e+004,-2.01377448715927e+001,-2.01098006398217e+000

7.99999999999995e+004,-2.01377951003364e+001,-2.03904572328528e+000

8.11167583832018e+004,-2.01378467393978e+001,-2.06750288583898e+000

8.22491061324848e+004,-2.01378998283238e+001,-2.09635700502404e+000

8.33972608672892e+004,-2.01379544077673e+001,-2.12561360984886e+000

8.45614432449099e+004,-2.01380105195177e+001,-2.15527830598530e+000

8.57418770029029e+004,-2.01380682065333e+001,-2.18535677681528e+000

8.69387890020841e+004,-2.01381275129727e+001,-2.21585478449408e+000

8.81524092701283e+004,-2.01381884842291e+001,-2.24677817102560e+000

8.93829710457770e+004,-2.01382511669640e+001,-2.27813285935268e+000

9.06307108236633e+004,-2.01383156091427e+001,-2.30992485446111e+000

9.18958683997622e+004,-2.01383818600704e+001,-2.34216024449777e+000

9.31786869174758e+004,-2.01384499704295e+001,-2.37484520190387e+000

9.44794129143618e+004,-2.01385199923178e+001,-2.40798598456234e+000

9.57982963695136e+004,-2.01385919792873e+001,-2.44158893696125e+000

9.71355907516031e+004,-2.01386659863854e+001,-2.47566049136909e+000

9.84915530675926e+004,-2.01387420701956e+001,-2.51020716902891e+000

9.98664439121282e+004,-2.01388202888801e+001,-2.54523558136620e+000

1.01260527517622e+005,-2.01389007022240e+001,-2.58075243121081e+000

1.02674071805032e+005,-2.01389833716797e+001,-2.61676451403702e+000

1.04107348435354e+005,-2.01390683604134e+001,-2.65327871921709e+000

1.05560632861831e+005,-2.01391557333523e+001,-2.69030203129223e+000

1.07034204382888e+005,-2.01392455572332e+001,-2.72784153125932e+000

1.08528346195813e+005,-2.01393379006526e+001,-2.76590439787306e+000

1.10043345451179e+005,-2.01394328341183e+001,-2.80449790896525e+000

1.11579493308032e+005,-2.01395304301015e+001,-2.84362944278084e+000

1.13137084989847e+005,-2.01396307630917e+001,-2.88330647932973e+000

1.14716419841265e+005,-2.01397339096518e+001,-2.92353660175602e+000

1.16317801385624e+005,-2.01398399484756e+001,-2.96432749772413e+000

1.17941537383287e+005,-2.01399489604463e+001,-3.00568696082248e+000

1.19587939890794e+005,-2.01400610286966e+001,-3.04762289198319e+000

1.21257325320831e+005,-2.01401762386710e+001,-3.09014330092133e+000

1.22950014503040e+005,-2.01402946781890e+001,-3.13325630758935e+000

1.24666332745679e+005,-2.01404164375106e+001,-3.17697014365037e+000

1.26406609898139e+005,-2.01405416094030e+001,-3.22129315397075e+000

1.28171180414339e+005,-2.01406702892098e+001,-3.26623379812739e+000

1.29960383416997e+005,-2.01408025749212e+001,-3.31180065193680e+000

1.31774562762811e+005,-2.01409385672469e+001,-3.35800240899937e+000

1.33614067108538e+005,-2.01410783696906e+001,-3.40484788226409e+000

1.35479249978003e+005,-2.01412220886259e+001,-3.45234600561154e+000

1.37370469830040e+005,-2.01413698333753e+001,-3.50050583545410e+000

1.39288090127379e+005,-2.01415217162907e+001,-3.54933655235724e+000

1.41232479406504e+005,-2.01416778528359e+001,-3.59884746267752e+000

1.43204011348474e+005,-2.01418383616715e+001,-3.64904800022172e+000

1.45203064850745e+005,-2.01420033647425e+001,-3.69994772792300e+000

1.47230024099979e+005,-2.01421729873668e+001,-3.75155633953813e+000

1.49285278645888e+005,-2.01423473583280e+001,-3.80388366136354e+000

1.51369223476094e+005,-2.01425266099689e+001,-3.85693965397009e+000

1.53482259092041e+005,-2.01427108782885e+001,-3.91073441395836e+000

1.55624791585964e+005,-2.01429003030408e+001,-3.96527817573362e+000

1.57797232718936e+005,-2.01430950278373e+001,-4.02058131329936e+000

1.59999999999999e+005,-2.01432952002507e+001,-4.07665434207268e+000

1.62233516766403e+005,-2.01435009719224e+001,-4.13350792071744e+000

1.64498212264969e+005,-2.01437124986726e+001,-4.19115285299891e+000

1.66794521734578e+005,-2.01439299406127e+001,-4.24960008965803e+000

1.69122886489819e+005,-2.01441534622613e+001,-4.30886073030533e+000

1.71483754005805e+005,-2.01443832326627e+001,-4.36894602533593e+000

1.73877578004168e+005,-2.01446194255088e+001,-4.42986737786287e+000

1.76304818540256e+005,-2.01448622192637e+001,-4.49163634567422e+000

1.78765942091554e+005,-2.01451117972922e+001,-4.55426464320564e+000

1.81261421647326e+005,-2.01453683479909e+001,-4.61776414353740e+000

1.83791736799524e+005,-2.01456320649224e+001,-4.68214688041003e+000

1.86357373834951e+005,-2.01459031469544e+001,-4.74742505025888e+000

1.88958825828723e+005,-2.01461817984003e+001,-4.81361101427157e+000

1.91596592739027e+005,-2.01464682291649e+001,-4.88071730046398e+000

1.94271181503206e+005,-2.01467626548931e+001,-4.94875660577653e+000

1.96983106135185e+005,-2.01470652971223e+001,-5.01774179819137e+000

1.99732887824256e+005,-2.01473763834392e+001,-5.08768591886910e+000

2.02521055035243e+005,-2.01476961476395e+001,-5.15860218430500e+000

2.05348143610063e+005,-2.01480248298922e+001,-5.23050398850715e+000

2.08214696870707e+005,-2.01483626769085e+001,-5.30340490519204e+000

2.11121265723661e+005,-2.01487099421136e+001,-5.37731869000167e+000

2.14068408765776e+005,-2.01490668858238e+001,-5.45225928273889e+000

2.17056692391625e+005,-2.01494337754270e+001,-5.52824080962417e+000

2.20086690902357e+005,-2.01498108855689e+001,-5.60527758556952e+000

2.23158986616063e+005,-2.01501984983424e+001,-5.68338411647316e+000

2.26274169979693e+005,-2.01505969034825e+001,-5.76257510153251e+000

2.29432839682530e+005,-2.01510063985649e+001,-5.84286543557677e+000

2.32635602771247e+005,-2.01514272892110e+001,-5.92427021141705e+000

2.35883074766574e+005,-2.01518598892958e+001,-6.00680472221545e+000

2.39175879781588e+005,-2.01523045211624e+001,-6.09048446387259e+000

2.42514650641661e+005,-2.01527615158410e+001,-6.17532513743240e+000

2.45900029006080e+005,-2.01532312132723e+001,-6.26134265150551e+000

2.49332665491357e+005,-2.01537139625377e+001,-6.34855312470870e+000

2.52813219796278e+005,-2.01542101220933e+001,-6.43697288812174e+000

2.56342360828676e+005,-2.01547200600107e+001,-6.52661848776234e+000

2.59920766833993e+005,-2.01552441542220e+001,-6.61750668707535e+000

2.63549125525621e+005,-2.01557827927717e+001,-6.70965446943868e+000

2.67228134217075e+005,-2.01563363740737e+001,-6.80307904068572e+000

2.70958499956006e+005,-2.01569053071741e+001,-6.89779783164111e+000

2.74740939660078e+005,-2.01574900120201e+001,-6.99382850067289e+000

2.78576180254757e+005,-2.01580909197350e+001,-7.09118893625845e+000

2.82464958813007e+005,-2.01587084728992e+001,-7.18989725956310e+000

2.86408022696948e+005,-2.01593431258377e+001,-7.28997182703313e+000

2.90406129701488e+005,-2.01599953449135e+001,-7.39143123300183e+000

2.94460048199957e+005,-2.01606656088277e+001,-7.49429431230684e+000

2.98570557291775e+005,-2.01613544089262e+001,-7.59858014291909e+000

3.02738446952187e+005,-2.01620622495130e+001,-7.70430804858378e+000

3.06964518184081e+005,-2.01627896481700e+001,-7.81149760147052e+000

3.11249583171928e+005,-2.01635371360837e+001,-7.92016862483488e+000

3.15594465437872e+005,-2.01643052583793e+001,-8.03034119568658e+000

3.19999999999997e+005,-2.01650945744610e+001,-8.14203564746900e+000

3.24467033532806e+005,-2.01659056583600e+001,-8.25527257274424e+000

3.28996424529938e+005,-2.01667390990895e+001,-8.37007282588607e+000

3.33589043469155e+005,-2.01675955010068e+001,-8.48645752577909e+000

3.38245772979638e+005,-2.01684754841834e+001,-8.60444805852318e+000

3.42967508011610e+005,-2.01693796847815e+001,-8.72406608014239e+000

3.47755156008335e+005,-2.01703087554395e+001,-8.84533351929841e+000

3.52609637080511e+005,-2.01712633656633e+001,-8.96827258000611e+000

3.57531884183106e+005,-2.01722442022274e+001,-9.09290574435160e+000

3.62522843294651e+005,-2.01732519695821e+001,-9.21925577521140e+000

3.67583473599047e+005,-2.01742873902692e+001,-9.34734571897240e+000

3.72714747669902e+005,-2.01753512053461e+001,-9.47719890824995e+000

3.77917651657445e+005,-2.01764441748172e+001,-9.60883896460536e+000

3.83193185478053e+005,-2.01775670780738e+001,-9.74228980126089e+000

3.88542363006410e+005,-2.01787207143424e+001,-9.87757562581013e+000

3.93966212270369e+005,-2.01799059031407e+001,-1.00147209429244e+001

3.99465775648511e+005,-2.01811234847424e+001,-1.01537505570534e+001

4.05042110070485e+005,-2.01823743206500e+001,-1.02946895751196e+001

4.10696287220124e+005,-2.01836592940769e+001,-1.04375634092030e+001

4.16429393741414e+005,-2.01849793104366e+001,-1.05823977792192e+001

4.22242531447321e+005,-2.01863352978422e+001,-1.07292187155859e+001

4.28136817531551e+005,-2.01877282076131e+001,-1.08780525618782e+001

4.34113384783250e+005,-2.01891590147914e+001,-1.10289259774723e+001

4.40173381804713e+005,-2.01906287186663e+001,-1.11818659401751e+001

4.46317973232124e+005,-2.01921383433083e+001,-1.13368997488385e+001

4.52548339959385e+005,-2.01936889381113e+001,-1.14940550259585e+001

4.58865679365059e+005,-2.01952815783443e+001,-1.16533597202570e+001

4.65271205542494e+005,-2.01969173657118e+001,-1.18148421092437e+001

4.71766149533147e+005,-2.01985974289236e+001,-1.19785308017603e+001

4.78351759563174e+005,-2.02003229242733e+001,-1.21444547405015e+001

4.85029301283321e+005,-2.02020950362265e+001,-1.23126432045147e+001

4.91800058012158e+005,-2.02039149780172e+001,-1.24831258116762e+001

4.98665330982714e+005,-2.02057839922553e+001,-1.26559325211404e+001

5.05626439592555e+005,-2.02077033515413e+001,-1.28310936357645e+001

5.12684721657352e+005,-2.02096743590924e+001,-1.30086398045036e+001

5.19841533667984e+005,-2.02116983493765e+001,-1.31886020247775e+001

5.27098251051240e+005,-2.02137766887569e+001,-1.33710116448049e+001

5.34456268434150e+005,-2.02159107761459e+001,-1.35559003659067e+001

5.41916999912011e+005,-2.02181020436682e+001,-1.37433002447740e+001

