Freq.,VOut,OutRef

1.00000000000000e+004,-1.46048361539777e+001,-1.66162454054382e-001

1.01395947979003e+004,-1.46048363123725e+001,-1.68481992012368e-001

1.02811382665607e+004,-1.46048364752200e+001,-1.70833909368303e-001

1.04246576084112e+004,-1.46048366426456e+001,-1.73218658113655e-001

1.05701804056138e+004,-1.46048368147781e+001,-1.75636696550494e-001

1.07177346253629e+004,-1.46048369917495e+001,-1.78088489380844e-001

1.08673486252606e+004,-1.46048371736963e+001,-1.80574507788957e-001

1.10190511587661e+004,-1.46048373607579e+001,-1.83095229540147e-001

1.11728713807222e+004,-1.46048375530784e+001,-1.85651139067476e-001

1.13288388529580e+004,-1.46048377508053e+001,-1.88242727565903e-001

1.14869835499703e+004,-1.46048379540910e+001,-1.90870493085996e-001

1.16473358646846e+004,-1.46048381630915e+001,-1.93534940632556e-001

1.18099266142953e+004,-1.46048383779674e+001,-1.96236582258124e-001

1.19747870461893e+004,-1.46048385988841e+001,-1.98975937162713e-001

1.21419488439505e+004,-1.46048388260113e+001,-2.01753531795238e-001

1.23114441334492e+004,-1.46048390595235e+001,-2.04569899950877e-001

1.24833054890161e+004,-1.46048392996003e+001,-2.07425582878682e-001

1.26575659397028e+004,-1.46048395464261e+001,-2.10321129379879e-001

1.28342589756290e+004,-1.46048398001907e+001,-2.13257095918965e-001

1.30134185544193e+004,-1.46048400610892e+001,-2.16234046725205e-001

1.31950791077289e+004,-1.46048403293222e+001,-2.19252553904723e-001

1.33792755478611e+004,-1.46048406050955e+001,-2.22313197551730e-001

1.35660432744767e+004,-1.46048408886215e+001,-2.25416565853855e-001

1.37554181813974e+004,-1.46048411801180e+001,-2.28563255210343e-001

1.39474366635040e+004,-1.46048414798089e+001,-2.31753870347993e-001

1.41421356237309e+004,-1.46048417879247e+001,-2.34989024429569e-001

1.43395524801583e+004,-1.46048421047022e+001,-2.38269339181128e-001

1.45397251732031e+004,-1.46048424303847e+001,-2.41595445004770e-001

1.47426921729110e+004,-1.46048427652227e+001,-2.44967981102642e-001

1.49484924863494e+004,-1.46048431094736e+001,-2.48387595597757e-001

1.51571656651040e+004,-1.46048434634018e+001,-2.51854945661835e-001

1.53687518128801e+004,-1.46048438272795e+001,-2.55370697638125e-001

1.55832915932100e+004,-1.46048442013862e+001,-2.58935527171947e-001

1.58008262372675e+004,-1.46048445860096e+001,-2.62550119337685e-001

1.60213975517924e+004,-1.46048449814452e+001,-2.66215168774263e-001

1.62450479271247e+004,-1.46048453879969e+001,-2.69931379814706e-001

1.64718203453514e+004,-1.46048458059773e+001,-2.73699466624101e-001

1.67017583885674e+004,-1.46048462357074e+001,-2.77520153335205e-001

1.69349062472505e+004,-1.46048466775177e+001,-2.81394174189208e-001

1.71713087287550e+004,-1.46048471317476e+001,-2.85322273673846e-001

1.74110112659224e+004,-1.46048475987463e+001,-2.89305206670828e-001

1.76540599258131e+004,-1.46048480788725e+001,-2.93343738597041e-001

1.79005014185594e+004,-1.46048485724954e+001,-2.97438645552440e-001

1.81503831063432e+004,-1.46048490799942e+001,-3.01590714471089e-001

1.84037530124975e+004,-1.46048496017590e+001,-3.05800743268700e-001

1.86606598307361e+004,-1.46048501381908e+001,-3.10069540999782e-001

1.89211529345119e+004,-1.46048506897018e+001,-3.14397928011173e-001

1.91852823865052e+004,-1.46048512567157e+001,-3.18786736099672e-001

1.94530989482457e+004,-1.46048518396684e+001,-3.23236808670639e-001

1.97246540898671e+004,-1.46048524390078e+001,-3.27749000902324e-001

1.99999999999999e+004,-1.46048530551944e+001,-3.32324179909149e-001

2.02791895958005e+004,-1.46048536887019e+001,-3.36963224907689e-001

2.05622765331213e+004,-1.46048543400169e+001,-3.41667027386065e-001

2.08493152168224e+004,-1.46048550096400e+001,-3.46436491275121e-001

2.11403608112276e+004,-1.46048556980857e+001,-3.51272533122306e-001

2.14354692507258e+004,-1.46048564058830e+001,-3.56176082266823e-001

2.17346972505211e+004,-1.46048571335757e+001,-3.61148081018838e-001

2.20381023175322e+004,-1.46048578817231e+001,-3.66189484840397e-001

2.23457427614443e+004,-1.46048586508999e+001,-3.71301262529191e-001

2.26576777059159e+004,-1.46048594416972e+001,-3.76484396403577e-001

2.29739670999406e+004,-1.46048602547225e+001,-3.81739882491539e-001

2.32946717293690e+004,-1.46048610906007e+001,-3.87068730722891e-001

2.36198532285905e+004,-1.46048619499736e+001,-3.92471965123449e-001

2.39495740923785e+004,-1.46048628335019e+001,-3.97950624008569e-001

2.42838976879009e+004,-1.46048637418643e+001,-4.03505760186593e-001

2.46228882668982e+004,-1.46048646757584e+001,-4.09138441159166e-001

2.49666109780322e+004,-1.46048656359020e+001,-4.14849749324584e-001

2.53151318794055e+004,-1.46048666230326e+001,-4.20640782189240e-001

2.56685179512580e+004,-1.46048676379086e+001,-4.26512652574683e-001

2.60268371088386e+004,-1.46048686813096e+001,-4.32466488834453e-001

2.63901582154578e+004,-1.46048697540371e+001,-4.38503435067478e-001

2.67585510957221e+004,-1.46048708569152e+001,-4.44624651341402e-001

2.71320865489533e+004,-1.46048719907912e+001,-4.50831313911160e-001

2.75108363627948e+004,-1.46048731565360e+001,-4.57124615448654e-001

2.78948733270080e+004,-1.46048743550451e+001,-4.63505765269839e-001

2.82842712474618e+004,-1.46048755872390e+001,-4.69975989565647e-001

2.86791049603164e+004,-1.46048768540642e+001,-4.76536531640784e-001

2.90794503464061e+004,-1.46048781564938e+001,-4.83188652148271e-001

2.94853843458219e+004,-1.46048794955280e+001,-4.89933629334922e-001

2.98969849726987e+004,-1.46048808721954e+001,-4.96772759285158e-001

3.03143313302078e+004,-1.46048822875533e+001,-5.03707356167727e-001

3.07375036257601e+004,-1.46048837426885e+001,-5.10738752493628e-001

3.11665831864199e+004,-1.46048852387188e+001,-5.17868299364896e-001

3.16016524745350e+004,-1.46048867767928e+001,-5.25097366739705e-001

3.20427951035848e+004,-1.46048883580920e+001,-5.32427343690401e-001

3.24900958542493e+004,-1.46048899838303e+001,-5.39859638674956e-001

3.29436406907028e+004,-1.46048916552564e+001,-5.47395679802268e-001

3.34035167771346e+004,-1.46048933736535e+001,-5.55036915110203e-001

3.38698124945009e+004,-1.46048951403412e+001,-5.62784812841216e-001

3.43426174575100e+004,-1.46048969566760e+001,-5.70640861724258e-001

3.48220225318448e+004,-1.46048988240523e+001,-5.78606571261352e-001

3.53081198516260e+004,-1.46049007439039e+001,-5.86683472016618e-001

3.58010028371187e+004,-1.46049027177047e+001,-5.94873115909184e-001

3.63007662126863e+004,-1.46049047469701e+001,-6.03177076511311e-001

3.68075060249948e+004,-1.46049068332577e+001,-6.11596949351899e-001

3.73213196614721e+004,-1.46049089781691e+001,-6.20134352219114e-001

3.78423058690237e+004,-1.46049111833508e+001,-6.28790925473120e-001

3.83705647730104e+004,-1.46049134504953e+001,-6.37568332360699e-001

3.89061978964912e+004,-1.46049157813430e+001,-6.46468259332727e-001

3.94493081797342e+004,-1.46049181776825e+001,-6.55492416368991e-001

3.99999999999998e+004,-1.46049206413531e+001,-6.64642537305316e-001

4.05583791916010e+004,-1.46049231742454e+001,-6.73920380164929e-001

4.11245530662425e+004,-1.46049257783033e+001,-6.83327727498167e-001

4.16986304336447e+004,-1.46049284555250e+001,-6.92866386721910e-001

4.22807216224550e+004,-1.46049312079645e+001,-7.02538190467396e-001

4.28709385014515e+004,-1.46049340377340e+001,-7.12344996929948e-001

4.34693945010421e+004,-1.46049369470045e+001,-7.22288690225926e-001

4.40762046350642e+004,-1.46049399380079e+001,-7.32371180755423e-001

4.46914855228886e+004,-1.46049430130389e+001,-7.42594405564822e-001

4.53153554118317e+004,-1.46049461744561e+001,-7.52960328721679e-001

4.59479341998812e+004,-1.46049494246847e+001,-7.63470941687633e-001

4.65893434587380e+004,-1.46049527662174e+001,-7.74128263703410e-001

4.72397064571810e+004,-1.46049562016173e+001,-7.84934342171778e-001

4.78991481847569e+004,-1.46049597335189e+001,-7.95891253052952e-001

4.85677953758016e+004,-1.46049633646306e+001,-8.07001101261646e-001

4.92457765337964e+004,-1.46049670977367e+001,-8.18266021067212e-001

4.99332219560642e+004,-1.46049709356996e+001,-8.29688176506751e-001

5.06302637588109e+004,-1.46049748814619e+001,-8.41269761796025e-001

5.13370359025159e+004,-1.46049789380483e+001,-8.53013001751842e-001

5.20536742176771e+004,-1.46049831085686e+001,-8.64920152215188e-001

5.27803164309155e+004,-1.46049873962195e+001,-8.76993500487224e-001

5.35171021914442e+004,-1.46049918042872e+001,-8.89235365761832e-001

5.42641730979066e+004,-1.46049963361500e+001,-9.01648099574365e-001

5.50216727255895e+004,-1.46050009952806e+001,-9.14234086247838e-001

5.57897466540159e+004,-1.46050057852492e+001,-9.26995743351656e-001

5.65685424949235e+004,-1.46050107097255e+001,-9.39935522161934e-001

5.73582099206328e+004,-1.46050157724823e+001,-9.53055908132244e-001

5.81589006928121e+004,-1.46050209773976e+001,-9.66359421368415e-001

5.89707686916437e+004,-1.46050263284582e+001,-9.79848617108920e-001

5.97939699453972e+004,-1.46050318297624e+001,-9.93526086214960e-001

6.06286626604156e+004,-1.46050374855227e+001,-1.00739445566665e+000

6.14750072515201e+004,-1.46050433000699e+001,-1.02145638906220e+000

6.23331663728396e+004,-1.46050492778557e+001,-1.03571458712938e+000

6.32033049490698e+004,-1.46050554234562e+001,-1.05017178824050e+000

6.40855902071694e+004,-1.46050617415755e+001,-1.06483076893611e+000

6.49801917084985e+004,-1.46050682370489e+001,-1.07969434445497e+000

6.58872813814055e+004,-1.46050749148473e+001,-1.09476536927126e+000

6.68070335542691e+004,-1.46050817800802e+001,-1.11004673764077e+000

6.77396249890018e+004,-1.46050888379995e+001,-1.12554138415269e+000

6.86852349150199e+004,-1.46050960940044e+001,-1.14125228428964e+000

6.96440450636895e+004,-1.46051035536444e+001,-1.15718245499633e+000

7.06162397032520e+004,-1.46051112226239e+001,-1.17333495525384e+000

7.16020056742374e+004,-1.46051191068070e+001,-1.18971288666462e+000

7.26015324253724e+004,-1.46051272122208e+001,-1.20631939404310e+000

7.36150120499896e+004,-1.46051355450611e+001,-1.22315766601559e+000

7.46426393229441e+004,-1.46051441116961e+001,-1.24023093562860e+000

7.56846117380472e+004,-1.46051529186719e+001,-1.25754248096414e+000

7.67411295460207e+004,-1.46051619727168e+001,-1.27509562576572e+000

7.78123957929823e+004,-1.46051712807470e+001,-1.29289374007005e+000

7.88986163594682e+004,-1.46051808498712e+001,-1.31094024085036e+000

7.99999999999995e+004,-1.46051906873962e+001,-1.32923859266581e+000

8.11167583832018e+004,-1.46052008008323e+001,-1.34779230832236e+000

8.22491061324848e+004,-1.46052111978990e+001,-1.36660494953969e+000

8.33972608672892e+004,-1.46052218865308e+001,-1.38568012763049e+000

8.45614432449099e+004,-1.46052328748827e+001,-1.40502150418697e+000

8.57418770029029e+004,-1.46052441713369e+001,-1.42463279177631e+000

8.69387890020841e+004,-1.46052557845087e+001,-1.44451775464790e+000

8.81524092701283e+004,-1.46052677232528e+001,-1.46468020944769e+000

8.93829710457770e+004,-1.46052799966703e+001,-1.48512402594327e+000

9.06307108236633e+004,-1.46052926141149e+001,-1.50585312776037e+000

9.18958683997622e+004,-1.46053055852004e+001,-1.52687149312531e+000

9.31786869174758e+004,-1.46053189198077e+001,-1.54818315562321e+000

9.44794129143618e+004,-1.46053326280916e+001,-1.56979220496102e+000

9.57982963695136e+004,-1.46053467204890e+001,-1.59170278774428e+000

9.71355907516031e+004,-1.46053612077263e+001,-1.61391910826311e+000

9.84915530675926e+004,-1.46053761008273e+001,-1.63644542928978e+000

9.98664439121282e+004,-1.46053914111216e+001,-1.65928607288504e+000

1.01260527517622e+005,-1.46054071502524e+001,-1.68244542121850e+000

1.02674071805032e+005,-1.46054233301856e+001,-1.70592791739717e+000

1.04107348435354e+005,-1.46054399632185e+001,-1.72973806630634e+000

1.05560632861831e+005,-1.46054570619884e+001,-1.75388043546278e+000

1.07034204382888e+005,-1.46054746394826e+001,-1.77835965587733e+000

1.08528346195813e+005,-1.46054927090472e+001,-1.80318042293098e+000

1.10043345451179e+005,-1.46055112843974e+001,-1.82834749726175e+000

1.11579493308032e+005,-1.46055303796270e+001,-1.85386570566368e+000

1.13137084989847e+005,-1.46055500092192e+001,-1.87973994199787e+000

1.14716419841265e+005,-1.46055701880567e+001,-1.90597516811628e+000

1.16317801385624e+005,-1.46055909314328e+001,-1.93257641479686e+000

1.17941537383287e+005,-1.46056122550626e+001,-1.95954878269148e+000

1.19587939890794e+005,-1.46056341750938e+001,-1.98689744328858e+000

1.21257325320831e+005,-1.46056567081190e+001,-2.01462763988389e+000

1.22950014503040e+005,-1.46056798711876e+001,-2.04274468856983e+000

1.24666332745679e+005,-1.46057036818177e+001,-2.07125397923463e+000

1.26406609898139e+005,-1.46057281580089e+001,-2.10016097657423e+000

1.28171180414339e+005,-1.46057533182556e+001,-2.12947122112043e+000

1.29960383416997e+005,-1.46057791815598e+001,-2.15919033027988e+000

1.31774562762811e+005,-1.46058057674446e+001,-2.18932399938960e+000

1.33614067108538e+005,-1.46058330959686e+001,-2.21987800278326e+000

1.35479249978003e+005,-1.46058611877399e+001,-2.25085819487436e+000

1.37370469830040e+005,-1.46058900639309e+001,-2.28227051125153e+000

1.39288090127379e+005,-1.46059197462930e+001,-2.31412096979105e+000

1.41232479406504e+005,-1.46059502571724e+001,-2.34641567178076e+000

1.43204011348474e+005,-1.46059816195257e+001,-2.37916080306061e+000

1.45203064850745e+005,-1.46060138569360e+001,-2.41236263517779e+000

1.47230024099979e+005,-1.46060469936295e+001,-2.44602752655832e+000

1.49285278645888e+005,-1.46060810544926e+001,-2.48016192369046e+000

1.51369223476094e+005,-1.46061160650893e+001,-2.51477236232786e+000

1.53482259092041e+005,-1.46061520516787e+001,-2.54986546870497e+000

1.55624791585964e+005,-1.46061890412337e+001,-2.58544796077050e+000

1.57797232718936e+005,-1.46062270614595e+001,-2.62152664943553e+000

1.59999999999999e+005,-1.46062661408126e+001,-2.65810843983903e+000

1.62233516766403e+005,-1.46063063085206e+001,-2.69520033262888e+000

1.64498212264969e+005,-1.46063475946024e+001,-2.73280942525897e+000

1.66794521734578e+005,-1.46063900298885e+001,-2.77094291330506e+000

1.69122886489819e+005,-1.46064336460420e+001,-2.80960809179549e+000

1.71483754005805e+005,-1.46064784755808e+001,-2.84881235655953e+000

1.73877578004168e+005,-1.46065245518985e+001,-2.88856320559515e+000

1.76304818540256e+005,-1.46065719092881e+001,-2.92886824045017e+000

1.78765942091554e+005,-1.46066205829645e+001,-2.96973516762504e+000

1.81261421647326e+005,-1.46066706090879e+001,-3.01117179999192e+000

1.83791736799524e+005,-1.46067220247889e+001,-3.05318605823046e+000

1.86357373834951e+005,-1.46067748681920e+001,-3.09578597228519e+000

1.88958825828723e+005,-1.46068291784418e+001,-3.13897968283832e+000

1.91596592739027e+005,-1.46068849957284e+001,-3.18277544280244e+000

1.94271181503206e+005,-1.46069423613141e+001,-3.22718161883257e+000

1.96983106135185e+005,-1.46070013175599e+001,-3.27220669285637e+000

1.99732887824256e+005,-1.46070619079537e+001,-3.31785926362362e+000

2.02521055035243e+005,-1.46071241771381e+001,-3.36414804827633e+000

2.05348143610063e+005,-1.46071881709393e+001,-3.41108188393753e+000

2.08214696870707e+005,-1.46072539363966e+001,-3.45866972932009e+000

2.11121265723661e+005,-1.46073215217922e+001,-3.50692066635592e+000

2.14068408765776e+005,-1.46073909766825e+001,-3.55584390184454e+000

2.17056692391625e+005,-1.46074623519285e+001,-3.60544876912413e+000

2.20086690902357e+005,-1.46075356997287e+001,-3.65574472976145e+000

2.23158986616063e+005,-1.46076110736510e+001,-3.70674137526353e+000

2.26274169979693e+005,-1.46076885286665e+001,-3.75844842881013e+000

2.29432839682530e+005,-1.46077681211831e+001,-3.81087574700845e+000

2.32635602771247e+005,-1.46078499090803e+001,-3.86403332166754e+000

2.35883074766574e+005,-1.46079339517447e+001,-3.91793128159779e+000

2.39175879781588e+005,-1.46080203101056e+001,-3.97257989442870e+000

2.42514650641661e+005,-1.46081090466719e+001,-4.02798956845177e+000

2.45900029006080e+005,-1.46082002255694e+001,-4.08417085448467e+000

2.49332665491357e+005,-1.46082939125793e+001,-4.14113444775794e+000

2.52813219796278e+005,-1.46083901751761e+001,-4.19889118982600e+000

2.56342360828676e+005,-1.46084890825680e+001,-4.25745207049952e+000

2.59920766833993e+005,-1.46085907057366e+001,-4.31682822980344e+000

2.63549125525621e+005,-1.46086951174777e+001,-4.37703095995585e+000

2.67228134217075e+005,-1.46088023924433e+001,-4.43807170737486e+000

2.70958499956006e+005,-1.46089126071837e+001,-4.49996207470506e+000

2.74740939660078e+005,-1.46090258401903e+001,-4.56271382287242e+000

2.78576180254757e+005,-1.46091421719399e+001,-4.62633887316198e+000

2.82464958813007e+005,-1.46092616849384e+001,-4.69084930932045e+000

2.86408022696948e+005,-1.46093844637665e+001,-4.75625737968551e+000

2.90406129701488e+005,-1.46095105951255e+001,-4.82257549933953e+000

2.94460048199957e+005,-1.46096401678833e+001,-4.88981625228940e+000

2.98570557291775e+005,-1.46097732731222e+001,-4.95799239367304e+000

3.02738446952187e+005,-1.46099100041865e+001,-5.02711685199226e+000

3.06964518184081e+005,-1.46100504567313e+001,-5.09720273137204e+000

3.11249583171928e+005,-1.46101947287715e+001,-5.16826331384786e+000

3.15594465437872e+005,-1.46103429207315e+001,-5.24031206167952e+000

3.19999999999997e+005,-1.46104951354966e+001,-5.31336261969328e+000

3.24467033532806e+005,-1.46106514784630e+001,-5.38742881765307e+000

3.28996424529938e+005,-1.46108120575907e+001,-5.46252467265910e+000

3.33589043469155e+005,-1.46109769834554e+001,-5.53866439157519e+000

3.38245772979638e+005,-1.46111463693012e+001,-5.61586237348758e+000

3.42967508011610e+005,-1.46113203310950e+001,-5.69413321219125e+000

3.47755156008335e+005,-1.46114989875803e+001,-5.77349169870730e+000

3.52609637080511e+005,-1.46116824603316e+001,-5.85395282383219e+000

3.57531884183106e+005,-1.46118708738102e+001,-5.93553178071576e+000

3.62522843294651e+005,-1.46120643554197e+001,-6.01824396747297e+000

3.67583473599047e+005,-1.46122630355627e+001,-6.10210498982697e+000

3.72714747669902e+005,-1.46124670476969e+001,-6.18713066378455e+000

3.77917651657445e+005,-1.46126765283928e+001,-6.27333701834568e+000

3.83193185478053e+005,-1.46128916173915e+001,-6.36074029824545e+000

3.88542363006410e+005,-1.46131124576623e+001,-6.44935696673229e+000

3.93966212270369e+005,-1.46133391954616e+001,-6.53920370837873e+000

3.99465775648511e+005,-1.46135719803919e+001,-6.63029743193056e+000

4.05042110070485e+005,-1.46138109654604e+001,-6.72265527319010e+000

4.10696287220124e+005,-1.46140563071392e+001,-6.81629459793709e+000

4.16429393741414e+005,-1.46143081654251e+001,-6.91123300488821e+000

4.22242531447321e+005,-1.46145667038994e+001,-7.00748832869387e+000

4.28136817531551e+005,-1.46148320897886e+001,-7.10507864297485e+000

4.34113384783250e+005,-1.46151044940253e+001,-7.20402226339922e+000

4.40173381804713e+005,-1.46153840913086e+001,-7.30433775080020e+000

4.46317973232124e+005,-1.46156710601659e+001,-7.40604391433519e+000

4.52548339959385e+005,-1.46159655830137e+001,-7.50915981468909e+000

4.58865679365059e+005,-1.46162678462197e+001,-7.61370476731987e+000

4.65271205542494e+005,-1.46165780401640e+001,-7.71969834575031e+000

4.71766149533147e+005,-1.46168963593014e+001,-7.82716038490468e+000

4.78351759563174e+005,-1.46172230022234e+001,-7.93611098449295e+000

4.85029301283321e+005,-1.46175581717203e+001,-8.04657051244274e+000

4.91800058012158e+005,-1.46179020748438e+001,-8.15855960838170e+000

4.98665330982714e+005,-1.46182549229697e+001,-8.27209918716854e+000

5.05626439592555e+005,-1.46186169318604e+001,-8.38721044247810e+000

5.12684721657352e+005,-1.46189883217281e+001,-8.50391485043813e+000

5.19841533667984e+005,-1.46193693172984e+001,-8.62223417332073e+000

5.27098251051240e+005,-1.46197601478729e+001,-8.74219046329105e+000

5.34456268434150e+005,-1.46201610473942e+001,-8.86380606621150e+000

5.41916999912011e+005,-1.46205722545093e+001,-8.98710362550677e+000

