Freq.,VOut,OutRef

1.00000000000000e+004,-1.00990893443411e+001,-8.07817957770712e-002

1.01395947979003e+004,-1.00990893278220e+001,-8.19094669505644e-002

1.02811382665607e+004,-1.00990893108385e+001,-8.30528797974206e-002

1.04246576084112e+004,-1.00990892933775e+001,-8.42122540636093e-002

1.05701804056138e+004,-1.00990892754256e+001,-8.53878125603379e-002

1.07177346253629e+004,-1.00990892569691e+001,-8.65797812083427e-002

1.08673486252606e+004,-1.00990892379934e+001,-8.77883890861917e-002

1.10190511587661e+004,-1.00990892184842e+001,-8.90138684662701e-002

1.11728713807222e+004,-1.00990891984265e+001,-9.02564548639280e-002

1.13288388529580e+004,-1.00990891778049e+001,-9.15163870830391e-002

1.14869835499703e+004,-1.00990891566032e+001,-9.27939072618616e-002

1.16473358646846e+004,-1.00990891348058e+001,-9.40892609140543e-002

1.18099266142953e+004,-1.00990891123951e+001,-9.54026969883153e-002

1.19747870461893e+004,-1.00990890893545e+001,-9.67344679002362e-002

1.21419488439505e+004,-1.00990890656661e+001,-9.80848295943923e-002

1.23114441334492e+004,-1.00990890413114e+001,-9.94540415869139e-002

1.24833054890161e+004,-1.00990890162721e+001,-1.00842367014863e-001

1.26575659397028e+004,-1.00990889905287e+001,-1.02250072690458e-001

1.28342589756290e+004,-1.00990889640615e+001,-1.03677429148740e-001

1.30134185544193e+004,-1.00990889368499e+001,-1.05124710704631e-001

1.31950791077289e+004,-1.00990889088733e+001,-1.06592195495965e-001

1.33792755478611e+004,-1.00990888801100e+001,-1.08080165549269e-001

1.35660432744767e+004,-1.00990888505379e+001,-1.09588906824595e-001

1.37554181813974e+004,-1.00990888201342e+001,-1.11118709275500e-001

1.39474366635040e+004,-1.00990887888758e+001,-1.12669866900493e-001

1.41421356237309e+004,-1.00990887567383e+001,-1.14242677804879e-001

1.43395524801583e+004,-1.00990887236971e+001,-1.15837444254340e-001

1.45397251732031e+004,-1.00990886897267e+001,-1.17454472733442e-001

1.47426921729110e+004,-1.00990886548014e+001,-1.19094074002750e-001

1.49484924863494e+004,-1.00990886188937e+001,-1.20756563167441e-001

1.51571656651040e+004,-1.00990885819764e+001,-1.22442259723053e-001

1.53687518128801e+004,-1.00990885440209e+001,-1.24151487630979e-001

1.55832915932100e+004,-1.00990885049982e+001,-1.25884575371394e-001

1.58008262372675e+004,-1.00990884648781e+001,-1.27641856011578e-001

1.60213975517924e+004,-1.00990884236299e+001,-1.29423667266498e-001

1.62450479271247e+004,-1.00990883812216e+001,-1.31230351568382e-001

1.64718203453514e+004,-1.00990883376209e+001,-1.33062256124543e-001

1.67017583885674e+004,-1.00990882927940e+001,-1.34919732993717e-001

1.69349062472505e+004,-1.00990882467065e+001,-1.36803139145723e-001

1.71713087287550e+004,-1.00990881993231e+001,-1.38712836534256e-001

1.74110112659224e+004,-1.00990881506070e+001,-1.40649192166948e-001

1.76540599258131e+004,-1.00990881005210e+001,-1.42612578172030e-001

1.79005014185594e+004,-1.00990880490263e+001,-1.44603371874485e-001

1.81503831063432e+004,-1.00990879960837e+001,-1.46621955862731e-001

1.84037530124975e+004,-1.00990879416521e+001,-1.48668718070771e-001

1.86606598307361e+004,-1.00990878856897e+001,-1.50744051843200e-001

1.89211529345119e+004,-1.00990878281536e+001,-1.52848356016973e-001

1.91852823865052e+004,-1.00990877689992e+001,-1.54982034997909e-001

1.94530989482457e+004,-1.00990877081811e+001,-1.57145498834341e-001

1.97246540898671e+004,-1.00990876456526e+001,-1.59339163298025e-001

1.99999999999999e+004,-1.00990875813658e+001,-1.61563449965155e-001

2.02791895958005e+004,-1.00990875152706e+001,-1.63818786299488e-001

2.05622765331213e+004,-1.00990874473167e+001,-1.66105605726636e-001

2.08493152168224e+004,-1.00990873774514e+001,-1.68424347726206e-001

2.11403608112276e+004,-1.00990873056213e+001,-1.70775457908322e-001

2.14354692507258e+004,-1.00990872317707e+001,-1.73159388107847e-001

2.17346972505211e+004,-1.00990871558431e+001,-1.75576596461928e-001

2.20381023175322e+004,-1.00990870777799e+001,-1.78027547506523e-001

2.23457427614443e+004,-1.00990869975210e+001,-1.80512712259771e-001

2.26576777059159e+004,-1.00990869150047e+001,-1.83032568313995e-001

2.29739670999406e+004,-1.00990868301673e+001,-1.85587599930050e-001

2.32946717293690e+004,-1.00990867429436e+001,-1.88178298126291e-001

2.36198532285905e+004,-1.00990866532666e+001,-1.90805160774333e-001

2.39495740923785e+004,-1.00990865610668e+001,-1.93468692699081e-001

2.42838976879009e+004,-1.00990864662738e+001,-1.96169405766321e-001

2.46228882668982e+004,-1.00990863688140e+001,-1.98907818991906e-001

2.49666109780322e+004,-1.00990862686128e+001,-2.01684458632552e-001

2.53151318794055e+004,-1.00990861655928e+001,-2.04499858292222e-001

2.56685179512580e+004,-1.00990860596748e+001,-2.07354559021351e-001

2.60268371088386e+004,-1.00990859507771e+001,-2.10249109425492e-001

2.63901582154578e+004,-1.00990858388159e+001,-2.13184065765112e-001

2.67585510957221e+004,-1.00990857237049e+001,-2.16159992064547e-001

2.71320865489533e+004,-1.00990856053555e+001,-2.19177460222581e-001

2.75108363627948e+004,-1.00990854836766e+001,-2.22237050119257e-001

2.78948733270080e+004,-1.00990853585742e+001,-2.25339349729663e-001

2.82842712474618e+004,-1.00990852299522e+001,-2.28484955234383e-001

2.86791049603164e+004,-1.00990850977112e+001,-2.31674471136793e-001

2.90794503464061e+004,-1.00990849617495e+001,-2.34908510375632e-001

2.94853843458219e+004,-1.00990848219623e+001,-2.38187694447772e-001

2.98969849726987e+004,-1.00990846782419e+001,-2.41512653521153e-001

3.03143313302078e+004,-1.00990845304775e+001,-2.44884026562394e-001

3.07375036257601e+004,-1.00990843785552e+001,-2.48302461455119e-001

3.11665831864199e+004,-1.00990842223579e+001,-2.51768615125735e-001

3.16016524745350e+004,-1.00990840617653e+001,-2.55283153669799e-001

3.20427951035848e+004,-1.00990838966535e+001,-2.58846752479944e-001

3.24900958542493e+004,-1.00990837268951e+001,-2.62460096375952e-001

3.29436406907028e+004,-1.00990835523593e+001,-2.66123879735000e-001

3.34035167771346e+004,-1.00990833729116e+001,-2.69838806624505e-001

3.38698124945009e+004,-1.00990831884134e+001,-2.73605590942003e-001

3.43426174575100e+004,-1.00990829987227e+001,-2.77424956545564e-001

3.48220225318448e+004,-1.00990828036929e+001,-2.81297637398331e-001

3.53081198516260e+004,-1.00990826031738e+001,-2.85224377706479e-001

3.58010028371187e+004,-1.00990823970106e+001,-2.89205932061543e-001

3.63007662126863e+004,-1.00990821850441e+001,-2.93243065590290e-001

3.68075060249948e+004,-1.00990819671110e+001,-2.97336554093822e-001

3.73213196614721e+004,-1.00990817430429e+001,-3.01487184204309e-001

3.78423058690237e+004,-1.00990815126671e+001,-3.05695753529310e-001

3.83705647730104e+004,-1.00990812758056e+001,-3.09963070811575e-001

3.89061978964912e+004,-1.00990810322756e+001,-3.14289956078682e-001

3.94493081797342e+004,-1.00990807818892e+001,-3.18677240802418e-001

3.99999999999998e+004,-1.00990805244528e+001,-3.23125768061219e-001

4.05583791916010e+004,-1.00990802597679e+001,-3.27636392696129e-001

4.11245530662425e+004,-1.00990799876299e+001,-3.32209981481022e-001

4.16986304336447e+004,-1.00990797078287e+001,-3.36847413284563e-001

4.22807216224550e+004,-1.00990794201482e+001,-3.41549579241970e-001

4.28709385014515e+004,-1.00990791243659e+001,-3.46317382924929e-001

4.34693945010421e+004,-1.00990788202534e+001,-3.51151740513844e-001

4.40762046350642e+004,-1.00990785075758e+001,-3.56053580975127e-001

4.46914855228886e+004,-1.00990781860911e+001,-3.61023846240192e-001

4.53153554118317e+004,-1.00990778555510e+001,-3.66063491384215e-001

4.59479341998812e+004,-1.00990775156999e+001,-3.71173484810386e-001

4.65893434587380e+004,-1.00990771662749e+001,-3.76354808437435e-001

4.72397064571810e+004,-1.00990768070059e+001,-3.81608457884660e-001

4.78991481847569e+004,-1.00990764376149e+001,-3.86935442666137e-001

4.85677953758016e+004,-1.00990760578161e+001,-3.92336786383762e-001

4.92457765337964e+004,-1.00990756673156e+001,-3.97813526921444e-001

4.99332219560642e+004,-1.00990752658110e+001,-4.03366716648628e-001

5.06302637588109e+004,-1.00990748529918e+001,-4.08997422615773e-001

5.13370359025159e+004,-1.00990744285382e+001,-4.14706726767557e-001

5.20536742176771e+004,-1.00990739921215e+001,-4.20495726142661e-001

5.27803164309155e+004,-1.00990735434036e+001,-4.26365533089359e-001

5.35171021914442e+004,-1.00990730820370e+001,-4.32317275475271e-001

5.42641730979066e+004,-1.00990726076641e+001,-4.38352096907318e-001

5.50216727255895e+004,-1.00990721199171e+001,-4.44471156949269e-001

5.57897466540159e+004,-1.00990716184181e+001,-4.50675631343432e-001

5.65685424949235e+004,-1.00990711027781e+001,-4.56966712236976e-001

5.73582099206328e+004,-1.00990705725971e+001,-4.63345608412366e-001

5.81589006928121e+004,-1.00990700274639e+001,-4.69813545515307e-001

5.89707686916437e+004,-1.00990694669554e+001,-4.76371766293504e-001

5.97939699453972e+004,-1.00990688906366e+001,-4.83021530833151e-001

6.06286626604156e+004,-1.00990682980599e+001,-4.89764116801807e-001

6.14750072515201e+004,-1.00990676887652e+001,-4.96600819691695e-001

6.23331663728396e+004,-1.00990670622791e+001,-5.03532953069212e-001

6.32033049490698e+004,-1.00990664181148e+001,-5.10561848826515e-001

6.40855902071694e+004,-1.00990657557716e+001,-5.17688857437531e-001

6.49801917084985e+004,-1.00990650747345e+001,-5.24915348215910e-001

6.58872813814055e+004,-1.00990643744737e+001,-5.32242709578205e-001

6.68070335542691e+004,-1.00990636544444e+001,-5.39672349309994e-001

6.77396249890018e+004,-1.00990629140864e+001,-5.47205694834913e-001

6.86852349150199e+004,-1.00990621528230e+001,-5.54844193488897e-001

6.96440450636895e+004,-1.00990613700615e+001,-5.62589312797600e-001

7.06162397032520e+004,-1.00990605651919e+001,-5.70442540758861e-001

7.16020056742374e+004,-1.00990597375870e+001,-5.78405386123802e-001

7.26015324253724e+004,-1.00990588866014e+001,-5.86479378691680e-001

7.36150120499896e+004,-1.00990580115715e+001,-5.94666069597250e-001

7.46426393229441e+004,-1.00990571118143e+001,-6.02967031611906e-001

7.56846117380472e+004,-1.00990561866276e+001,-6.11383859444488e-001

7.67411295460207e+004,-1.00990552352887e+001,-6.19918170044367e-001

7.78123957929823e+004,-1.00990542570544e+001,-6.28571602913060e-001

7.88986163594682e+004,-1.00990532511601e+001,-6.37345820418209e-001

7.99999999999995e+004,-1.00990522168192e+001,-6.46242508111251e-001

8.11167583832018e+004,-1.00990511532224e+001,-6.55263375050905e-001

8.22491061324848e+004,-1.00990500595372e+001,-6.64410154129181e-001

8.33972608672892e+004,-1.00990489349071e+001,-6.73684602404467e-001

8.45614432449099e+004,-1.00990477784509e+001,-6.83088501436149e-001

8.57418770029029e+004,-1.00990465892621e+001,-6.92623657628365e-001

8.69387890020841e+004,-1.00990453664079e+001,-7.02291902572211e-001

8.81524092701283e+004,-1.00990441089286e+001,-7.12095093398751e-001

8.93829710457770e+004,-1.00990428158369e+001,-7.22035113133821e-001

9.06307108236633e+004,-1.00990414861168e+001,-7.32113871056982e-001

9.18958683997622e+004,-1.00990401187228e+001,-7.42333303069401e-001

9.31786869174758e+004,-1.00990387125794e+001,-7.52695372061294e-001

9.44794129143618e+004,-1.00990372665800e+001,-7.63202068287769e-001

9.57982963695136e+004,-1.00990357795854e+001,-7.73855409751158e-001

9.71355907516031e+004,-1.00990342504238e+001,-7.84657442585689e-001

9.84915530675926e+004,-1.00990326778893e+001,-7.95610241447921e-001

9.98664439121282e+004,-1.00990310607406e+001,-8.06715909914219e-001

1.01260527517622e+005,-1.00990293977008e+001,-8.17976580882739e-001

1.02674071805032e+005,-1.00990276874553e+001,-8.29394416980219e-001

1.04107348435354e+005,-1.00990259286516e+001,-8.40971610975864e-001

1.05560632861831e+005,-1.00990241198974e+001,-8.52710386200454e-001

1.07034204382888e+005,-1.00990222597599e+001,-8.64612996969213e-001

1.08528346195813e+005,-1.00990203467643e+001,-8.76681729014657e-001

1.10043345451179e+005,-1.00990183793929e+001,-8.88918899920995e-001

1.11579493308032e+005,-1.00990163560833e+001,-9.01326859567602e-001

1.13137084989847e+005,-1.00990142752273e+001,-9.13907990577666e-001

1.14716419841265e+005,-1.00990121351695e+001,-9.26664708771630e-001

1.16317801385624e+005,-1.00990099342059e+001,-9.39599463629119e-001

1.17941537383287e+005,-1.00990076705823e+001,-9.52714738755858e-001

1.19587939890794e+005,-1.00990053424928e+001,-9.66013052357888e-001

1.21257325320831e+005,-1.00990029480784e+001,-9.79496957720569e-001

1.22950014503040e+005,-1.00990004854251e+001,-9.93169043695649e-001

1.24666332745679e+005,-1.00989979525621e+001,-1.00703193519622e+000

1.26406609898139e+005,-1.00989953474607e+001,-1.02108829369374e+000

1.28171180414339e+005,-1.00989926680317e+001,-1.03534081772914e+000

1.29960383416997e+005,-1.00989899121242e+001,-1.04979224342255e+000

1.31774562762811e+005,-1.00989870775231e+001,-1.06444534499805e+000

1.33614067108538e+005,-1.00989841619475e+001,-1.07930293530990e+000

1.35479249978003e+005,-1.00989811630486e+001,-1.09436786637721e+000

1.37370469830040e+005,-1.00989780784074e+001,-1.10964302992933e+000

1.39288090127379e+005,-1.00989749055327e+001,-1.12513135795329e+000

1.41232479406504e+005,-1.00989716418586e+001,-1.14083582325331e+000

1.43204011348474e+005,-1.00989682847425e+001,-1.15675944001459e+000

1.45203064850745e+005,-1.00989648314623e+001,-1.17290526437762e+000

1.47230024099979e+005,-1.00989612792141e+001,-1.18927639501825e+000

1.49285278645888e+005,-1.00989576251096e+001,-1.20587597373716e+000

1.51369223476094e+005,-1.00989538661733e+001,-1.22270718605558e+000

1.53482259092041e+005,-1.00989499993399e+001,-1.23977326182163e+000

1.55624791585964e+005,-1.00989460214513e+001,-1.25707747582125e+000

1.57797232718936e+005,-1.00989419292536e+001,-1.27462314840301e+000

1.59999999999999e+005,-1.00989377193941e+001,-1.29241364610492e+000

1.62233516766403e+005,-1.00989333884182e+001,-1.31045238229501e+000

1.64498212264969e+005,-1.00989289327659e+001,-1.32874281781725e+000

1.66794521734578e+005,-1.00989243487683e+001,-1.34728846164935e+000

1.69122886489819e+005,-1.00989196326448e+001,-1.36609287156568e+000

1.71483754005805e+005,-1.00989147804985e+001,-1.38515965481226e+000

1.73877578004168e+005,-1.00989097883128e+001,-1.40449246879067e+000

1.76304818540256e+005,-1.00989046519477e+001,-1.42409502174852e+000

1.78765942091554e+005,-1.00988993671356e+001,-1.44397107348341e+000

1.81261421647326e+005,-1.00988939294768e+001,-1.46412443605333e+000

1.83791736799524e+005,-1.00988883344356e+001,-1.48455897449688e+000

1.86357373834951e+005,-1.00988825773354e+001,-1.50527860756511e+000

1.88958825828723e+005,-1.00988766533546e+001,-1.52628730846189e+000

1.91596592739027e+005,-1.00988705575208e+001,-1.54758910559434e+000

1.94271181503206e+005,-1.00988642847069e+001,-1.56918808333361e+000

1.96983106135185e+005,-1.00988578296250e+001,-1.59108838278717e+000

1.99732887824256e+005,-1.00988511868214e+001,-1.61329420257795e+000

2.02521055035243e+005,-1.00988443506711e+001,-1.63580979963912e+000

2.05348143610063e+005,-1.00988373153717e+001,-1.65863949001521e+000

2.08214696870707e+005,-1.00988300749378e+001,-1.68178764967626e+000

2.11121265723661e+005,-1.00988226231942e+001,-1.70525871534296e+000

2.14068408765776e+005,-1.00988149537701e+001,-1.72905718532106e+000

2.17056692391625e+005,-1.00988070600917e+001,-1.75318762035060e+000

2.20086690902357e+005,-1.00987989353760e+001,-1.77765464446250e+000

2.23158986616063e+005,-1.00987905726228e+001,-1.80246294584971e+000

2.26274169979693e+005,-1.00987819646080e+001,-1.82761727774834e+000

2.29432839682530e+005,-1.00987731038751e+001,-1.85312245933257e+000

2.32635602771247e+005,-1.00987639827276e+001,-1.87898337661921e+000

2.35883074766574e+005,-1.00987545932206e+001,-1.90520498338662e+000

2.39175879781588e+005,-1.00987449271518e+001,-1.93179230210455e+000

2.42514650641661e+005,-1.00987349760530e+001,-1.95875042487762e+000

2.45900029006080e+005,-1.00987247311802e+001,-1.98608451440070e+000

2.49332665491357e+005,-1.00987141835045e+001,-2.01379980492744e+000

2.52813219796278e+005,-1.00987033237013e+001,-2.04190160325290e+000

2.56342360828676e+005,-1.00986921421404e+001,-2.07039528970702e+000

2.59920766833993e+005,-1.00986806288748e+001,-2.09928631916446e+000

2.63549125525621e+005,-1.00986687736299e+001,-2.12858022206577e+000

2.67228134217075e+005,-1.00986565657911e+001,-2.15828260545342e+000

2.70958499956006e+005,-1.00986439943919e+001,-2.18839915402262e+000

2.74740939660078e+005,-1.00986310481016e+001,-2.21893563118367e+000

2.78576180254757e+005,-1.00986177152117e+001,-2.24989788014274e+000

2.82464958813007e+005,-1.00986039836226e+001,-2.28129182499286e+000

2.86408022696948e+005,-1.00985898408292e+001,-2.31312347182403e+000

2.90406129701488e+005,-1.00985752739062e+001,-2.34539890984527e+000

2.94460048199957e+005,-1.00985602694930e+001,-2.37812431252262e+000

2.98570557291775e+005,-1.00985448137776e+001,-2.41130593873507e+000

3.02738446952187e+005,-1.00985288924805e+001,-2.44495013394163e+000

3.06964518184081e+005,-1.00985124908369e+001,-2.47906333136990e+000

3.11249583171928e+005,-1.00984955935796e+001,-2.51365205321558e+000

3.15594465437872e+005,-1.00984781849200e+001,-2.54872291186297e+000

3.19999999999997e+005,-1.00984602485295e+001,-2.58428261111866e+000

3.24467033532806e+005,-1.00984417675185e+001,-2.62033794746567e+000

3.28996424529938e+005,-1.00984227244168e+001,-2.65689581133141e+000

3.33589043469155e+005,-1.00984031011515e+001,-2.69396318837566e+000

3.38245772979638e+005,-1.00983828790247e+001,-2.73154716079556e+000

3.42967508011610e+005,-1.00983620386904e+001,-2.76965490865007e+000

3.47755156008335e+005,-1.00983405601301e+001,-2.80829371119931e+000

3.52609637080511e+005,-1.00983184226282e+001,-2.84747094826774e+000

3.57531884183106e+005,-1.00982956047454e+001,-2.88719410162293e+000

3.62522843294651e+005,-1.00982720842923e+001,-2.92747075637443e+000

3.67583473599047e+005,-1.00982478383010e+001,-2.96830860239320e+000

3.72714747669902e+005,-1.00982228429958e+001,-3.00971543575129e+000

3.77917651657445e+005,-1.00981970737634e+001,-3.05169916018168e+000

3.83193185478053e+005,-1.00981705051212e+001,-3.09426778855837e+000

3.88542363006410e+005,-1.00981431106848e+001,-3.13742944439927e+000

3.93966212270369e+005,-1.00981148631341e+001,-3.18119236338985e+000

3.99465775648511e+005,-1.00980857341785e+001,-3.22556489492978e+000

4.05042110070485e+005,-1.00980556945201e+001,-3.27055550370043e+000

4.10696287220124e+005,-1.00980247138162e+001,-3.31617277125778e+000

4.16429393741414e+005,-1.00979927606399e+001,-3.36242539764772e+000

4.22242531447321e+005,-1.00979598024396e+001,-3.40932220304472e+000

4.28136817531551e+005,-1.00979258054969e+001,-3.45687212941633e+000

4.34113384783250e+005,-1.00978907348826e+001,-3.50508424221238e+000

4.40173381804713e+005,-1.00978545544121e+001,-3.55396773207854e+000

4.46317973232124e+005,-1.00978172265975e+001,-3.60353191659787e+000

4.52548339959385e+005,-1.00977787125998e+001,-3.65378624205799e+000

4.58865679365059e+005,-1.00977389721779e+001,-3.70474028524588e+000

4.65271205542494e+005,-1.00976979636371e+001,-3.75640375527053e+000

4.71766149533147e+005,-1.00976556437742e+001,-3.80878649541381e+000

4.78351759563174e+005,-1.00976119678224e+001,-3.86189848501147e+000

4.85029301283321e+005,-1.00975668893929e+001,-3.91574984136332e+000

4.91800058012158e+005,-1.00975203604149e+001,-3.97035082167444e+000

4.98665330982714e+005,-1.00974723310744e+001,-4.02571182502647e+000

5.05626439592555e+005,-1.00974227497490e+001,-4.08184339438382e+000

5.12684721657352e+005,-1.00973715629430e+001,-4.13875621862894e+000

5.19841533667984e+005,-1.00973187152174e+001,-4.19646113463543e+000

5.27098251051240e+005,-1.00972641491207e+001,-4.25496912937178e+000

5.34456268434150e+005,-1.00972078051146e+001,-4.31429134204330e+000

5.41916999912011e+005,-1.00971496214996e+001,-4.37443906626820e+000

