Freq.,VOut,OutRef

1.00000000000000e+004,-2.09192361404520e+001,-3.87008530289540e-001

1.01395947979003e+004,-2.09192379280922e+001,-3.92410934374619e-001

1.02811382665607e+004,-2.09192397659887e+001,-3.97888751780150e-001

1.04246576084112e+004,-2.09192416555545e+001,-4.03443035176622e-001

1.05701804056138e+004,-2.09192435982420e+001,-4.09074851925304e-001

1.07177346253629e+004,-2.09192455955447e+001,-4.14785284287090e-001

1.08673486252606e+004,-2.09192476489979e+001,-4.20575429624797e-001

1.10190511587661e+004,-2.09192497601801e+001,-4.26446400619362e-001

1.11728713807222e+004,-2.09192519307142e+001,-4.32399325479728e-001

1.13288388529580e+004,-2.09192541622688e+001,-4.38435348161022e-001

1.14869835499703e+004,-2.09192564565594e+001,-4.44555628584655e-001

1.16473358646846e+004,-2.09192588153496e+001,-4.50761342859992e-001

1.18099266142953e+004,-2.09192612404525e+001,-4.57053683511179e-001

1.19747870461893e+004,-2.09192637337324e+001,-4.63433859705767e-001

1.21419488439505e+004,-2.09192662971059e+001,-4.69903097485452e-001

1.23114441334492e+004,-2.09192689325435e+001,-4.76462640003839e-001

1.24833054890161e+004,-2.09192716420711e+001,-4.83113747763544e-001

1.26575659397028e+004,-2.09192744277714e+001,-4.89857698860030e-001

1.28342589756290e+004,-2.09192772917860e+001,-4.96695789223703e-001

1.30134185544193e+004,-2.09192802363162e+001,-5.03629332872051e-001

1.31950791077289e+004,-2.09192832636256e+001,-5.10659662160440e-001

1.33792755478611e+004,-2.09192863760413e+001,-5.17788128036799e-001

1.35660432744767e+004,-2.09192895759557e+001,-5.25016100303971e-001

1.37554181813974e+004,-2.09192928658286e+001,-5.32344967879537e-001

1.39474366635040e+004,-2.09192962481889e+001,-5.39776139063712e-001

1.41421356237309e+004,-2.09192997256365e+001,-5.47311041810777e-001

1.43395524801583e+004,-2.09193033008446e+001,-5.54951124000895e-001

1.45397251732031e+004,-2.09193069765611e+001,-5.62697853720373e-001

1.47426921729110e+004,-2.09193107556118e+001,-5.70552719540092e-001

1.49484924863494e+004,-2.09193146409013e+001,-5.78517230806636e-001

1.51571656651040e+004,-2.09193186354163e+001,-5.86592917924855e-001

1.53687518128801e+004,-2.09193227422271e+001,-5.94781332658753e-001

1.55832915932100e+004,-2.09193269644906e+001,-6.03084048423457e-001

1.58008262372675e+004,-2.09193313054523e+001,-6.11502660590551e-001

1.60213975517924e+004,-2.09193357684489e+001,-6.20038786793829e-001

1.62450479271247e+004,-2.09193403569107e+001,-6.28694067238343e-001

1.64718203453514e+004,-2.09193450743649e+001,-6.37470165014940e-001

1.67017583885674e+004,-2.09193499244376e+001,-6.46368766421588e-001

1.69349062472505e+004,-2.09193549108567e+001,-6.55391581284696e-001

1.71713087287550e+004,-2.09193600374549e+001,-6.64540343288960e-001

1.74110112659224e+004,-2.09193653081728e+001,-6.73816810307253e-001

1.76540599258131e+004,-2.09193707270617e+001,-6.83222764740556e-001

1.79005014185594e+004,-2.09193762982867e+001,-6.92760013858241e-001

1.81503831063432e+004,-2.09193820261300e+001,-7.02430390145699e-001

1.84037530124975e+004,-2.09193879149941e+001,-7.12235751655195e-001

1.86606598307361e+004,-2.09193939694054e+001,-7.22177982361484e-001

1.89211529345119e+004,-2.09194001940174e+001,-7.32258992524178e-001

1.91852823865052e+004,-2.09194065936143e+001,-7.42480719054766e-001

1.94530989482457e+004,-2.09194131731150e+001,-7.52845125885407e-001

1.97246540898671e+004,-2.09194199375764e+001,-7.63354204347925e-001

1.99999999999999e+004,-2.09194268921978e+001,-7.74009973553785e-001

2.02791895958005e+004,-2.09194340423244e+001,-7.84814480783537e-001

2.05622765331213e+004,-2.09194413934517e+001,-7.95769801875918e-001

2.08493152168224e+004,-2.09194489512295e+001,-8.06878041629165e-001

2.11403608112276e+004,-2.09194567214668e+001,-8.18141334201010e-001

2.14354692507258e+004,-2.09194647101354e+001,-8.29561843521197e-001

2.17346972505211e+004,-2.09194729233752e+001,-8.41141763703547e-001

2.20381023175322e+004,-2.09194813674984e+001,-8.52883319466889e-001

2.23457427614443e+004,-2.09194900489950e+001,-8.64788766562269e-001

2.26576777059159e+004,-2.09194989745369e+001,-8.76860392204409e-001

2.29739670999406e+004,-2.09195081509840e+001,-8.89100515509124e-001

2.32946717293690e+004,-2.09195175853885e+001,-9.01511487939210e-001

2.36198532285905e+004,-2.09195272850011e+001,-9.14095693753452e-001

2.39495740923785e+004,-2.09195372572762e+001,-9.26855550463968e-001

2.42838976879009e+004,-2.09195475098775e+001,-9.39793509298354e-001

2.46228882668982e+004,-2.09195580506843e+001,-9.52912055669986e-001

2.49666109780322e+004,-2.09195688877971e+001,-9.66213709653519e-001

2.53151318794055e+004,-2.09195800295442e+001,-9.79701026466212e-001

2.56685179512580e+004,-2.09195914844879e+001,-9.93376596958912e-001

2.60268371088386e+004,-2.09196032614308e+001,-1.00724304811077e+000

2.63901582154578e+004,-2.09196153694234e+001,-1.02130304353129e+000

2.67585510957221e+004,-2.09196278177699e+001,-1.03555928397160e+000

2.71320865489533e+004,-2.09196406160364e+001,-1.05001450784017e+000

2.75108363627948e+004,-2.09196537740576e+001,-1.06467149172696e+000

2.78948733270080e+004,-2.09196673019444e+001,-1.07953305093399e+000

2.82842712474618e+004,-2.09196812100919e+001,-1.09460204001440e+000

2.86791049603164e+004,-2.09196955091874e+001,-1.10988135331741e+000

2.90794503464061e+004,-2.09197102102184e+001,-1.12537392554264e+000

2.94853843458219e+004,-2.09197253244808e+001,-1.14108273230110e+000

2.98969849726987e+004,-2.09197408635882e+001,-1.15701079068255e+000

3.03143313302078e+004,-2.09197568394803e+001,-1.17316115983376e+000

3.07375036257601e+004,-2.09197732644324e+001,-1.18953694154187e+000

3.11665831864199e+004,-2.09197901510645e+001,-1.20614128082748e+000

3.16016524745350e+004,-2.09198075123511e+001,-1.22297736654509e+000

3.20427951035848e+004,-2.09198253616313e+001,-1.24004843199243e+000

3.24900958542493e+004,-2.09198437126188e+001,-1.25735775552761e+000

3.29436406907028e+004,-2.09198625794125e+001,-1.27490866119474e+000

3.34035167771346e+004,-2.09198819765076e+001,-1.29270451935898e+000

3.38698124945009e+004,-2.09199019188061e+001,-1.31074874734836e+000

3.43426174575100e+004,-2.09199224216288e+001,-1.32904481010804e+000

3.48220225318448e+004,-2.09199435007268e+001,-1.34759622085914e+000

3.53081198516260e+004,-2.09199651722935e+001,-1.36640654176958e+000

3.58010028371187e+004,-2.09199874529771e+001,-1.38547938463406e+000

3.63007662126863e+004,-2.09200103598936e+001,-1.40481841156029e+000

3.68075060249948e+004,-2.09200339106395e+001,-1.42442733567000e+000

3.73213196614721e+004,-2.09200581233054e+001,-1.44430992180426e+000

3.78423058690237e+004,-2.09200830164903e+001,-1.46446998724058e+000

3.83705647730104e+004,-2.09201086093150e+001,-1.48491140242158e+000

3.89061978964912e+004,-2.09201349214378e+001,-1.50563809169026e+000

3.94493081797342e+004,-2.09201619730683e+001,-1.52665403403822e+000

3.99999999999998e+004,-2.09201897849844e+001,-1.54796326386158e+000

4.05583791916010e+004,-2.09202183785468e+001,-1.56956987172959e+000

4.11245530662425e+004,-2.09202477757161e+001,-1.59147800516217e+000

4.16986304336447e+004,-2.09202779990695e+001,-1.61369186941855e+000

4.22807216224550e+004,-2.09203090718183e+001,-1.63621572829621e+000

4.28709385014515e+004,-2.09203410178250e+001,-1.65905390494171e+000

4.34693945010421e+004,-2.09203738616224e+001,-1.68221078267175e+000

4.40762046350642e+004,-2.09204076284316e+001,-1.70569080580489e+000

4.46914855228886e+004,-2.09204423441820e+001,-1.72949848050626e+000

4.53153554118317e+004,-2.09204780355307e+001,-1.75363837564129e+000

4.59479341998812e+004,-2.09205147298831e+001,-1.77811512364391e+000

4.65893434587380e+004,-2.09205524554137e+001,-1.80293342139401e+000

4.72397064571810e+004,-2.09205912410876e+001,-1.82809803110772e+000

4.78991481847569e+004,-2.09206311166832e+001,-1.85361378124032e+000

4.85677953758016e+004,-2.09206721128142e+001,-1.87948556740026e+000

4.92457765337964e+004,-2.09207142609535e+001,-1.90571835327674e+000

4.99332219560642e+004,-2.09207575934572e+001,-1.93231717157759e+000

5.06302637588109e+004,-2.09208021435892e+001,-1.95928712498286e+000

5.13370359025159e+004,-2.09208479455467e+001,-1.98663338710874e+000

5.20536742176771e+004,-2.09208950344862e+001,-2.01436120348587e+000

5.27803164309155e+004,-2.09209434465507e+001,-2.04247589254959e+000

5.35171021914442e+004,-2.09209932188970e+001,-2.07098284664416e+000

5.42641730979066e+004,-2.09210443897241e+001,-2.09988753304153e+000

5.50216727255895e+004,-2.09210969983026e+001,-2.12919549497062e+000

5.57897466540159e+004,-2.09211510850043e+001,-2.15891235266410e+000

5.65685424949235e+004,-2.09212066913333e+001,-2.18904380441639e+000

5.73582099206328e+004,-2.09212638599578e+001,-2.21959562765684e+000

5.81589006928121e+004,-2.09213226347422e+001,-2.25057368003718e+000

5.89707686916437e+004,-2.09213830607809e+001,-2.28198390053282e+000

5.97939699453972e+004,-2.09214451844327e+001,-2.31383231056006e+000

6.06286626604156e+004,-2.09215090533560e+001,-2.34612501510683e+000

6.14750072515201e+004,-2.09215747165452e+001,-2.37886820387830e+000

6.23331663728396e+004,-2.09216422243679e+001,-2.41206815245928e+000

6.32033049490698e+004,-2.09217116286036e+001,-2.44573122348948e+000

6.40855902071694e+004,-2.09217829824828e+001,-2.47986386785661e+000

6.49801917084985e+004,-2.09218563407279e+001,-2.51447262590344e+000

6.58872813814055e+004,-2.09219317595943e+001,-2.54956412865179e+000

6.68070335542691e+004,-2.09220092969140e+001,-2.58514509904177e+000

6.77396249890018e+004,-2.09220890121387e+001,-2.62122235318779e+000

6.86852349150199e+004,-2.09221709663859e+001,-2.65780280165043e+000

6.96440450636895e+004,-2.09222552224848e+001,-2.69489345072536e+000

7.06162397032520e+004,-2.09223418450241e+001,-2.73250140374848e+000

7.16020056742374e+004,-2.09224309004016e+001,-2.77063386241880e+000

7.26015324253724e+004,-2.09225224568740e+001,-2.80929812813719e+000

7.36150120499896e+004,-2.09226165846090e+001,-2.84850160336410e+000

7.46426393229441e+004,-2.09227133557386e+001,-2.88825179299247e+000

7.56846117380472e+004,-2.09228128444142e+001,-2.92855630574032e+000

7.67411295460207e+004,-2.09229151268619e+001,-2.96942285556072e+000

7.78123957929823e+004,-2.09230202814414e+001,-3.01085926306879e+000

7.88986163594682e+004,-2.09231283887046e+001,-3.05287345698762e+000

7.99999999999995e+004,-2.09232395314573e+001,-3.09547347561284e+000

8.11167583832018e+004,-2.09233537948213e+001,-3.13866746829531e+000

8.22491061324848e+004,-2.09234712662992e+001,-3.18246369694266e+000

8.33972608672892e+004,-2.09235920358406e+001,-3.22687053753934e+000

8.45614432449099e+004,-2.09237161959104e+001,-3.27189648168641e+000

8.57418770029029e+004,-2.09238438415580e+001,-3.31755013816050e+000

8.69387890020841e+004,-2.09239750704898e+001,-3.36384023449193e+000

8.81524092701283e+004,-2.09241099831430e+001,-3.41077561856206e+000

8.93829710457770e+004,-2.09242486827611e+001,-3.45836526022160e+000

9.06307108236633e+004,-2.09243912754720e+001,-3.50661825292765e+000

9.18958683997622e+004,-2.09245378703681e+001,-3.55554381540218e+000

9.31786869174758e+004,-2.09246885795884e+001,-3.60515129330907e+000

9.44794129143618e+004,-2.09248435184033e+001,-3.65545016095309e+000

9.57982963695136e+004,-2.09250028053012e+001,-3.70645002299913e+000

9.71355907516031e+004,-2.09251665620775e+001,-3.75816061621212e+000

9.84915530675926e+004,-2.09253349139267e+001,-3.81059181121757e+000

9.98664439121282e+004,-2.09255079895362e+001,-3.86375361428354e+000

1.01260527517622e+005,-2.09256859211829e+001,-3.91765616912411e+000

1.02674071805032e+005,-2.09258688448329e+001,-3.97230975872391e+000

1.04107348435354e+005,-2.09260569002431e+001,-4.02772480718420e+000

1.05560632861831e+005,-2.09262502310663e+001,-4.08391188159036e+000

1.07034204382888e+005,-2.09264489849588e+001,-4.14088169390190e+000

1.08528346195813e+005,-2.09266533136906e+001,-4.19864510286429e+000

1.10043345451179e+005,-2.09268633732597e+001,-4.25721311594156e+000

1.11579493308032e+005,-2.09270793240078e+001,-4.31659689127321e+000

1.13137084989847e+005,-2.09273013307409e+001,-4.37680773965162e+000

1.14716419841265e+005,-2.09275295628519e+001,-4.43785712652276e+000

1.16317801385624e+005,-2.09277641944469e+001,-4.49975667400935e+000

1.17941537383287e+005,-2.09280054044753e+001,-4.56251816295589e+000

1.19587939890794e+005,-2.09282533768626e+001,-4.62615353499737e+000

1.21257325320831e+005,-2.09285083006475e+001,-4.69067489465009e+000

1.22950014503040e+005,-2.09287703701225e+001,-4.75609451142548e+000

1.24666332745679e+005,-2.09290397849777e+001,-4.82242482196662e+000

1.26406609898139e+005,-2.09293167504494e+001,-4.88967843220801e+000

1.28171180414339e+005,-2.09296014774718e+001,-4.95786811955802e+000

1.29960383416997e+005,-2.09298941828336e+001,-5.02700683510429e+000

1.31774562762811e+005,-2.09301950893377e+001,-5.09710770584246e+000

1.33614067108538e+005,-2.09305044259665e+001,-5.16818403692737e+000

1.35479249978003e+005,-2.09308224280501e+001,-5.24024931394805e+000

1.37370469830040e+005,-2.09311493374403e+001,-5.31331720522452e+000

1.39288090127379e+005,-2.09314854026884e+001,-5.38740156412884e+000

1.41232479406504e+005,-2.09318308792278e+001,-5.46251643142801e+000

1.43204011348474e+005,-2.09321860295620e+001,-5.53867603765051e+000

1.45203064850745e+005,-2.09325511234564e+001,-5.61589480547459e+000

1.47230024099979e+005,-2.09329264381367e+001,-5.69418735214034e+000

1.49285278645888e+005,-2.09333122584909e+001,-5.77356849188359e+000

1.51369223476094e+005,-2.09337088772777e+001,-5.85405323839225e+000

1.53482259092041e+005,-2.09341165953401e+001,-5.93565680728512e+000

1.55624791585964e+005,-2.09345357218243e+001,-6.01839461861270e+000

1.57797232718936e+005,-2.09349665744045e+001,-6.10228229937984e+000

1.59999999999999e+005,-2.09354094795135e+001,-6.18733568609034e+000

1.62233516766403e+005,-2.09358647725792e+001,-6.27357082731247e+000

1.64498212264969e+005,-2.09363327982677e+001,-6.36100398626575e+000

1.66794521734578e+005,-2.09368139107315e+001,-6.44965164342977e+000

1.69122886489819e+005,-2.09373084738657e+001,-6.53953049917121e+000

1.71483754005805e+005,-2.09378168615695e+001,-6.63065747639433e+000

1.73877578004168e+005,-2.09383394580146e+001,-6.72304972320767e+000

1.76304818540256e+005,-2.09388766579211e+001,-6.81672461561367e+000

1.78765942091554e+005,-2.09394288668397e+001,-6.91169976021524e+000

1.81261421647326e+005,-2.09399965014416e+001,-7.00799299694095e+000

1.83791736799524e+005,-2.09405799898151e+001,-7.10562240179016e+000

1.86357373834951e+005,-2.09411797717704e+001,-7.20460628959317e+000

1.88958825828723e+005,-2.09417962991513e+001,-7.30496321679071e+000

1.91596592739027e+005,-2.09424300361556e+001,-7.40671198422840e+000

1.94271181503206e+005,-2.09430814596627e+001,-7.50987163996733e+000

1.96983106135185e+005,-2.09437510595698e+001,-7.61446148211051e+000

1.99732887824256e+005,-2.09444393391361e+001,-7.72050106164259e+000

2.02521055035243e+005,-2.09451468153358e+001,-7.82801018528402e+000

2.05348143610063e+005,-2.09458740192197e+001,-7.93700891835791e+000

2.08214696870707e+005,-2.09466214962857e+001,-8.04751758766859e+000

2.11121265723661e+005,-2.09473898068579e+001,-8.15955678439176e+000

2.14068408765776e+005,-2.09481795264757e+001,-8.27314736697419e+000

2.17056692391625e+005,-2.09489912462917e+001,-8.38831046404325e+000

2.20086690902357e+005,-2.09498255734789e+001,-8.50506747732426e+000

2.23158986616063e+005,-2.09506831316490e+001,-8.62344008456435e+000

2.26274169979693e+005,-2.09515645612790e+001,-8.74345024246326e+000

2.29432839682530e+005,-2.09524705201490e+001,-8.86512018960765e+000

2.32635602771247e+005,-2.09534016837899e+001,-8.98847244940931e+000

2.35883074766574e+005,-2.09543587459418e+001,-9.11352983304576e+000

2.39175879781588e+005,-2.09553424190230e+001,-9.24031544240016e+000

2.42514650641661e+005,-2.09563534346097e+001,-9.36885267300182e+000

2.45900029006080e+005,-2.09573925439273e+001,-9.49916521696364e+000

2.49332665491357e+005,-2.09584605183524e+001,-9.63127706591501e+000

2.52813219796278e+005,-2.09595581499261e+001,-9.76521251393014e+000

2.56342360828676e+005,-2.09606862518799e+001,-9.90099616044804e+000

2.59920766833993e+005,-2.09618456591723e+001,-1.00386529131832e+001

2.63549125525621e+005,-2.09630372290381e+001,-1.01782079910257e+001

2.67228134217075e+005,-2.09642618415491e+001,-1.03196869269277e+001

2.70958499956006e+005,-2.09655204001884e+001,-1.04631155707746e+001

2.74740939660078e+005,-2.09668138324355e+001,-1.06085200922389e+001

2.78576180254757e+005,-2.09681430903658e+001,-1.07559269836142e+001

2.82464958813007e+005,-2.09695091512616e+001,-1.09053630626277e+001

2.86408022696948e+005,-2.09709130182367e+001,-1.10568554752277e+001

2.90406129701488e+005,-2.09723557208742e+001,-1.12104316983441e+001

2.94460048199957e+005,-2.09738383158772e+001,-1.13661195426199e+001

2.98570557291775e+005,-2.09753618877337e+001,-1.15239471551101e+001

3.02738446952187e+005,-2.09769275493938e+001,-1.16839430219451e+001

3.06964518184081e+005,-2.09785364429619e+001,-1.18461359709571e+001

3.11249583171928e+005,-2.09801897404021e+001,-1.20105551742644e+001

3.15594465437872e+005,-2.09818886442574e+001,-1.21772301508126e+001

3.19999999999997e+005,-2.09836343883836e+001,-1.23461907688672e+001

3.24467033532806e+005,-2.09854282386963e+001,-1.25174672484569e+001

3.28996424529938e+005,-2.09872714939333e+001,-1.26910901637620e+001

3.33589043469155e+005,-2.09891654864305e+001,-1.28670904454450e+001

3.38245772979638e+005,-2.09911115829121e+001,-1.30454993829207e+001

3.42967508011610e+005,-2.09931111852959e+001,-1.32263486265600e+001

3.47755156008335e+005,-2.09951657315123e+001,-1.34096701898262e+001

3.52609637080511e+005,-2.09972766963383e+001,-1.35954964513364e+001

3.57531884183106e+005,-2.09994455922452e+001,-1.37838601568481e+001

3.62522843294651e+005,-2.10016739702618e+001,-1.39747944211625e+001

3.67583473599047e+005,-2.10039634208510e+001,-1.41683327299429e+001

3.72714747669902e+005,-2.10063155748015e+001,-1.43645089414430e+001

3.77917651657445e+005,-2.10087321041334e+001,-1.45633572881407e+001

3.83193185478053e+005,-2.10112147230177e+001,-1.47649123782710e+001

3.88542363006410e+005,-2.10137651887107e+001,-1.49692091972570e+001

3.93966212270369e+005,-2.10163853025017e+001,-1.51762831090292e+001

3.99465775648511e+005,-2.10190769106745e+001,-1.53861698572328e+001

4.05042110070485e+005,-2.10218419054828e+001,-1.55989055663131e+001

4.10696287220124e+005,-2.10246822261389e+001,-1.58145267424788e+001

4.16429393741414e+005,-2.10275998598152e+001,-1.60330702745329e+001

4.22242531447321e+005,-2.10305968426589e+001,-1.62545734345697e+001

4.28136817531551e+005,-2.10336752608192e+001,-1.64790738785290e+001

4.34113384783250e+005,-2.10368372514868e+001,-1.67066096466052e+001

4.40173381804713e+005,-2.10400850039449e+001,-1.69372191635017e+001

4.46317973232124e+005,-2.10434207606320e+001,-1.71709412385280e+001

4.52548339959385e+005,-2.10468468182158e+001,-1.74078150655316e+001

4.58865679365059e+005,-2.10503655286769e+001,-1.76478802226592e+001

4.65271205542494e+005,-2.10539793004037e+001,-1.78911766719405e+001

4.71766149533147e+005,-2.10576905992954e+001,-1.81377447586899e+001

4.78351759563174e+005,-2.10615019498753e+001,-1.83876252107174e+001

4.85029301283321e+005,-2.10654159364109e+001,-1.86408591373445e+001

4.91800058012158e+005,-2.10694352040421e+001,-1.88974880282165e+001

4.98665330982714e+005,-2.10735624599170e+001,-1.91575537519076e+001

5.05626439592555e+005,-2.10778004743319e+001,-1.94210985543083e+001

5.12684721657352e+005,-2.10821520818779e+001,-1.96881650567930e+001

5.19841533667984e+005,-2.10866201825913e+001,-1.99587962541567e+001

5.27098251051240e+005,-2.10912077431071e+001,-2.02330355123175e+001

5.34456268434150e+005,-2.10959177978148e+001,-2.05109265657768e+001

5.41916999912011e+005,-2.11007534500158e+001,-2.07925135148304e+001

