Freq.,VOut,OutRef

1.00000000000000e+004,-7.84469594312314e+000,-1.31157969555304e-001

1.01395947979003e+004,-7.84469580816917e+000,-1.32988866885525e-001

1.02811382665607e+004,-7.84469566942108e+000,-1.34845322602973e-001

1.04246576084112e+004,-7.84469552677214e+000,-1.36727693490464e-001

1.05701804056138e+004,-7.84469538011279e+000,-1.38636341310165e-001

1.07177346253629e+004,-7.84469522933023e+000,-1.40571632875155e-001

1.08673486252606e+004,-7.84469507430863e+000,-1.42533940118659e-001

1.10190511587661e+004,-7.84469491492865e+000,-1.44523640166874e-001

1.11728713807222e+004,-7.84469475106781e+000,-1.46541115409378e-001

1.13288388529580e+004,-7.84469458260037e+000,-1.48586753572710e-001

1.14869835499703e+004,-7.84469440939638e+000,-1.50660947800319e-001

1.16473358646846e+004,-7.84469423132289e+000,-1.52764096719091e-001

1.18099266142953e+004,-7.84469404824316e+000,-1.54896604521694e-001

1.19747870461893e+004,-7.84469386001620e+000,-1.57058881044553e-001

1.21419488439505e+004,-7.84469366649743e+000,-1.59251341844094e-001

1.23114441334492e+004,-7.84469346753798e+000,-1.61474408278245e-001

1.24833054890161e+004,-7.84469326298494e+000,-1.63728507586770e-001

1.26575659397028e+004,-7.84469305268101e+000,-1.66014072973333e-001

1.28342589756290e+004,-7.84469283646455e+000,-1.68331543688738e-001

1.30134185544193e+004,-7.84469261416944e+000,-1.70681365115435e-001

1.31950791077289e+004,-7.84469238562458e+000,-1.73063988854775e-001

1.33792755478611e+004,-7.84469215065432e+000,-1.75479872810647e-001

1.35660432744767e+004,-7.84469190907801e+000,-1.77929481279830e-001

1.37554181813974e+004,-7.84469166071011e+000,-1.80413285038860e-001

1.39474366635040e+004,-7.84469140535930e+000,-1.82931761439846e-001

1.41421356237309e+004,-7.84469114282955e+000,-1.85485394494576e-001

1.43395524801583e+004,-7.84469087291896e+000,-1.88074674973503e-001

1.45397251732031e+004,-7.84469059542005e+000,-1.90700100497134e-001

1.47426921729110e+004,-7.84469031011938e+000,-1.93362175633818e-001

1.49484924863494e+004,-7.84469001679751e+000,-1.96061411995386e-001

1.51571656651040e+004,-7.84468971522927e+000,-1.98798328332630e-001

1.53687518128801e+004,-7.84468940518247e+000,-2.01573450642089e-001

1.55832915932100e+004,-7.84468908641900e+000,-2.04387312259883e-001

1.58008262372675e+004,-7.84468875869353e+000,-2.07240453969903e-001

1.60213975517924e+004,-7.84468842175428e+000,-2.10133424102620e-001

1.62450479271247e+004,-7.84468807534219e+000,-2.13066778644245e-001

1.64718203453514e+004,-7.84468771919087e+000,-2.16041081342752e-001

1.67017583885674e+004,-7.84468735302644e+000,-2.19056903815774e-001

1.69349062472505e+004,-7.84468697656745e+000,-2.22114825659531e-001

1.71713087287550e+004,-7.84468658952448e+000,-2.25215434561863e-001

1.74110112659224e+004,-7.84468619159996e+000,-2.28359326414304e-001

1.76540599258131e+004,-7.84468578248794e+000,-2.31547105427004e-001

1.79005014185594e+004,-7.84468536187389e+000,-2.34779384244873e-001

1.81503831063432e+004,-7.84468492943445e+000,-2.38056784064569e-001

1.84037530124975e+004,-7.84468448483688e+000,-2.41379934756618e-001

1.86606598307361e+004,-7.84468402773974e+000,-2.44749474980047e-001

1.89211529345119e+004,-7.84468355779151e+000,-2.48166052312337e-001

1.91852823865052e+004,-7.84468307463058e+000,-2.51630323372313e-001

1.94530989482457e+004,-7.84468257788577e+000,-2.55142953941406e-001

1.97246540898671e+004,-7.84468206717498e+000,-2.58704619098034e-001

1.99999999999999e+004,-7.84468154210574e+000,-2.62316003342106e-001

2.02791895958005e+004,-7.84468100227408e+000,-2.65977800731914e-001

2.05622765331213e+004,-7.84468044726527e+000,-2.69690715011229e-001

2.08493152168224e+004,-7.84467987665229e+000,-2.73455459751136e-001

2.11403608112276e+004,-7.84467928999658e+000,-2.77272758481617e-001

2.14354692507258e+004,-7.84467868684688e+000,-2.81143344835010e-001

2.17346972505211e+004,-7.84467806673973e+000,-2.85067962682034e-001

2.20381023175322e+004,-7.84467742919812e+000,-2.89047366280872e-001

2.23457427614443e+004,-7.84467677373203e+000,-2.93082320416508e-001

2.26576777059159e+004,-7.84467609983731e+000,-2.97173600552357e-001

2.29739670999406e+004,-7.84467540699592e+000,-3.01321992975073e-001

2.32946717293690e+004,-7.84467469467506e+000,-3.05528294949254e-001

2.36198532285905e+004,-7.84467396232721e+000,-3.09793314867363e-001

2.39495740923785e+004,-7.84467320938911e+000,-3.14117872409403e-001

2.42838976879009e+004,-7.84467243528178e+000,-3.18502798696413e-001

2.46228882668982e+004,-7.84467163941018e+000,-3.22948936451342e-001

2.49666109780322e+004,-7.84467082116237e+000,-3.27457140161475e-001

2.53151318794055e+004,-7.84466997990899e+000,-3.32028276244721e-001

2.56685179512580e+004,-7.84466911500335e+000,-3.36663223211435e-001

2.60268371088386e+004,-7.84466822578028e+000,-3.41362871837870e-001

2.63901582154578e+004,-7.84466731155619e+000,-3.46128125333473e-001

2.67585510957221e+004,-7.84466637162794e+000,-3.50959899518398e-001

2.71320865489533e+004,-7.84466540527303e+000,-3.55859122995209e-001

2.75108363627948e+004,-7.84466441174821e+000,-3.60826737332401e-001

2.78948733270080e+004,-7.84466339028950e+000,-3.65863697241103e-001

2.82842712474618e+004,-7.84466234011165e+000,-3.70970970759763e-001

2.86791049603164e+004,-7.84466126040703e+000,-3.76149539441569e-001

2.90794503464061e+004,-7.84466015034529e+000,-3.81400398542745e-001

2.94853843458219e+004,-7.84465900907292e+000,-3.86724557211870e-001

2.98969849726987e+004,-7.84465783571231e+000,-3.92123038685927e-001

3.03143313302078e+004,-7.84465662936133e+000,-3.97596880485403e-001

3.07375036257601e+004,-7.84465538909208e+000,-4.03147134616940e-001

3.11665831864199e+004,-7.84465411395106e+000,-4.08774867770035e-001

3.16016524745350e+004,-7.84465280295751e+000,-4.14481161528558e-001

3.20427951035848e+004,-7.84465145510350e+000,-4.20267112571980e-001

3.24900958542493e+004,-7.84465006935228e+000,-4.26133832893154e-001

3.29436406907028e+004,-7.84464864463846e+000,-4.32082450005045e-001

3.34035167771346e+004,-7.84464717986625e+000,-4.38114107163679e-001

3.38698124945009e+004,-7.84464567390918e+000,-4.44229963583886e-001

3.43426174575100e+004,-7.84464412560932e+000,-4.50431194662118e-001

3.48220225318448e+004,-7.84464253377595e+000,-4.56718992205569e-001

3.53081198516260e+004,-7.84464089718478e+000,-4.63094564658646e-001

3.58010028371187e+004,-7.84463921457721e+000,-4.69559137336171e-001

3.63007662126863e+004,-7.84463748465936e+000,-4.76113952657557e-001

3.68075060249948e+004,-7.84463570610065e+000,-4.82760270388709e-001

3.73213196614721e+004,-7.84463387753342e+000,-4.89499367879740e-001

3.78423058690237e+004,-7.84463199755126e+000,-4.96332540315218e-001

3.83705647730104e+004,-7.84463006470841e+000,-5.03261100959492e-001

3.89061978964912e+004,-7.84462807751818e+000,-5.10286381412015e-001

3.94493081797342e+004,-7.84462603445230e+000,-5.17409731860663e-001

3.99999999999998e+004,-7.84462393393952e+000,-5.24632521342289e-001

4.05583791916010e+004,-7.84462177436417e+000,-5.31956138007781e-001

4.11245530662425e+004,-7.84461955406531e+000,-5.39381989385510e-001

4.16986304336447e+004,-7.84461727133515e+000,-5.46911502655178e-001

4.22807216224550e+004,-7.84461492441806e+000,-5.54546124919095e-001

4.28709385014515e+004,-7.84461251150886e+000,-5.62287323483006e-001

4.34693945010421e+004,-7.84461003075151e+000,-5.70136586137448e-001

4.40762046350642e+004,-7.84460748023796e+000,-5.78095421442161e-001

4.46914855228886e+004,-7.84460485800636e+000,-5.86165359018688e-001

4.53153554118317e+004,-7.84460216203967e+000,-5.94347949842329e-001

4.59479341998812e+004,-7.84459939026405e+000,-6.02644766541940e-001

4.65893434587380e+004,-7.84459654054755e+000,-6.11057403700010e-001

4.72397064571810e+004,-7.84459361069789e+000,-6.19587478162509e-001

4.78991481847569e+004,-7.84459059846124e+000,-6.28236629347489e-001

4.85677953758016e+004,-7.84458750152053e+000,-6.37006519559547e-001

4.92457765337964e+004,-7.84458431749321e+000,-6.45898834312129e-001

4.99332219560642e+004,-7.84458104392992e+000,-6.54915282648804e-001

5.06302637588109e+004,-7.84457767831213e+000,-6.64057597474649e-001

5.13370359025159e+004,-7.84457421805082e+000,-6.73327535885719e-001

5.20536742176771e+004,-7.84457066048367e+000,-6.82726879511549e-001

5.27803164309155e+004,-7.84456700287380e+000,-6.92257434853059e-001

5.35171021914442e+004,-7.84456324240696e+000,-7.01921033634382e-001

5.42641730979066e+004,-7.84455937619011e+000,-7.11719533150059e-001

5.50216727255895e+004,-7.84455540124829e+000,-7.21654816628178e-001

5.57897466540159e+004,-7.84455131452333e+000,-7.31728793585931e-001

5.65685424949235e+004,-7.84454711287062e+000,-7.41943400202257e-001

5.73582099206328e+004,-7.84454279305721e+000,-7.52300599686851e-001

5.81589006928121e+004,-7.84453835175898e+000,-7.62802382660140e-001

5.89707686916437e+004,-7.84453378555842e+000,-7.73450767533289e-001

5.97939699453972e+004,-7.84452909094173e+000,-7.84247800898672e-001

6.06286626604156e+004,-7.84452426429629e+000,-7.95195557921652e-001

6.14750072515201e+004,-7.84451930190764e+000,-8.06296142741709e-001

6.23331663728396e+004,-7.84451419995673e+000,-8.17551688875942e-001

6.32033049490698e+004,-7.84450895451719e+000,-8.28964359628116e-001

6.40855902071694e+004,-7.84450356155184e+000,-8.40536348507561e-001

6.49801917084985e+004,-7.84449801691011e+000,-8.52269879648074e-001

6.58872813814055e+004,-7.84449231632431e+000,-8.64167208238386e-001

6.68070335542691e+004,-7.84448645540669e+000,-8.76230620953651e-001

6.77396249890018e+004,-7.84448042964595e+000,-8.88462436396663e-001

6.86852349150199e+004,-7.84447423440369e+000,-9.00865005543705e-001

6.96440450636895e+004,-7.84446786491094e+000,-9.13440712195548e-001

7.06162397032520e+004,-7.84446131626441e+000,-9.26191973437292e-001

7.16020056742374e+004,-7.84445458342266e+000,-9.39121240103133e-001

7.26015324253724e+004,-7.84444766120229e+000,-9.52230997247517e-001

7.36150120499896e+004,-7.84444054427382e+000,-9.65523764623131e-001

7.46426393229441e+004,-7.84443322715777e+000,-9.79002097165458e-001

7.56846117380472e+004,-7.84442570422020e+000,-9.92668585484741e-001

7.67411295460207e+004,-7.84441796966842e+000,-1.00652585636471e+000

7.78123957929823e+004,-7.84441001754666e+000,-1.02057657326660e+000

7.88986163594682e+004,-7.84440184173128e+000,-1.03482343684269e+000

7.99999999999995e+004,-7.84439343592594e+000,-1.04926918545651e+000

8.11167583832018e+004,-7.84438479365702e+000,-1.06391659570815e+000

8.22491061324848e+004,-7.84437590826860e+000,-1.07876848296870e+000

8.33972608672892e+004,-7.84436677291683e+000,-1.09382770192400e+000

8.45614432449099e+004,-7.84435738056525e+000,-1.10909714712107e+000

8.57418770029029e+004,-7.84434772397895e+000,-1.12457975352772e+000

8.69387890020841e+004,-7.84433779571904e+000,-1.14027849709564e+000

8.81524092701283e+004,-7.84432758813702e+000,-1.15619639533397e+000

8.93829710457770e+004,-7.84431709336859e+000,-1.17233650789011e+000

9.06307108236633e+004,-7.84430630332794e+000,-1.18870193713759e+000

9.18958683997622e+004,-7.84429520970107e+000,-1.20529582877464e+000

9.31786869174758e+004,-7.84428380393955e+000,-1.22212137242910e+000

9.44794129143618e+004,-7.84427207725400e+000,-1.23918180227146e+000

9.57982963695136e+004,-7.84426002060694e+000,-1.25648039763968e+000

9.71355907516031e+004,-7.84424762470604e+000,-1.27402048366859e+000

9.84915530675926e+004,-7.84423487999696e+000,-1.29180543193010e+000

9.98664439121282e+004,-7.84422177665564e+000,-1.30983866108386e+000

1.01260527517622e+005,-7.84420830458084e+000,-1.32812363753479e+000

1.02674071805032e+005,-7.84419445338642e+000,-1.34666387609949e+000

1.04107348435354e+005,-7.84418021239297e+000,-1.36546294068494e+000

1.05560632861831e+005,-7.84416557061983e+000,-1.38452444497313e+000

1.07034204382888e+005,-7.84415051677623e+000,-1.40385205311899e+000

1.08528346195813e+005,-7.84413503925276e+000,-1.42344948045412e+000

1.10043345451179e+005,-7.84411912611219e+000,-1.44332049420421e+000

1.11579493308032e+005,-7.84410276508030e+000,-1.46346891421330e+000

1.13137084989847e+005,-7.84408594353630e+000,-1.48389861368034e+000

1.14716419841265e+005,-7.84406864850268e+000,-1.50461351990664e+000

1.16317801385624e+005,-7.84405086663568e+000,-1.52561761505004e+000

1.17941537383287e+005,-7.84403258421440e+000,-1.54691493689458e+000

1.19587939890794e+005,-7.84401378713036e+000,-1.56850957962737e+000

1.21257325320831e+005,-7.84399446087635e+000,-1.59040569462840e+000

1.22950014503040e+005,-7.84397459053529e+000,-1.61260749127000e+000

1.24666332745679e+005,-7.84395416076825e+000,-1.63511923772946e+000

1.26406609898139e+005,-7.84393315580295e+000,-1.65794526181059e+000

1.28171180414339e+005,-7.84391155942099e+000,-1.68108995177929e+000

1.29960383416997e+005,-7.84388935494536e+000,-1.70455775720911e+000

1.31774562762811e+005,-7.84386652522757e+000,-1.72835318983914e+000

1.33614067108538e+005,-7.84384305263387e+000,-1.75248082444528e+000

1.35479249978003e+005,-7.84381891903174e+000,-1.77694529972172e+000

1.37370469830040e+005,-7.84379410577559e+000,-1.80175131917632e+000

1.39288090127379e+005,-7.84376859369216e+000,-1.82690365203780e+000

1.41232479406504e+005,-7.84374236306535e+000,-1.85240713417724e+000

1.43204011348474e+005,-7.84371539362125e+000,-1.87826666903906e+000

1.45203064850745e+005,-7.84368766451146e+000,-1.90448722859070e+000

1.47230024099979e+005,-7.84365915429749e+000,-1.93107385427940e+000

1.49285278645888e+005,-7.84362984093344e+000,-1.95803165800785e+000

1.51369223476094e+005,-7.84359970174877e+000,-1.98536582312076e+000

1.53482259092041e+005,-7.84356871343068e+000,-2.01308160540508e+000

1.55624791585964e+005,-7.84353685200555e+000,-2.04118433410696e+000

1.57797232718936e+005,-7.84350409282004e+000,-2.06967941296096e+000

1.59999999999999e+005,-7.84347041052202e+000,-2.09857232123290e+000

1.62233516766403e+005,-7.84343577904009e+000,-2.12786861478154e+000

1.64498212264969e+005,-7.84340017156348e+000,-2.15757392713026e+000

1.66794521734578e+005,-7.84336356052063e+000,-2.18769397055833e+000

1.69122886489819e+005,-7.84332591755755e+000,-2.21823453720420e+000

1.71483754005805e+005,-7.84328721351523e+000,-2.24920150018795e+000

1.73877578004168e+005,-7.84324741840688e+000,-2.28060081474547e+000

1.76304818540256e+005,-7.84320650139399e+000,-2.31243851938289e+000

1.78765942091554e+005,-7.84316443076210e+000,-2.34472073704455e+000

1.81261421647326e+005,-7.84312117389535e+000,-2.37745367629985e+000

1.83791736799524e+005,-7.84307669725107e+000,-2.41064363254463e+000

1.86357373834951e+005,-7.84303096633285e+000,-2.44429698922179e+000

1.88958825828723e+005,-7.84298394566332e+000,-2.47842021905795e+000

1.91596592739027e+005,-7.84293559875583e+000,-2.51301988531914e+000

1.94271181503206e+005,-7.84288588808549e+000,-2.54810264308311e+000

1.96983106135185e+005,-7.84283477505956e+000,-2.58367524052998e+000

1.99732887824256e+005,-7.84278221998629e+000,-2.61974452025268e+000

2.02521055035243e+005,-7.84272818204360e+000,-2.65631742058524e+000

2.05348143610063e+005,-7.84267261924643e+000,-2.69340097694980e+000

2.08214696870707e+005,-7.84261548841326e+000,-2.73100232322353e+000

2.11121265723661e+005,-7.84255674513151e+000,-2.76912869312631e+000

2.14068408765776e+005,-7.84249634372216e+000,-2.80778742162566e+000

2.17056692391625e+005,-7.84243423720323e+000,-2.84698594636428e+000

2.20086690902357e+005,-7.84237037725201e+000,-2.88673180910784e+000

2.23158986616063e+005,-7.84230471416634e+000,-2.92703265721371e+000

2.26274169979693e+005,-7.84223719682486e+000,-2.96789624511942e+000

2.29432839682530e+005,-7.84216777264589e+000,-3.00933043585539e+000

2.32635602771247e+005,-7.84209638754509e+000,-3.05134320257759e+000

2.35883074766574e+005,-7.84202298589210e+000,-3.09394263012344e+000

2.39175879781588e+005,-7.84194751046566e+000,-3.13713691658975e+000

2.42514650641661e+005,-7.84186990240742e+000,-3.18093437493536e+000

2.45900029006080e+005,-7.84179010117467e+000,-3.22534343460447e+000

2.49332665491357e+005,-7.84170804449113e+000,-3.27037264317699e+000

2.52813219796278e+005,-7.84162366829694e+000,-3.31603066804040e+000

2.56342360828676e+005,-7.84153690669663e+000,-3.36232629808760e+000

2.59920766833993e+005,-7.84144769190572e+000,-3.40926844544040e+000

2.63549125525621e+005,-7.84135595419597e+000,-3.45686614719650e+000

2.67228134217075e+005,-7.84126162183861e+000,-3.50512856720433e+000

2.70958499956006e+005,-7.84116462104604e+000,-3.55406499786382e+000

2.74740939660078e+005,-7.84106487591209e+000,-3.60368486195277e+000

2.78576180254757e+005,-7.84096230834998e+000,-3.65399771448216e+000

2.82464958813007e+005,-7.84085683802868e+000,-3.70501324457901e+000

2.86408022696948e+005,-7.84074838230762e+000,-3.75674127739557e+000

2.90406129701488e+005,-7.84063685616906e+000,-3.80919177604999e+000

2.94460048199957e+005,-7.84052217214856e+000,-3.86237484359496e+000

2.98570557291775e+005,-7.84040424026363e+000,-3.91630072501543e+000

3.02738446952187e+005,-7.84028296793981e+000,-3.97097980925881e+000

3.06964518184081e+005,-7.84015825993493e+000,-4.02642263129408e+000

3.11249583171928e+005,-7.84003001826094e+000,-4.08263987420313e+000

3.15594465437872e+005,-7.83989814210338e+000,-4.13964237130507e+000

3.19999999999997e+005,-7.83976252773859e+000,-4.19744110831174e+000

3.24467033532806e+005,-7.83962306844819e+000,-4.25604722551796e+000

3.28996424529938e+005,-7.83947965443144e+000,-4.31547202002490e+000

3.33589043469155e+005,-7.83933217271450e+000,-4.37572694799799e+000

3.38245772979638e+005,-7.83918050705724e+000,-4.43682362696181e+000

3.42967508011610e+005,-7.83902453785730e+000,-4.49877383812908e+000

3.47755156008335e+005,-7.83886414205121e+000,-4.56158952876687e+000

3.52609637080511e+005,-7.83869919301255e+000,-4.62528281460154e+000

3.57531884183106e+005,-7.83852956044702e+000,-4.68986598226137e+000

3.62522843294651e+005,-7.83835511028474e+000,-4.75535149175681e+000

3.67583473599047e+005,-7.83817570456877e+000,-4.82175197900307e+000

3.72714747669902e+005,-7.83799120134070e+000,-4.88908025838326e+000

3.77917651657445e+005,-7.83780145452293e+000,-4.95734932535016e+000

3.83193185478053e+005,-7.83760631379706e+000,-5.02657235907473e+000

3.88542363006410e+005,-7.83740562447902e+000,-5.09676272513541e+000

3.93966212270369e+005,-7.83719922739036e+000,-5.16793397825283e+000

3.99465775648511e+005,-7.83698695872568e+000,-5.24009986507016e+000

4.05042110070485e+005,-7.83676864991633e+000,-5.31327432697924e+000

4.10696287220124e+005,-7.83654412748992e+000,-5.38747150299452e+000

4.16429393741414e+005,-7.83631321292572e+000,-5.46270573267693e+000

4.22242531447321e+005,-7.83607572250587e+000,-5.53899155910513e+000

4.28136817531551e+005,-7.83583146716219e+000,-5.61634373189981e+000

4.34113384783250e+005,-7.83558025231843e+000,-5.69477721029981e+000

4.40173381804713e+005,-7.83532187772813e+000,-5.77430716629034e+000

4.46317973232124e+005,-7.83505613730744e+000,-5.85494898778782e+000

4.52548339959385e+005,-7.83478281896337e+000,-5.93671828187933e+000

4.58865679365059e+005,-7.83450170441689e+000,-6.01963087812058e+000

4.65271205542494e+005,-7.83421256902091e+000,-6.10370283189213e+000

4.71766149533147e+005,-7.83391518157318e+000,-6.18895042781613e+000

4.78351759563174e+005,-7.83360930412352e+000,-6.27539018323524e+000

4.85029301283321e+005,-7.83329469177590e+000,-6.36303885175467e+000

4.91800058012158e+005,-7.83297109248456e+000,-6.45191342685015e+000

4.98665330982714e+005,-7.83263824684442e+000,-6.54203114554179e+000

5.05626439592555e+005,-7.83229588787577e+000,-6.63340949213668e+000

5.12684721657352e+005,-7.83194374080237e+000,-6.72606620204345e+000

5.19841533667984e+005,-7.83158152282405e+000,-6.82001926565674e+000

5.27098251051240e+005,-7.83120894288224e+000,-6.91528693231773e+000

5.34456268434150e+005,-7.83082570141952e+000,-7.01188771435058e+000

5.41916999912011e+005,-7.83043149013221e+000,-7.10984039117627e+000

