Freq.,VOut,OutRef

1.00000000000000e+004,-1.64764765048953e+001,-1.12718290575221e-001

1.01395947979003e+004,-1.64764766340368e+001,-1.14291776786644e-001

1.02811382665607e+004,-1.64764767668089e+001,-1.15887227941038e-001

1.04246576084112e+004,-1.64764769033135e+001,-1.17504950654445e-001

1.05701804056138e+004,-1.64764770436556e+001,-1.19145255820186e-001

1.07177346253629e+004,-1.64764771879432e+001,-1.20808458672259e-001

1.08673486252606e+004,-1.64764773362871e+001,-1.22494878846947e-001

1.10190511587661e+004,-1.64764774888014e+001,-1.24204840439039e-001

1.11728713807222e+004,-1.64764776456032e+001,-1.25938672071187e-001

1.13288388529580e+004,-1.64764778068132e+001,-1.27696706948300e-001

1.14869835499703e+004,-1.64764779725552e+001,-1.29479282931636e-001

1.16473358646846e+004,-1.64764781429565e+001,-1.31286742594480e-001

1.18099266142953e+004,-1.64764783181485e+001,-1.33119433292791e-001

1.19747870461893e+004,-1.64764784982656e+001,-1.34977707233306e-001

1.21419488439505e+004,-1.64764786834460e+001,-1.36861921538022e-001

1.23114441334492e+004,-1.64764788738324e+001,-1.38772438312756e-001

1.24833054890161e+004,-1.64764790695711e+001,-1.40709624718258e-001

1.26575659397028e+004,-1.64764792708123e+001,-1.42673853041877e-001

1.28342589756290e+004,-1.64764794777110e+001,-1.44665500764838e-001

1.30134185544193e+004,-1.64764796904260e+001,-1.46684950640360e-001

1.31950791077289e+004,-1.64764799091210e+001,-1.48732590761548e-001

1.33792755478611e+004,-1.64764801339640e+001,-1.50808814641185e-001

1.35660432744767e+004,-1.64764803651278e+001,-1.52914021283443e-001

1.37554181813974e+004,-1.64764806027902e+001,-1.55048615261415e-001

1.39474366635040e+004,-1.64764808471337e+001,-1.57213006798730e-001

1.41421356237309e+004,-1.64764810983462e+001,-1.59407611840258e-001

1.43395524801583e+004,-1.64764813566208e+001,-1.61632852140005e-001

1.45397251732031e+004,-1.64764816221561e+001,-1.63889155337540e-001

1.47426921729110e+004,-1.64764818951560e+001,-1.66176955042690e-001

1.49484924863494e+004,-1.64764821758304e+001,-1.68496690916979e-001

1.51571656651040e+004,-1.64764824643951e+001,-1.70848808759016e-001

1.53687518128801e+004,-1.64764827610719e+001,-1.73233760589709e-001

1.55832915932100e+004,-1.64764830660887e+001,-1.75652004739747e-001

1.58008262372675e+004,-1.64764833796800e+001,-1.78104005936564e-001

1.60213975517924e+004,-1.64764837020869e+001,-1.80590235394275e-001

1.62450479271247e+004,-1.64764840335572e+001,-1.83111170905368e-001

1.64718203453514e+004,-1.64764843743455e+001,-1.85667296930769e-001

1.67017583885674e+004,-1.64764847247139e+001,-1.88259104692403e-001

1.69349062472505e+004,-1.64764850849314e+001,-1.90887092271311e-001

1.71713087287550e+004,-1.64764854552752e+001,-1.93551764696591e-001

1.74110112659224e+004,-1.64764858360299e+001,-1.96253634049518e-001

1.76540599258131e+004,-1.64764862274878e+001,-1.98993219559124e-001

1.79005014185594e+004,-1.64764866299502e+001,-2.01771047698630e-001

1.81503831063432e+004,-1.64764870437261e+001,-2.04587652293738e-001

1.84037530124975e+004,-1.64764874691335e+001,-2.07443574618041e-001

1.86606598307361e+004,-1.64764879064994e+001,-2.10339363500443e-001

1.89211529345119e+004,-1.64764883561600e+001,-2.13275575431160e-001

1.91852823865052e+004,-1.64764888184608e+001,-2.16252774666867e-001

1.94530989482457e+004,-1.64764892937572e+001,-2.19271533339264e-001

1.97246540898671e+004,-1.64764897824143e+001,-2.22332431566554e-001

1.99999999999999e+004,-1.64764902848076e+001,-2.25436057563518e-001

2.02791895958005e+004,-1.64764908013233e+001,-2.28583007754973e-001

2.05622765331213e+004,-1.64764913323583e+001,-2.31773886888505e-001

2.08493152168224e+004,-1.64764918783208e+001,-2.35009308154147e-001

2.11403608112276e+004,-1.64764924396300e+001,-2.38289893299980e-001

2.14354692507258e+004,-1.64764930167177e+001,-2.41616272750127e-001

2.17346972505211e+004,-1.64764936100270e+001,-2.44989085729948e-001

2.20381023175322e+004,-1.64764942200139e+001,-2.48408980383938e-001

2.23457427614443e+004,-1.64764948471473e+001,-2.51876613903654e-001

2.26576777059159e+004,-1.64764954919090e+001,-2.55392652653264e-001

2.29739670999406e+004,-1.64764961547943e+001,-2.58957772296989e-001

2.32946717293690e+004,-1.64764968363126e+001,-2.62572657928052e-001

2.36198532285905e+004,-1.64764975369878e+001,-2.66238004201371e-001

2.39495740923785e+004,-1.64764982573579e+001,-2.69954515467744e-001

2.42838976879009e+004,-1.64764989979767e+001,-2.73722905906377e-001

2.46228882668982e+004,-1.64764997594131e+001,-2.77543899664769e-001

2.49666109780322e+004,-1.64765005422522e+001,-2.81418230996495e-001

2.53151318794055e+004,-1.64765013470954e+001,-2.85346644401927e-001

2.56685179512580e+004,-1.64765021745613e+001,-2.89329894771556e-001

2.60268371088386e+004,-1.64765030252853e+001,-2.93368747531534e-001

2.63901582154578e+004,-1.64765038999212e+001,-2.97463978789628e-001

2.67585510957221e+004,-1.64765047991410e+001,-3.01616375484439e-001

2.71320865489533e+004,-1.64765057236353e+001,-3.05826735536946e-001

2.75108363627948e+004,-1.64765066741146e+001,-3.10095868002262e-001

2.78948733270080e+004,-1.64765076513090e+001,-3.14424593227730e-001

2.82842712474618e+004,-1.64765086559690e+001,-3.18813743008226e-001

2.86791049603164e+004,-1.64765096888666e+001,-3.23264160744294e-001

2.90794503464061e+004,-1.64765107507951e+001,-3.27776701608735e-001

2.94853843458219e+004,-1.64765118425703e+001,-3.32352232706500e-001

2.98969849726987e+004,-1.64765129650309e+001,-3.36991633242924e-001

3.03143313302078e+004,-1.64765141190390e+001,-3.41695794691389e-001

3.07375036257601e+004,-1.64765153054811e+001,-3.46465620965397e-001

3.11665831864199e+004,-1.64765165252683e+001,-3.51302028593911e-001

3.16016524745350e+004,-1.64765177793376e+001,-3.56205946891404e-001

3.20427951035848e+004,-1.64765190686523e+001,-3.61178318142658e-001

3.24900958542493e+004,-1.64765203942024e+001,-3.66220097779199e-001

3.29436406907028e+004,-1.64765217570060e+001,-3.71332254565221e-001

3.34035167771346e+004,-1.64765231581099e+001,-3.76515770780915e-001

3.38698124945009e+004,-1.64765245985900e+001,-3.81771642413657e-001

3.43426174575100e+004,-1.64765260795523e+001,-3.87100879348412e-001

3.48220225318448e+004,-1.64765276021343e+001,-3.92504505557784e-001

3.53081198516260e+004,-1.64765291675050e+001,-3.97983559305417e-001

3.58010028371187e+004,-1.64765307768666e+001,-4.03539093337967e-001

3.63007662126863e+004,-1.64765324314546e+001,-4.09172175091752e-001

3.68075060249948e+004,-1.64765341325397e+001,-4.14883886895324e-001

3.73213196614721e+004,-1.64765358814279e+001,-4.20675326177930e-001

3.78423058690237e+004,-1.64765376794617e+001,-4.26547605680496e-001

3.83705647730104e+004,-1.64765395280217e+001,-4.32501853666784e-001

3.89061978964912e+004,-1.64765414285271e+001,-4.38539214140856e-001

3.94493081797342e+004,-1.64765433824367e+001,-4.44660847068550e-001

3.99999999999998e+004,-1.64765453912505e+001,-4.50867928596284e-001

4.05583791916010e+004,-1.64765474565105e+001,-4.57161651278314e-001

4.11245530662425e+004,-1.64765495798020e+001,-4.63543224305760e-001

4.16986304336447e+004,-1.64765517627546e+001,-4.70013873737422e-001

4.22807216224550e+004,-1.64765540070439e+001,-4.76574842735568e-001

4.28709385014515e+004,-1.64765563143922e+001,-4.83227391802466e-001

4.34693945010421e+004,-1.64765586865703e+001,-4.89972799025277e-001

4.40762046350642e+004,-1.64765611253986e+001,-4.96812360316567e-001

4.46914855228886e+004,-1.64765636327486e+001,-5.03747389666692e-001

4.53153554118317e+004,-1.64765662105442e+001,-5.10779219392244e-001

4.59479341998812e+004,-1.64765688607634e+001,-5.17909200394016e-001

4.65893434587380e+004,-1.64765715854395e+001,-5.25138702413455e-001

4.72397064571810e+004,-1.64765743866628e+001,-5.32469114296725e-001

4.78991481847569e+004,-1.64765772665824e+001,-5.39901844259156e-001

4.85677953758016e+004,-1.64765802274074e+001,-5.47438320156695e-001

4.92457765337964e+004,-1.64765832714091e+001,-5.55079989757319e-001

4.99332219560642e+004,-1.64765864009221e+001,-5.62828321019753e-001

5.06302637588109e+004,-1.64765896183468e+001,-5.70684802373279e-001

5.13370359025159e+004,-1.64765929261506e+001,-5.78650943004311e-001

5.20536742176771e+004,-1.64765963268700e+001,-5.86728273143354e-001

5.27803164309155e+004,-1.64765998231130e+001,-5.94918344358461e-001

5.35171021914442e+004,-1.64766034175603e+001,-6.03222729852424e-001

5.42641730979066e+004,-1.64766071129675e+001,-6.11643024764336e-001

5.50216727255895e+004,-1.64766109121679e+001,-6.20180846472733e-001

5.57897466540159e+004,-1.64766148180737e+001,-6.28837834907263e-001

5.65685424949235e+004,-1.64766188336791e+001,-6.37615652859714e-001

5.73582099206328e+004,-1.64766229620617e+001,-6.46515986305702e-001

5.81589006928121e+004,-1.64766272063854e+001,-6.55540544723068e-001

5.89707686916437e+004,-1.64766315699029e+001,-6.64691061420139e-001

5.97939699453972e+004,-1.64766360559577e+001,-6.73969293868409e-001

6.06286626604156e+004,-1.64766406679869e+001,-6.83377024036626e-001

6.14750072515201e+004,-1.64766454095238e+001,-6.92916058731869e-001

6.23331663728396e+004,-1.64766502842007e+001,-7.02588229944611e-001

6.32033049490698e+004,-1.64766552957514e+001,-7.12395395198303e-001

6.40855902071694e+004,-1.64766604480141e+001,-7.22339437905629e-001

6.49801917084985e+004,-1.64766657449345e+001,-7.32422267726199e-001

6.58872813814055e+004,-1.64766711905684e+001,-7.42645820931791e-001

6.68070335542691e+004,-1.64766767890853e+001,-7.53012060776588e-001

6.77396249890018e+004,-1.64766825447712e+001,-7.63522977870865e-001

6.86852349150199e+004,-1.64766884620315e+001,-7.74180590562247e-001

6.96440450636895e+004,-1.64766945453953e+001,-7.84986945318219e-001

7.06162397032520e+004,-1.64767007995179e+001,-7.95944117119227e-001

7.16020056742374e+004,-1.64767072291848e+001,-8.07054209852061e-001

7.26015324253724e+004,-1.64767138393151e+001,-8.18319356712527e-001

7.36150120499896e+004,-1.64767206349654e+001,-8.29741720611321e-001

7.46426393229441e+004,-1.64767276213334e+001,-8.41323494585928e-001

7.56846117380472e+004,-1.64767348037617e+001,-8.53066902219625e-001

7.67411295460207e+004,-1.64767421877425e+001,-8.64974198063095e-001

7.78123957929823e+004,-1.64767497789209e+001,-8.77047668064898e-001

7.88986163594682e+004,-1.64767575830996e+001,-8.89289630007450e-001

7.99999999999995e+004,-1.64767656062433e+001,-9.01702433946012e-001

8.11167583832018e+004,-1.64767738544827e+001,-9.14288462657741e-001

8.22491061324848e+004,-1.64767823341199e+001,-9.27050132093443e-001

8.33972608672892e+004,-1.64767910516323e+001,-9.39989891838737e-001

8.45614432449099e+004,-1.64768000136780e+001,-9.53110225577747e-001

8.57418770029029e+004,-1.64768092271007e+001,-9.66413651566614e-001

8.69387890020841e+004,-1.64768186989344e+001,-9.79902723110955e-001

8.81524092701283e+004,-1.64768284364093e+001,-9.93580029051699e-001

8.93829710457770e+004,-1.64768384469569e+001,-1.00744819425605e+000

9.06307108236633e+004,-1.64768487382153e+001,-1.02150988011573e+000

9.18958683997622e+004,-1.64768593180352e+001,-1.03576778505244e+000

9.31786869174758e+004,-1.64768701944860e+001,-1.05022464502826e+000

9.44794129143618e+004,-1.64768813758611e+001,-1.06488323406684e+000

9.57982963695136e+004,-1.64768928706847e+001,-1.07974636477680e+000

9.71355907516031e+004,-1.64769046877178e+001,-1.09481688888602e+000

9.84915530675926e+004,-1.64769168359650e+001,-1.11009769778065e+000

9.98664439121282e+004,-1.64769293246806e+001,-1.12559172305448e+000

1.01260527517622e+005,-1.64769421633762e+001,-1.14130193706132e+000

1.02674071805032e+005,-1.64769553618275e+001,-1.15723135347825e+000

1.04107348435354e+005,-1.64769689300808e+001,-1.17338302787686e+000

1.05560632861831e+005,-1.64769828784619e+001,-1.18976005829776e+000

1.07034204382888e+005,-1.64769972175820e+001,-1.20636558583844e+000

1.08528346195813e+005,-1.64770119583472e+001,-1.22320279524527e+000

1.10043345451179e+005,-1.64770271119651e+001,-1.24027491551440e+000

1.11579493308032e+005,-1.64770426899538e+001,-1.25758522050238e+000

1.13137084989847e+005,-1.64770587041505e+001,-1.27513702954078e+000

1.14716419841265e+005,-1.64770751667197e+001,-1.29293370806388e+000

1.16317801385624e+005,-1.64770920901622e+001,-1.31097866824218e+000

1.17941537383287e+005,-1.64771094873245e+001,-1.32927536962447e+000

1.19587939890794e+005,-1.64771273714081e+001,-1.34782731978845e+000

1.21257325320831e+005,-1.64771457559789e+001,-1.36663807500072e+000

1.22950014503040e+005,-1.64771646549774e+001,-1.38571124088496e+000

1.24666332745679e+005,-1.64771840827286e+001,-1.40505047309937e+000

1.26406609898139e+005,-1.64772040539527e+001,-1.42465947802277e+000

1.28171180414339e+005,-1.64772245837752e+001,-1.44454201344959e+000

1.29960383416997e+005,-1.64772456877385e+001,-1.46470188929507e+000

1.31774562762811e+005,-1.64772673818128e+001,-1.48514296830762e+000

1.33614067108538e+005,-1.64772896824078e+001,-1.50586916679366e+000

1.35479249978003e+005,-1.64773126063840e+001,-1.52688445534965e+000

1.37370469830040e+005,-1.64773361710657e+001,-1.54819285960411e+000

1.39288090127379e+005,-1.64773603942526e+001,-1.56979846097010e+000

1.41232479406504e+005,-1.64773852942330e+001,-1.59170539740762e+000

1.43204011348474e+005,-1.64774108897968e+001,-1.61391786419403e+000

1.45203064850745e+005,-1.64774372002488e+001,-1.63644011470788e+000

1.47230024099979e+005,-1.64774642454225e+001,-1.65927646122072e+000

1.49285278645888e+005,-1.64774920456942e+001,-1.68243127569804e+000

1.51369223476094e+005,-1.64775206219974e+001,-1.70590899061489e+000

1.53482259092041e+005,-1.64775499958378e+001,-1.72971409977664e+000

1.55624791585964e+005,-1.64775801893081e+001,-1.75385115915612e+000

1.57797232718936e+005,-1.64776112251036e+001,-1.77832478773604e+000

1.59999999999999e+005,-1.64776431265388e+001,-1.80313966836619e+000

1.62233516766403e+005,-1.64776759175627e+001,-1.82830054863008e+000

1.64498212264969e+005,-1.64777096227761e+001,-1.85381224172385e+000

1.66794521734578e+005,-1.64777442674490e+001,-1.87967962734414e+000

1.69122886489819e+005,-1.64777798775375e+001,-1.90590765258977e+000

1.71483754005805e+005,-1.64778164797021e+001,-1.93250133287460e+000

1.73877578004168e+005,-1.64778541013263e+001,-1.95946575285004e+000

1.76304818540256e+005,-1.64778927705350e+001,-1.98680606734224e+000

1.78765942091554e+005,-1.64779325162144e+001,-2.01452750229825e+000

1.81261421647326e+005,-1.64779733680312e+001,-2.04263535574695e+000

1.83791736799524e+005,-1.64780153564531e+001,-2.07113499877025e+000

1.86357373834951e+005,-1.64780585127695e+001,-2.10003187648705e+000

1.88958825828723e+005,-1.64781028691129e+001,-2.12933150904978e+000

1.91596592739027e+005,-1.64781484584800e+001,-2.15903949265399e+000

1.94271181503206e+005,-1.64781953147547e+001,-2.18916150055849e+000

1.96983106135185e+005,-1.64782434727302e+001,-2.21970328412199e+000

1.99732887824256e+005,-1.64782929681324e+001,-2.25067067384867e+000

2.02521055035243e+005,-1.64783438376438e+001,-2.28206958044910e+000

2.05348143610063e+005,-1.64783961189277e+001,-2.31390599591436e+000

2.08214696870707e+005,-1.64784498506530e+001,-2.34618599460234e+000

2.11121265723661e+005,-1.64785050725199e+001,-2.37891573433878e+000

2.14068408765776e+005,-1.64785618252853e+001,-2.41210145753057e+000

2.17056692391625e+005,-1.64786201507900e+001,-2.44574949229444e+000

2.20086690902357e+005,-1.64786800919853e+001,-2.47986625359733e+000

2.23158986616063e+005,-1.64787416929612e+001,-2.51445824441323e+000

2.26274169979693e+005,-1.64788049989741e+001,-2.54953205689186e+000

2.29432839682530e+005,-1.64788700564766e+001,-2.58509437354344e+000

2.32635602771247e+005,-1.64789369131461e+001,-2.62115196843712e+000

2.35883074766574e+005,-1.64790056179155e+001,-2.65771170841360e+000

2.39175879781588e+005,-1.64790762210040e+001,-2.69478055431306e+000

2.42514650641661e+005,-1.64791487739484e+001,-2.73236556221833e+000

2.45900029006080e+005,-1.64792233296352e+001,-2.77047388471165e+000

2.49332665491357e+005,-1.64792999423333e+001,-2.80911277214774e+000

2.52813219796278e+005,-1.64793786677272e+001,-2.84828957394289e+000

2.56342360828676e+005,-1.64794595629517e+001,-2.88801173987689e+000

2.59920766833993e+005,-1.64795426866259e+001,-2.92828682141355e+000

2.63549125525621e+005,-1.64796280988889e+001,-2.96912247303498e+000

2.67228134217075e+005,-1.64797158614359e+001,-3.01052645359347e+000

2.70958499956006e+005,-1.64798060375551e+001,-3.05250662767689e+000

2.74740939660078e+005,-1.64798986921646e+001,-3.09507096699394e+000

2.78576180254757e+005,-1.64799938918515e+001,-3.13822755177266e+000

2.82464958813007e+005,-1.64800917049097e+001,-3.18198457217771e+000

2.86408022696948e+005,-1.64801922013803e+001,-3.22635032974258e+000

2.90406129701488e+005,-1.64802954530915e+001,-3.27133323882081e+000

2.94460048199957e+005,-1.64804015336996e+001,-3.31694182805277e+000

2.98570557291775e+005,-1.64805105187307e+001,-3.36318474185061e+000

3.02738446952187e+005,-1.64806224856234e+001,-3.41007074190107e+000

3.06964518184081e+005,-1.64807375137713e+001,-3.45760870868450e+000

3.11249583171928e+005,-1.64808556845676e+001,-3.50580764301374e+000

3.15594465437872e+005,-1.64809770814492e+001,-3.55467666759053e+000

3.19999999999997e+005,-1.64811017899420e+001,-3.60422502857977e+000

3.24467033532806e+005,-1.64812298977072e+001,-3.65446209720234e+000

3.28996424529938e+005,-1.64813614945875e+001,-3.70539737134899e+000

3.33589043469155e+005,-1.64814966726552e+001,-3.75704047720973e+000

3.38245772979638e+005,-1.64816355262599e+001,-3.80940117092572e+000

3.42967508011610e+005,-1.64817781520774e+001,-3.86248934025969e+000

3.47755156008335e+005,-1.64819246491595e+001,-3.91631500628568e+000

3.52609637080511e+005,-1.64820751189841e+001,-3.97088832509967e+000

3.57531884183106e+005,-1.64822296655061e+001,-4.02621958955096e+000

3.62522843294651e+005,-1.64823883952095e+001,-4.08231923099372e+000

3.67583473599047e+005,-1.64825514171591e+001,-4.13919782106019e+000

3.72714747669902e+005,-1.64827188430543e+001,-4.19686607345456e+000

3.77917651657445e+005,-1.64828907872822e+001,-4.25533484577033e+000

3.83193185478053e+005,-1.64830673669725e+001,-4.31461514132762e+000

3.88542363006410e+005,-1.64832487020525e+001,-4.37471811103453e+000

3.93966212270369e+005,-1.64834349153027e+001,-4.43565505527210e+000

3.99465775648511e+005,-1.64836261324134e+001,-4.49743742580024e+000

4.05042110070485e+005,-1.64838224820418e+001,-4.56007682769032e+000

4.10696287220124e+005,-1.64840240958698e+001,-4.62358502127934e+000

4.16429393741414e+005,-1.64842311086621e+001,-4.68797392415151e+000

4.22242531447321e+005,-1.64844436583259e+001,-4.75325561314307e+000

4.28136817531551e+005,-1.64846618859701e+001,-4.81944232637310e+000

4.34113384783250e+005,-1.64848859359659e+001,-4.88654646530238e+000

4.40173381804713e+005,-1.64851159560074e+001,-4.95458059681666e+000

4.46317973232124e+005,-1.64853520971741e+001,-5.02355745533906e+000

4.52548339959385e+005,-1.64855945139925e+001,-5.09348994497015e+000

4.58865679365059e+005,-1.64858433644993e+001,-5.16439114165616e+000

4.65271205542494e+005,-1.64860988103050e+001,-5.23627429538819e+000

4.71766149533147e+005,-1.64863610166583e+001,-5.30915283242874e+000

4.78351759563174e+005,-1.64866301525112e+001,-5.38304035757190e+000

4.85029301283321e+005,-1.64869063905841e+001,-5.45795065643352e+000

4.91800058012158e+005,-1.64871899074331e+001,-5.53389769777368e+000

4.98665330982714e+005,-1.64874808835162e+001,-5.61089563585369e+000

5.05626439592555e+005,-1.64877795032620e+001,-5.68895881282436e+000

5.12684721657352e+005,-1.64880859551378e+001,-5.76810176115273e+000

5.19841533667984e+005,-1.64884004317194e+001,-5.84833920608102e+000

5.27098251051240e+005,-1.64887231297614e+001,-5.92968606812525e+000

5.34456268434150e+005,-1.64890542502683e+001,-6.01215746560896e+000

5.41916999912011e+005,-1.64893939985671e+001,-6.09576871723737e+000

