Freq.,VOut,OutRef

1.00000000000000e+004,-3.66082157529268e+000,-1.76850463933423e-002

1.01395947979003e+004,-3.66082164949595e+000,-1.79319172503391e-002

1.02811382665607e+004,-3.66082172578600e+000,-1.81822341551788e-002

1.04246576084112e+004,-3.66082180422030e+000,-1.84360452147034e-002

1.05701804056138e+004,-3.66082188485959e+000,-1.86933991965829e-002

1.07177346253629e+004,-3.66082196776564e+000,-1.89543455532435e-002

1.08673486252606e+004,-3.66082205300208e+000,-1.92189344265973e-002

1.10190511587661e+004,-3.66082214063491e+000,-1.94872166539272e-002

1.11728713807222e+004,-3.66082223073136e+000,-1.97592437864987e-002

1.13288388529580e+004,-3.66082232336039e+000,-2.00350680955081e-002

1.14869835499703e+004,-3.66082241859312e+000,-2.03147425803780e-002

1.16473358646846e+004,-3.66082251650271e+000,-2.05983209796911e-002

1.18099266142953e+004,-3.66082261716494e+000,-2.08858577783651e-002

1.19747870461893e+004,-3.66082272065710e+000,-2.11774082253081e-002

1.21419488439505e+004,-3.66082282705802e+000,-2.14730283439298e-002

1.23114441334492e+004,-3.66082293645009e+000,-2.17727749320224e-002

1.24833054890161e+004,-3.66082304891745e+000,-2.20767055820682e-002

1.26575659397028e+004,-3.66082316454583e+000,-2.23848786958371e-002

1.28342589756290e+004,-3.66082328342483e+000,-2.26973534804551e-002

1.30134185544193e+004,-3.66082340564537e+000,-2.30141899763223e-002

1.31950791077289e+004,-3.66082353130168e+000,-2.33354490568456e-002

1.33792755478611e+004,-3.66082366049009e+000,-2.36611924488942e-002

1.35660432744767e+004,-3.66082379330987e+000,-2.39914827381744e-002

1.37554181813974e+004,-3.66082392986324e+000,-2.43263833827672e-002

1.39474366635040e+004,-3.66082407025472e+000,-2.46659587297594e-002

1.41421356237309e+004,-3.66082421459310e+000,-2.50102740147361e-002

1.43395524801583e+004,-3.66082436298840e+000,-2.53593953966033e-002

1.45397251732031e+004,-3.66082451555491e+000,-2.57133899479354e-002

1.47426921729110e+004,-3.66082467240994e+000,-2.60723256788445e-002

1.49484924863494e+004,-3.66082483367405e+000,-2.64362715487433e-002

1.51571656651040e+004,-3.66082499947103e+000,-2.68052974791864e-002

1.53687518128801e+004,-3.66082516992823e+000,-2.71794743676944e-002

1.55832915932100e+004,-3.66082534517704e+000,-2.75588740960454e-002

1.58008262372675e+004,-3.66082552535132e+000,-2.79435695583803e-002

1.60213975517924e+004,-3.66082571059009e+000,-2.83336346549099e-002

1.62450479271247e+004,-3.66082590103559e+000,-2.87291443219848e-002

1.64718203453514e+004,-3.66082609683426e+000,-2.91301745396865e-002

1.67017583885674e+004,-3.66082629813608e+000,-2.95368023507541e-002

1.69349062472505e+004,-3.66082650509598e+000,-2.99491058687676e-002

1.71713087287550e+004,-3.66082671787302e+000,-3.03671642968900e-002

1.74110112659224e+004,-3.66082693663070e+000,-3.07910579442366e-002

1.76540599258131e+004,-3.66082716153692e+000,-3.12208682399105e-002

1.79005014185594e+004,-3.66082739276434e+000,-3.16566777489990e-002

1.81503831063432e+004,-3.66082763049107e+000,-3.20985701842122e-002

1.84037530124975e+004,-3.66082787489933e+000,-3.25466304305322e-002

1.86606598307361e+004,-3.66082812617651e+000,-3.30009445567141e-002

1.89211529345119e+004,-3.66082838451640e+000,-3.34615998243232e-002

1.91852823865052e+004,-3.66082865011699e+000,-3.39286847195378e-002

1.94530989482457e+004,-3.66082892318250e+000,-3.44022889574304e-002

1.97246540898671e+004,-3.66082920392236e+000,-3.48825035079411e-002

1.99999999999999e+004,-3.66082949255218e+000,-3.53694206070687e-002

2.02791895958005e+004,-3.66082978929401e+000,-3.58631337736684e-002

2.05622765331213e+004,-3.66083009437579e+000,-3.63637378335860e-002

2.08493152168224e+004,-3.66083040803139e+000,-3.68713289362611e-002

2.11403608112276e+004,-3.66083073050165e+000,-3.73860045698446e-002

2.14354692507258e+004,-3.66083106203453e+000,-3.79078635782227e-002

2.17346972505211e+004,-3.66083140288504e+000,-3.84370061831185e-002

2.20381023175322e+004,-3.66083175331419e+000,-3.89735340097012e-002

2.23457427614443e+004,-3.66083211359103e+000,-3.95175500959413e-002

2.26576777059159e+004,-3.66083248399265e+000,-4.00691589114641e-002

2.29739670999406e+004,-3.66083286480361e+000,-4.06284663847118e-002

2.32946717293690e+004,-3.66083325631551e+000,-4.11955799255239e-002

2.36198532285905e+004,-3.66083365882943e+000,-4.17706084325317e-002

2.39495740923785e+004,-3.66083407265476e+000,-4.23536623225599e-002

2.42838976879009e+004,-3.66083449810846e+000,-4.29448535575879e-002

2.46228882668982e+004,-3.66083493551774e+000,-4.35442956512353e-002

2.49666109780322e+004,-3.66083538521769e+000,-4.41521037066227e-002

2.53151318794055e+004,-3.66083584755456e+000,-4.47683944191426e-002

2.56685179512580e+004,-3.66083632288236e+000,-4.53932861219969e-002

2.60268371088386e+004,-3.66083681156600e+000,-4.60268987904044e-002

2.63901582154578e+004,-3.66083731398080e+000,-4.66693540700857e-002

2.67585510957221e+004,-3.66083783051279e+000,-4.73207752987364e-002

2.71320865489533e+004,-3.66083836155740e+000,-4.79812875414730e-002

2.75108363627948e+004,-3.66083890752275e+000,-4.86510175949393e-002

2.78948733270080e+004,-3.66083946882794e+000,-4.93300940233101e-002

2.82842712474618e+004,-3.66084004590347e+000,-5.00186471840857e-002

2.86791049603164e+004,-3.66084063919204e+000,-5.07168092482605e-002

2.90794503464061e+004,-3.66084124914880e+000,-5.14247142263546e-002

2.94853843458219e+004,-3.66084187624201e+000,-5.21424979930195e-002

2.98969849726987e+004,-3.66084252095256e+000,-5.28702983162967e-002

3.03143313302078e+004,-3.66084318377509e+000,-5.36082548801558e-002

3.07375036257601e+004,-3.66084386521797e+000,-5.43565093135235e-002

3.11665831864199e+004,-3.66084456580416e+000,-5.51152052144315e-002

3.16016524745350e+004,-3.66084528607054e+000,-5.58844881826311e-002

3.20427951035848e+004,-3.66084602656966e+000,-5.66645058403582e-002

3.24900958542493e+004,-3.66084678786975e+000,-5.74554078621413e-002

3.29436406907028e+004,-3.66084757055404e+000,-5.82573460098699e-002

3.34035167771346e+004,-3.66084837522325e+000,-5.90704741497373e-002

3.38698124945009e+004,-3.66084920249396e+000,-5.98949482933507e-002

3.43426174575100e+004,-3.66085005300036e+000,-6.07309266198395e-002

3.48220225318448e+004,-3.66085092739474e+000,-6.15785695057470e-002

3.53081198516260e+004,-3.66085182634707e+000,-6.24380395607056e-002

3.58010028371187e+004,-3.66085275054648e+000,-6.33095016524636e-002

3.63007662126863e+004,-3.66085370070149e+000,-6.41931229400194e-002

3.68075060249948e+004,-3.66085467753963e+000,-6.50890729102606e-002

3.73213196614721e+004,-3.66085568181024e+000,-6.59975233966983e-002

3.78423058690237e+004,-3.66085671428237e+000,-6.69186486279324e-002

3.83705647730104e+004,-3.66085777574683e+000,-6.78526252516957e-002

3.89061978964912e+004,-3.66085886701726e+000,-6.87996323650212e-002

3.94493081797342e+004,-3.66085998892941e+000,-6.97598515568642e-002

3.99999999999998e+004,-3.66086114234218e+000,-7.07334669390419e-002

4.05583791916010e+004,-3.66086232813919e+000,-7.17206651750348e-002

4.11245530662425e+004,-3.66086354722866e+000,-7.27216355211025e-002

4.16986304336447e+004,-3.66086480054355e+000,-7.37365698641458e-002

4.22807216224550e+004,-3.66086608904358e+000,-7.47656627499763e-002

4.28709385014515e+004,-3.66086741371516e+000,-7.58091114248150e-002

4.34693945010421e+004,-3.66086877557187e+000,-7.68671158742169e-002

4.40762046350642e+004,-3.66087017565635e+000,-7.79398788526349e-002

4.46914855228886e+004,-3.66087161503979e+000,-7.90276059307304e-002

4.53153554118317e+004,-3.66087309482317e+000,-8.01305055301512e-002

4.59479341998812e+004,-3.66087461613884e+000,-8.12487889580414e-002

4.65893434587380e+004,-3.66087618015031e+000,-8.23826704539158e-002

4.72397064571810e+004,-3.66087778805362e+000,-8.35323672257617e-002

4.78991481847569e+004,-3.66087944107852e+000,-8.46980994885570e-002

4.85677953758016e+004,-3.66088114048860e+000,-8.58800905115098e-002

4.92457765337964e+004,-3.66088288758304e+000,-8.70785666535564e-002

4.99332219560642e+004,-3.66088468369701e+000,-8.82937574099152e-002

5.06302637588109e+004,-3.66088653020338e+000,-8.95258954491964e-002

5.13370359025159e+004,-3.66088842851253e+000,-9.07752166655618e-002

5.20536742176771e+004,-3.66089038007517e+000,-9.20419602106123e-002

5.27803164309155e+004,-3.66089238638125e+000,-9.33263685519081e-002

5.35171021914442e+004,-3.66089444896339e+000,-9.46286875027539e-002

5.42641730979066e+004,-3.66089656939622e+000,-9.59491662794899e-002

5.50216727255895e+004,-3.66089874929827e+000,-9.72880575430171e-002

5.57897466540159e+004,-3.66090099033328e+000,-9.86456174447388e-002

5.65685424949235e+004,-3.66090329421136e+000,-1.00022105674424e-001

5.73582099206328e+004,-3.66090566269005e+000,-1.01417785508911e-001

5.81589006928121e+004,-3.66090809757584e+000,-1.02832923860023e-001

5.89707686916437e+004,-3.66091060072526e+000,-1.04267791324523e-001

5.97939699453972e+004,-3.66091317404678e+000,-1.05722662231109e-001

6.06286626604156e+004,-3.66091581950197e+000,-1.07197814691648e-001

6.14750072515201e+004,-3.66091853910665e+000,-1.08693530654453e-001

6.23331663728396e+004,-3.66092133493233e+000,-1.10210095956254e-001

6.32033049490698e+004,-3.66092420910861e+000,-1.11747800368593e-001

6.40855902071694e+004,-3.66092716382414e+000,-1.13306937654565e-001

6.49801917084985e+004,-3.66093020132781e+000,-1.14887805625275e-001

6.58872813814055e+004,-3.66093332393119e+000,-1.16490706188575e-001

6.68070335542691e+004,-3.66093653401016e+000,-1.18115945404663e-001

6.77396249890018e+004,-3.66093983400608e+000,-1.19763833545161e-001

6.86852349150199e+004,-3.66094322642809e+000,-1.21434685145844e-001

6.96440450636895e+004,-3.66094671385464e+000,-1.23128819065389e-001

7.06162397032520e+004,-3.66095029893576e+000,-1.24846558540656e-001

7.16020056742374e+004,-3.66095398439480e+000,-1.26588231246023e-001

7.26015324253724e+004,-3.66095777303010e+000,-1.28354169354006e-001

7.36150120499896e+004,-3.66096166771770e+000,-1.30144709590821e-001

7.46426393229441e+004,-3.66096567141320e+000,-1.31960193298317e-001

7.56846117380472e+004,-3.66096978715305e+000,-1.33800966499218e-001

7.67411295460207e+004,-3.66097401805835e+000,-1.35667379950625e-001

7.78123957929823e+004,-3.66097836733571e+000,-1.37559789213048e-001

7.88986163594682e+004,-3.66098283828081e+000,-1.39478554707436e-001

7.99999999999995e+004,-3.66098743427910e+000,-1.41424041788148e-001

8.11167583832018e+004,-3.66099215881021e+000,-1.43396620796364e-001

8.22491061324848e+004,-3.66099701544915e+000,-1.45396667132110e-001

8.33972608672892e+004,-3.66100200786921e+000,-1.47424561319219e-001

8.45614432449099e+004,-3.66100713984461e+000,-1.49480689071856e-001

8.57418770029029e+004,-3.66101241525356e+000,-1.51565441358422e-001

8.69387890020841e+004,-3.66101783808037e+000,-1.53679214475193e-001

8.81524092701283e+004,-3.66102341241861e+000,-1.55822410112990e-001

8.93829710457770e+004,-3.66102914247454e+000,-1.57995435422190e-001

9.06307108236633e+004,-3.66103503256905e+000,-1.60198703091610e-001

9.18958683997622e+004,-3.66104108714193e+000,-1.62432631410487e-001

9.31786869174758e+004,-3.66104731075359e+000,-1.64697644350141e-001

9.44794129143618e+004,-3.66105370808975e+000,-1.66994171625606e-001

9.57982963695136e+004,-3.66106028396394e+000,-1.69322648776415e-001

9.71355907516031e+004,-3.66106704332088e+000,-1.71683517238515e-001

9.84915530675926e+004,-3.66107399124016e+000,-1.74077224418409e-001

9.98664439121282e+004,-3.66108113293944e+000,-1.76504223770310e-001

1.01260527517622e+005,-3.66108847377921e+000,-1.78964974866205e-001

1.02674071805032e+005,-3.66109601926447e+000,-1.81459943484692e-001

1.04107348435354e+005,-3.66110377505100e+000,-1.83989601673608e-001

1.05560632861831e+005,-3.66111174694697e+000,-1.86554427842433e-001

1.07034204382888e+005,-3.66111994091880e+000,-1.89154906830144e-001

1.08528346195813e+005,-3.66112836309364e+000,-1.91791529994440e-001

1.10043345451179e+005,-3.66113701976536e+000,-1.94464795281869e-001

1.11579493308032e+005,-3.66114591739688e+000,-1.97175207320170e-001

1.13137084989847e+005,-3.66115506262630e+000,-1.99923277489969e-001

1.14716419841265e+005,-3.66116446227015e+000,-2.02709524015438e-001

1.16317801385624e+005,-3.66117412332880e+000,-2.05534472040843e-001

1.17941537383287e+005,-3.66118405299066e+000,-2.08398653719842e-001

1.19587939890794e+005,-3.66119425863711e+000,-2.11302608297028e-001

1.21257325320831e+005,-3.66120474784782e+000,-2.14246882192529e-001

1.22950014503040e+005,-3.66121552840489e+000,-2.17232029091737e-001

1.24666332745679e+005,-3.66122660829935e+000,-2.20258610024477e-001

1.26406609898139e+005,-3.66123799573474e+000,-2.23327193461815e-001

1.28171180414339e+005,-3.66124969913387e+000,-2.26438355395715e-001

1.29960383416997e+005,-3.66126172714362e+000,-2.29592679430535e-001

1.31774562762811e+005,-3.66127408864085e+000,-2.32790756870726e-001

1.33614067108538e+005,-3.66128679273793e+000,-2.36033186811299e-001

1.35479249978003e+005,-3.66129984878839e+000,-2.39320576229264e-001

1.37370469830040e+005,-3.66131326639362e+000,-2.42653540067636e-001

1.39288090127379e+005,-3.66132705540786e+000,-2.46032701335693e-001

1.41232479406504e+005,-3.66134122594570e+000,-2.49458691190752e-001

1.43204011348474e+005,-3.66135578838713e+000,-2.52932149038179e-001

1.45203064850745e+005,-3.66137075338511e+000,-2.56453722616910e-001

1.47230024099979e+005,-3.66138613187113e+000,-2.60024068098448e-001

1.49285278645888e+005,-3.66140193506314e+000,-2.63643850172501e-001

1.51369223476094e+005,-3.66141817447089e+000,-2.67313742149233e-001

1.53482259092041e+005,-3.66143486190435e+000,-2.71034426044357e-001

1.55624791585964e+005,-3.66145200947985e+000,-2.74806592678511e-001

1.57797232718936e+005,-3.66146962962779e+000,-2.78630941769025e-001

1.59999999999999e+005,-3.66148773509958e+000,-2.82508182026356e-001

1.62233516766403e+005,-3.66150633897565e+000,-2.86439031246170e-001

1.64498212264969e+005,-3.66152545467256e+000,-2.90424216406018e-001

1.66794521734578e+005,-3.66154509595092e+000,-2.94464473760167e-001

1.69122886489819e+005,-3.66156527692325e+000,-2.98560548933921e-001

1.71483754005805e+005,-3.66158601206207e+000,-3.02713197018017e-001

1.73877578004168e+005,-3.66160731620770e+000,-3.06923182665142e-001

1.76304818540256e+005,-3.66162920457685e+000,-3.11191280183309e-001

1.78765942091554e+005,-3.66165169277059e+000,-3.15518273632070e-001

1.81261421647326e+005,-3.66167479678300e+000,-3.19904956916337e-001

1.83791736799524e+005,-3.66169853300983e+000,-3.24352133880689e-001

1.86357373834951e+005,-3.66172291825681e+000,-3.28860618404420e-001

1.88958825828723e+005,-3.66174796974878e+000,-3.33431234495064e-001

1.91596592739027e+005,-3.66177370513841e+000,-3.38064816381207e-001

1.94271181503206e+005,-3.66180014251495e+000,-3.42762208608159e-001

1.96983106135185e+005,-3.66182730041394e+000,-3.47524266125998e-001

1.99732887824256e+005,-3.66185519782549e+000,-3.52351854387211e-001

2.02521055035243e+005,-3.66188385420416e+000,-3.57245849434323e-001

2.05348143610063e+005,-3.66191328947819e+000,-3.62207137990952e-001

2.08214696870707e+005,-3.66194352405820e+000,-3.67236617555981e-001

2.11121265723661e+005,-3.66197457884739e+000,-3.72335196488387e-001

2.14068408765776e+005,-3.66200647525088e+000,-3.77503794096732e-001

2.17056692391625e+005,-3.66203923518482e+000,-3.82743340728355e-001

2.20086690902357e+005,-3.66207288108611e+000,-3.88054777855793e-001

2.23158986616063e+005,-3.66210743592213e+000,-3.93439058160421e-001

2.26274169979693e+005,-3.66214292320001e+000,-3.98897145619373e-001

2.29432839682530e+005,-3.66217936697637e+000,-4.04430015587165e-001

2.32635602771247e+005,-3.66221679186671e+000,-4.10038654878298e-001

2.35883074766574e+005,-3.66225522305534e+000,-4.15724061845788e-001

2.39175879781588e+005,-3.66229468630395e+000,-4.21487246465176e-001

2.42514650641661e+005,-3.66233520796182e+000,-4.27329230407350e-001

2.45900029006080e+005,-3.66237681497498e+000,-4.33251047115117e-001

2.49332665491357e+005,-3.66241953489484e+000,-4.39253741881685e-001

2.52813219796278e+005,-3.66246339588812e+000,-4.45338371917439e-001

2.56342360828676e+005,-3.66250842674499e+000,-4.51506006426023e-001

2.59920766833993e+005,-3.66255465688855e+000,-4.57757726668869e-001

2.63549125525621e+005,-3.66260211638283e+000,-4.64094626035727e-001

2.67228134217075e+005,-3.66265083594164e+000,-4.70517810106788e-001

2.70958499956006e+005,-3.66270084693632e+000,-4.77028396717890e-001

2.74740939660078e+005,-3.66275218140406e+000,-4.83627516017849e-001

2.78576180254757e+005,-3.66280487205497e+000,-4.90316310531316e-001

2.82464958813007e+005,-3.66285895227984e+000,-4.97095935210399e-001

2.86408022696948e+005,-3.66291445615680e+000,-5.03967557490600e-001

2.90406129701488e+005,-3.66297141845789e+000,-5.10932357341470e-001

2.94460048199957e+005,-3.66302987465508e+000,-5.17991527315772e-001

2.98570557291775e+005,-3.66308986092620e+000,-5.25146272594194e-001

3.02738446952187e+005,-3.66315141415957e+000,-5.32397811031645e-001

3.06964518184081e+005,-3.66321457195919e+000,-5.39747373195273e-001

3.11249583171928e+005,-3.66327937264827e+000,-5.47196202404609e-001

3.15594465437872e+005,-3.66334585527307e+000,-5.54745554765393e-001

3.19999999999997e+005,-3.66341405960525e+000,-5.62396699204992e-001

3.24467033532806e+005,-3.66348402614408e+000,-5.70150917500235e-001

3.28996424529938e+005,-3.66355579611728e+000,-5.78009504308171e-001

3.33589043469155e+005,-3.66362941148231e+000,-5.85973767185663e-001

3.38245772979638e+005,-3.66370491492494e+000,-5.94045026617070e-001

3.42967508011610e+005,-3.66378234985841e+000,-6.02224616030172e-001

3.47755156008335e+005,-3.66386176042078e+000,-6.10513881815462e-001

3.52609637080511e+005,-3.66394319147158e+000,-6.18914183339830e-001

3.57531884183106e+005,-3.66402668858748e+000,-6.27426892957047e-001

3.62522843294651e+005,-3.66411229805598e+000,-6.36053396021272e-001

3.67583473599047e+005,-3.66420006686891e+000,-6.44795090892056e-001

3.72714747669902e+005,-3.66429004271417e+000,-6.53653388939274e-001

3.77917651657445e+005,-3.66438227396572e+000,-6.62629714549425e-001

3.83193185478053e+005,-3.66447680967254e+000,-6.71725505126115e-001

3.88542363006410e+005,-3.66457369954633e+000,-6.80942211090087e-001

3.93966212270369e+005,-3.66467299394673e+000,-6.90281295879652e-001

3.99465775648511e+005,-3.66477474386581e+000,-6.99744235947791e-001

4.05042110070485e+005,-3.66487900090989e+000,-7.09332520761793e-001

4.10696287220124e+005,-3.66498581728065e+000,-7.19047652796703e-001

4.16429393741414e+005,-3.66509524575307e+000,-7.28891147536213e-001

4.22242531447321e+005,-3.66520733965255e+000,-7.38864533465827e-001

4.28136817531551e+005,-3.66532215282870e+000,-7.48969352075494e-001

4.34113384783250e+005,-3.66543973962825e+000,-7.59207157855138e-001

4.40173381804713e+005,-3.66556015486481e+000,-7.69579518296940e-001

4.46317973232124e+005,-3.66568345378649e+000,-7.80088013898956e-001

4.52548339959385e+005,-3.66580969204151e+000,-7.90734238168869e-001

4.58865679365059e+005,-3.66593892564071e+000,-8.01519797635560e-001

4.65271205542494e+005,-3.66607121091798e+000,-8.12446311859351e-001

4.71766149533147e+005,-3.66620660448744e+000,-8.23515413453455e-001

4.78351759563174e+005,-3.66634516319877e+000,-8.34728748103135e-001

4.85029301283321e+005,-3.66648694408880e+000,-8.46087974597387e-001

4.91800058012158e+005,-3.66663200433079e+000,-8.57594764864884e-001

4.98665330982714e+005,-3.66678040118012e+000,-8.69250804019405e-001

5.05626439592555e+005,-3.66693219191819e+000,-8.81057790409244e-001

5.12684721657352e+005,-3.66708743379145e+000,-8.93017435685497e-001

5.19841533667984e+005,-3.66724618394880e+000,-9.05131464871853e-001

5.27098251051240e+005,-3.66740849937487e+000,-9.17401616451969e-001

5.34456268434150e+005,-3.66757443682038e+000,-9.29829642468653e-001

5.41916999912011e+005,-3.66774405272908e+000,-9.42417308636245e-001

