Freq.,VOut,OutRef

1.00000000000000e+004,-2.20945958157392e+001,-1.25996458180260e-001

1.01395947979003e+004,-2.20945961431412e+001,-1.27755295761522e-001

1.02811382665607e+004,-2.20945964797474e+001,-1.29538685485003e-001

1.04246576084112e+004,-2.20945968258164e+001,-1.31346970072430e-001

1.05701804056138e+004,-2.20945971816144e+001,-1.33180497028934e-001

1.07177346253629e+004,-2.20945975474147e+001,-1.35039618711007e-001

1.08673486252606e+004,-2.20945979234987e+001,-1.36924692391407e-001

1.10190511587661e+004,-2.20945983101554e+001,-1.38836080331520e-001

1.11728713807222e+004,-2.20945987076818e+001,-1.40774149848289e-001

1.13288388529580e+004,-2.20945991163838e+001,-1.42739273384852e-001

1.14869835499703e+004,-2.20945995365753e+001,-1.44731828584165e-001

1.16473358646846e+004,-2.20945999685794e+001,-1.46752198358697e-001

1.18099266142953e+004,-2.20946004127283e+001,-1.48800770965178e-001

1.19747870461893e+004,-2.20946008693632e+001,-1.50877940081315e-001

1.21419488439505e+004,-2.20946013388351e+001,-1.52984104878609e-001

1.23114441334492e+004,-2.20946018215048e+001,-1.55119670099205e-001

1.24833054890161e+004,-2.20946023177435e+001,-1.57285046134260e-001

1.26575659397028e+004,-2.20946028279325e+001,-1.59480649103116e-001

1.28342589756290e+004,-2.20946033524639e+001,-1.61706900934249e-001

1.30134185544193e+004,-2.20946038917410e+001,-1.63964229442922e-001

1.31950791077289e+004,-2.20946044461782e+001,-1.66253068416514e-001

1.33792755478611e+004,-2.20946050162018e+001,-1.68573857695612e-001

1.35660432744767e+004,-2.20946056022497e+001,-1.70927043261216e-001

1.37554181813974e+004,-2.20946062047726e+001,-1.73313077317537e-001

1.39474366635040e+004,-2.20946068242334e+001,-1.75732418380650e-001

1.41421356237309e+004,-2.20946074611083e+001,-1.78185531365171e-001

1.43395524801583e+004,-2.20946081158867e+001,-1.80672887675073e-001

1.45397251732031e+004,-2.20946087890721e+001,-1.83194965292299e-001

1.47426921729110e+004,-2.20946094811817e+001,-1.85752248871322e-001

1.49484924863494e+004,-2.20946101927477e+001,-1.88345229828309e-001

1.51571656651040e+004,-2.20946109243165e+001,-1.90974406440954e-001

1.53687518128801e+004,-2.20946116764508e+001,-1.93640283937073e-001

1.55832915932100e+004,-2.20946124497285e+001,-1.96343374597473e-001

1.58008262372675e+004,-2.20946132447440e+001,-1.99084197852253e-001

1.60213975517924e+004,-2.20946140621082e+001,-2.01863280380167e-001

1.62450479271247e+004,-2.20946149024493e+001,-2.04681156210308e-001

1.64718203453514e+004,-2.20946157664133e+001,-2.07538366823304e-001

1.67017583885674e+004,-2.20946166546640e+001,-2.10435461257842e-001

1.69349062472505e+004,-2.20946175678841e+001,-2.13372996214057e-001

1.71713087287550e+004,-2.20946185067754e+001,-2.16351536160690e-001

1.74110112659224e+004,-2.20946194720595e+001,-2.19371653443373e-001

1.76540599258131e+004,-2.20946204644783e+001,-2.22433928395108e-001

1.79005014185594e+004,-2.20946214847945e+001,-2.25538949446892e-001

1.81503831063432e+004,-2.20946225337920e+001,-2.28687313241721e-001

1.84037530124975e+004,-2.20946236122770e+001,-2.31879624748640e-001

1.86606598307361e+004,-2.20946247210784e+001,-2.35116497377394e-001

1.89211529345119e+004,-2.20946258610484e+001,-2.38398553097146e-001

1.91852823865052e+004,-2.20946270330625e+001,-2.41726422559004e-001

1.94530989482457e+004,-2.20946282380219e+001,-2.45100745209989e-001

1.97246540898671e+004,-2.20946294768524e+001,-2.48522169422564e-001

1.99999999999999e+004,-2.20946307505057e+001,-2.51991352615983e-001

2.02791895958005e+004,-2.20946320599608e+001,-2.55508961381019e-001

2.05622765331213e+004,-2.20946334062238e+001,-2.59075671611505e-001

2.08493152168224e+004,-2.20946347903292e+001,-2.62692168631459e-001

2.11403608112276e+004,-2.20946362133405e+001,-2.66359147325622e-001

2.14354692507258e+004,-2.20946376763512e+001,-2.70077312276643e-001

2.17346972505211e+004,-2.20946391804853e+001,-2.73847377897013e-001

2.20381023175322e+004,-2.20946407268986e+001,-2.77670068565616e-001

2.23457427614443e+004,-2.20946423167793e+001,-2.81546118769412e-001

2.26576777059159e+004,-2.20946439513488e+001,-2.85476273242698e-001

2.29739670999406e+004,-2.20946456318633e+001,-2.89461287108121e-001

2.32946717293690e+004,-2.20946473596138e+001,-2.93501926026090e-001

2.36198532285905e+004,-2.20946491359277e+001,-2.97598966337878e-001

2.39495740923785e+004,-2.20946509621697e+001,-3.01753195215076e-001

2.42838976879009e+004,-2.20946528397429e+001,-3.05965410810832e-001

2.46228882668982e+004,-2.20946547700898e+001,-3.10236422413151e-001

2.49666109780322e+004,-2.20946567546933e+001,-3.14567050600000e-001

2.53151318794055e+004,-2.20946587950781e+001,-3.18958127396096e-001

2.56685179512580e+004,-2.20946608928116e+001,-3.23410496432919e-001

2.60268371088386e+004,-2.20946630495053e+001,-3.27925013110339e-001

2.63901582154578e+004,-2.20946652668159e+001,-3.32502544759327e-001

2.67585510957221e+004,-2.20946675464468e+001,-3.37143970810123e-001

2.71320865489533e+004,-2.20946698901490e+001,-3.41850182959141e-001

2.75108363627948e+004,-2.20946722997226e+001,-3.46622085341283e-001

2.78948733270080e+004,-2.20946747770187e+001,-3.51460594701422e-001

2.82842712474618e+004,-2.20946773239400e+001,-3.56366640570438e-001

2.86791049603164e+004,-2.20946799424427e+001,-3.61341165444928e-001

2.90794503464061e+004,-2.20946826345380e+001,-3.66385124965523e-001

2.94853843458219e+004,-2.20946854022935e+001,-3.71499488101315e-001

2.98969849726987e+004,-2.20946882478349e+001,-3.76685237334419e-001

3.03143313302078e+004,-2.20946911733476e+001,-3.81943368848434e-001

3.07375036257601e+004,-2.20946941810782e+001,-3.87274892720009e-001

3.11665831864199e+004,-2.20946972733366e+001,-3.92680833110290e-001

3.16016524745350e+004,-2.20947004524973e+001,-3.98162228463239e-001

3.20427951035848e+004,-2.20947037210017e+001,-4.03720131701440e-001

3.24900958542493e+004,-2.20947070813595e+001,-4.09355610431527e-001

3.29436406907028e+004,-2.20947105361511e+001,-4.15069747143985e-001

3.34035167771346e+004,-2.20947140880292e+001,-4.20863639423286e-001

3.38698124945009e+004,-2.20947177397208e+001,-4.26738400158310e-001

3.43426174575100e+004,-2.20947214940296e+001,-4.32695157751401e-001

3.48220225318448e+004,-2.20947253538380e+001,-4.38735056338182e-001

3.53081198516260e+004,-2.20947293221092e+001,-4.44859256004205e-001

3.58010028371187e+004,-2.20947334018897e+001,-4.51068933007240e-001

3.63007662126863e+004,-2.20947375963112e+001,-4.57365280001801e-001

3.68075060249948e+004,-2.20947419085936e+001,-4.63749506267770e-001

3.73213196614721e+004,-2.20947463420469e+001,-4.70222837940508e-001

3.78423058690237e+004,-2.20947509000740e+001,-4.76786518246701e-001

3.83705647730104e+004,-2.20947555861733e+001,-4.83441807738864e-001

3.89061978964912e+004,-2.20947604039415e+001,-4.90189984539439e-001

3.94493081797342e+004,-2.20947653570758e+001,-4.97032344582469e-001

3.99999999999998e+004,-2.20947704493774e+001,-5.03970201863168e-001

4.05583791916010e+004,-2.20947756847542e+001,-5.11004888685499e-001

4.11245530662425e+004,-2.20947810672233e+001,-5.18137755920012e-001

4.16986304336447e+004,-2.20947866009147e+001,-5.25370173259304e-001

4.22807216224550e+004,-2.20947922900742e+001,-5.32703529480040e-001

4.28709385014515e+004,-2.20947981390666e+001,-5.40139232707407e-001

4.34693945010421e+004,-2.20948041523792e+001,-5.47678710684371e-001

4.40762046350642e+004,-2.20948103346248e+001,-5.55323411043814e-001

4.46914855228886e+004,-2.20948166905458e+001,-5.63074801582821e-001

4.53153554118317e+004,-2.20948232250174e+001,-5.70934370544457e-001

4.59479341998812e+004,-2.20948299430514e+001,-5.78903626901063e-001

4.65893434587380e+004,-2.20948368498001e+001,-5.86984100639032e-001

4.72397064571810e+004,-2.20948439505602e+001,-5.95177343054765e-001

4.78991481847569e+004,-2.20948512507768e+001,-6.03484927044944e-001

4.85677953758016e+004,-2.20948587560475e+001,-6.11908447410002e-001

4.92457765337964e+004,-2.20948664721267e+001,-6.20449521154673e-001

4.99332219560642e+004,-2.20948744049301e+001,-6.29109787797857e-001

5.06302637588109e+004,-2.20948825605389e+001,-6.37890909681890e-001

5.13370359025159e+004,-2.20948909452048e+001,-6.46794572291383e-001

5.20536742176771e+004,-2.20948995653546e+001,-6.55822484569999e-001

5.27803164309155e+004,-2.20949084275946e+001,-6.64976379249731e-001

5.35171021914442e+004,-2.20949175387166e+001,-6.74258013175358e-001

5.42641730979066e+004,-2.20949269057023e+001,-6.83669167640478e-001

5.50216727255895e+004,-2.20949365357287e+001,-6.93211648725915e-001

5.57897466540159e+004,-2.20949464361737e+001,-7.02887287640484e-001

5.65685424949235e+004,-2.20949566146218e+001,-7.12697941070044e-001

5.73582099206328e+004,-2.20949670788696e+001,-7.22645491528257e-001

5.81589006928121e+004,-2.20949778369317e+001,-7.32731847714793e-001

5.89707686916437e+004,-2.20949888970470e+001,-7.42958944875055e-001

5.97939699453972e+004,-2.20950002676848e+001,-7.53328745167939e-001

6.06286626604156e+004,-2.20950119575512e+001,-7.63843238037293e-001

6.14750072515201e+004,-2.20950239755957e+001,-7.74504440586965e-001

6.23331663728396e+004,-2.20950363310179e+001,-7.85314397964347e-001

6.32033049490698e+004,-2.20950490332747e+001,-7.96275183745154e-001

6.40855902071694e+004,-2.20950620920870e+001,-8.07388900326065e-001

6.49801917084985e+004,-2.20950755174478e+001,-8.18657679321188e-001

6.58872813814055e+004,-2.20950893196285e+001,-8.30083681966327e-001

6.68070335542691e+004,-2.20951035091880e+001,-8.41669099523313e-001

6.77396249890018e+004,-2.20951180969799e+001,-8.53416153696490e-001

6.86852349150199e+004,-2.20951330941606e+001,-8.65327097049843e-001

6.96440450636895e+004,-2.20951485121982e+001,-8.77404213431843e-001

7.06162397032520e+004,-2.20951643628809e+001,-8.89649818404252e-001

7.16020056742374e+004,-2.20951806583254e+001,-9.02066259680246e-001

7.26015324253724e+004,-2.20951974109868e+001,-9.14655917563176e-001

7.36150120499896e+004,-2.20952146336674e+001,-9.27421205396081e-001

7.46426393229441e+004,-2.20952323395267e+001,-9.40364570013002e-001

7.56846117380472e+004,-2.20952505420909e+001,-9.53488492199951e-001

7.67411295460207e+004,-2.20952692552631e+001,-9.66795487159832e-001

7.78123957929823e+004,-2.20952884933340e+001,-9.80288104983241e-001

7.88986163594682e+004,-2.20953082709922e+001,-9.93968931126442e-001

7.99999999999995e+004,-2.20953286033358e+001,-1.00784058689507e+000

8.11167583832018e+004,-2.20953495058826e+001,-1.02190572993621e+000

8.22491061324848e+004,-2.20953709945830e+001,-1.03616705473242e+000

8.33972608672892e+004,-2.20953930858309e+001,-1.05062729310648e+000

8.45614432449099e+004,-2.20954157964764e+001,-1.06528921473183e+000

8.57418770029029e+004,-2.20954391438383e+001,-1.08015562764675e+000

8.69387890020841e+004,-2.20954631457168e+001,-1.09522937877993e+000

8.81524092701283e+004,-2.20954878204067e+001,-1.11051335447974e+000

8.93829710457770e+004,-2.20955131867115e+001,-1.12601048104952e+000

9.06307108236633e+004,-2.20955392639568e+001,-1.14172372529359e+000

9.18958683997622e+004,-2.20955660720048e+001,-1.15765609506670e+000

9.31786869174758e+004,-2.20955936312691e+001,-1.17381063983207e+000

9.44794129143618e+004,-2.20956219627297e+001,-1.19019045122595e+000

9.57982963695136e+004,-2.20956510879483e+001,-1.20679866363170e+000

9.71355907516031e+004,-2.20956810290850e+001,-1.22363845475677e+000

9.84915530675926e+004,-2.20957118089136e+001,-1.24071304622149e+000

9.98664439121282e+004,-2.20957434508390e+001,-1.25802570415332e+000

1.01260527517622e+005,-2.20957759789143e+001,-1.27557973978730e+000

1.02674071805032e+005,-2.20958094178583e+001,-1.29337851007815e+000

1.04107348435354e+005,-2.20958437930742e+001,-1.31142541831453e+000

1.05560632861831e+005,-2.20958791306672e+001,-1.32972391474680e+000

1.07034204382888e+005,-2.20959154574645e+001,-1.34827749721834e+000

1.08528346195813e+005,-2.20959528010348e+001,-1.36708971180577e+000

1.10043345451179e+005,-2.20959911897077e+001,-1.38616415346968e+000

1.11579493308032e+005,-2.20960306525953e+001,-1.40550446670979e+000

1.13137084989847e+005,-2.20960712196127e+001,-1.42511434622981e+000

1.14716419841265e+005,-2.20961129215000e+001,-1.44499753761171e+000

1.16317801385624e+005,-2.20961557898445e+001,-1.46515783799591e+000

1.17941537383287e+005,-2.20961998571038e+001,-1.48559909677214e+000

1.19587939890794e+005,-2.20962451566287e+001,-1.50632521627677e+000

1.21257325320831e+005,-2.20962917226881e+001,-1.52734015249940e+000

1.22950014503040e+005,-2.20963395904929e+001,-1.54864791579837e+000

1.24666332745679e+005,-2.20963887962217e+001,-1.57025257162506e+000

1.26406609898139e+005,-2.20964393770466e+001,-1.59215824125557e+000

1.28171180414339e+005,-2.20964913711602e+001,-1.61436910253206e+000

1.29960383416997e+005,-2.20965448178022e+001,-1.63688939061339e+000

1.31774562762811e+005,-2.20965997572881e+001,-1.65972339873394e+000

1.33614067108538e+005,-2.20966562310374e+001,-1.68287547897101e+000

1.35479249978003e+005,-2.20967142816033e+001,-1.70635004302307e+000

1.37370469830040e+005,-2.20967739527026e+001,-1.73015156299404e+000

1.39288090127379e+005,-2.20968352892470e+001,-1.75428457218965e+000

1.41232479406504e+005,-2.20968983373742e+001,-1.77875366592230e+000

1.43204011348474e+005,-2.20969631444809e+001,-1.80356350232352e+000

1.45203064850745e+005,-2.20970297592558e+001,-1.82871880316706e+000

1.47230024099979e+005,-2.20970982317138e+001,-1.85422435470209e+000

1.49285278645888e+005,-2.20971686132305e+001,-1.88008500849474e+000

1.51369223476094e+005,-2.20972409565788e+001,-1.90630568227838e+000

1.53482259092041e+005,-2.20973153159647e+001,-1.93289136081504e+000

1.55624791585964e+005,-2.20973917470652e+001,-1.95984709676670e+000

1.57797232718936e+005,-2.20974703070668e+001,-1.98717801157317e+000

1.59999999999999e+005,-2.20975510547048e+001,-2.01488929634309e+000

1.62233516766403e+005,-2.20976340503034e+001,-2.04298621275316e+000

1.64498212264969e+005,-2.20977193558171e+001,-2.07147409395651e+000

1.66794521734578e+005,-2.20978070348729e+001,-2.10035834550178e+000

1.69122886489819e+005,-2.20978971528137e+001,-2.12964444626180e+000

1.71483754005805e+005,-2.20979897767422e+001,-2.15933794937202e+000

1.73877578004168e+005,-2.20980849755661e+001,-2.18944448317875e+000

1.76304818540256e+005,-2.20981828200449e+001,-2.21996975219730e+000

1.78765942091554e+005,-2.20982833828369e+001,-2.25091953807991e+000

1.81261421647326e+005,-2.20983867385475e+001,-2.28229970059411e+000

1.83791736799524e+005,-2.20984929637790e+001,-2.31411617861018e+000

1.86357373834951e+005,-2.20986021371812e+001,-2.34637499110000e+000

1.88958825828723e+005,-2.20987143395032e+001,-2.37908223814358e+000

1.91596592739027e+005,-2.20988296536462e+001,-2.41224410194859e+000

1.94271181503206e+005,-2.20989481647177e+001,-2.44586684787684e+000

1.96983106135185e+005,-2.20990699600867e+001,-2.47995682548300e+000

1.99732887824256e+005,-2.20991951294404e+001,-2.51452046956233e+000

2.02521055035243e+005,-2.20993237648415e+001,-2.54956430120817e+000

2.05348143610063e+005,-2.20994559607876e+001,-2.58509492888061e+000

2.08214696870707e+005,-2.20995918142710e+001,-2.62111904948340e+000

2.11121265723661e+005,-2.20997314248401e+001,-2.65764344945282e+000

2.14068408765776e+005,-2.20998748946626e+001,-2.69467500585428e+000

2.17056692391625e+005,-2.21000223285888e+001,-2.73222068749131e+000

2.20086690902357e+005,-2.21001738342173e+001,-2.77028755602227e+000

2.23158986616063e+005,-2.21003295219615e+001,-2.80888276708826e+000

2.26274169979693e+005,-2.21004895051177e+001,-2.84801357145063e+000

2.29432839682530e+005,-2.21006538999338e+001,-2.88768731613786e+000

2.32635602771247e+005,-2.21008228256807e+001,-2.92791144560331e+000

2.35883074766574e+005,-2.21009964047235e+001,-2.96869350289111e+000

2.39175879781588e+005,-2.21011747625952e+001,-3.01004113081404e+000

2.42514650641661e+005,-2.21013580280714e+001,-3.05196207313878e+000

2.45900029006080e+005,-2.21015463332460e+001,-3.09446417578241e+000

2.49332665491357e+005,-2.21017398136092e+001,-3.13755538801842e+000

2.52813219796278e+005,-2.21019386081256e+001,-3.18124376369126e+000

2.56342360828676e+005,-2.21021428593150e+001,-3.22553746244168e+000

2.59920766833993e+005,-2.21023527133336e+001,-3.27044475094126e+000

2.63549125525621e+005,-2.21025683200572e+001,-3.31597400413632e+000

2.67228134217075e+005,-2.21027898331652e+001,-3.36213370650050e+000

2.70958499956006e+005,-2.21030174102269e+001,-3.40893245329897e+000

2.74740939660078e+005,-2.21032512127876e+001,-3.45637895185984e+000

2.78576180254757e+005,-2.21034914064583e+001,-3.50448202285555e+000

2.82464958813007e+005,-2.21037381610045e+001,-3.55325060159472e+000

2.86408022696948e+005,-2.21039916504378e+001,-3.60269373932169e+000

2.90406129701488e+005,-2.21042520531084e+001,-3.65282060452662e+000

2.94460048199957e+005,-2.21045195517986e+001,-3.70364048426457e+000

2.98570557291775e+005,-2.21047943338184e+001,-3.75516278548354e+000

3.02738446952187e+005,-2.21050765911015e+001,-3.80739703636234e+000

3.06964518184081e+005,-2.21053665203029e+001,-3.86035288765729e+000

3.11249583171928e+005,-2.21056643228984e+001,-3.91404011405915e+000

3.15594465437872e+005,-2.21059702052840e+001,-3.96846861555868e+000

3.19999999999997e+005,-2.21062843788775e+001,-4.02364841882187e+000

3.24467033532806e+005,-2.21066070602211e+001,-4.07958967857487e+000

3.28996424529938e+005,-2.21069384710850e+001,-4.13630267899871e+000

3.33589043469155e+005,-2.21072788385717e+001,-4.19379783513356e+000

3.38245772979638e+005,-2.21076283952223e+001,-4.25208569429244e+000

3.42967508011610e+005,-2.21079873791227e+001,-4.31117693748599e+000

3.47755156008335e+005,-2.21083560340121e+001,-4.37108238085609e+000

3.52609637080511e+005,-2.21087346093907e+001,-4.43181297712136e+000

3.57531884183106e+005,-2.21091233606304e+001,-4.49337981703156e+000

3.62522843294651e+005,-2.21095225490843e+001,-4.55579413083446e+000

3.67583473599047e+005,-2.21099324421985e+001,-4.61906728975211e+000

3.72714747669902e+005,-2.21103533136238e+001,-4.68321080747095e+000

3.77917651657445e+005,-2.21107854433286e+001,-4.74823634164043e+000

3.83193185478053e+005,-2.21112291177119e+001,-4.81415569538687e+000

3.88542363006410e+005,-2.21116846297175e+001,-4.88098081883809e+000

3.93966212270369e+005,-2.21121522789483e+001,-4.94872381066109e+000

3.99465775648511e+005,-2.21126323717813e+001,-5.01739691961446e+000

4.05042110070485e+005,-2.21131252214829e+001,-5.08701254611328e+000

4.10696287220124e+005,-2.21136311483243e+001,-5.15758324381077e+000

4.16429393741414e+005,-2.21141504796983e+001,-5.22912172119260e+000

4.22242531447321e+005,-2.21146835502344e+001,-5.30164084318981e+000

4.28136817531551e+005,-2.21152307019163e+001,-5.37515363280698e+000

4.34113384783250e+005,-2.21157922841978e+001,-5.44967327276891e+000

4.40173381804713e+005,-2.21163686541197e+001,-5.52521310718525e+000

4.46317973232124e+005,-2.21169601764264e+001,-5.60178664323524e+000

4.52548339959385e+005,-2.21175672236826e+001,-5.67940755287217e+000

4.58865679365059e+005,-2.21181901763903e+001,-5.75808967455054e+000

4.65271205542494e+005,-2.21188294231044e+001,-5.83784701497508e+000

4.71766149533147e+005,-2.21194853605501e+001,-5.91869375087441e+000

4.78351759563174e+005,-2.21201583937386e+001,-6.00064423079986e+000

4.85029301283321e+005,-2.21208489360833e+001,-6.08371297695057e+000

4.91800058012158e+005,-2.21215574095156e+001,-6.16791468702833e+000

4.98665330982714e+005,-2.21222842446005e+001,-6.25326423611964e+000

5.05626439592555e+005,-2.21230298806527e+001,-6.33977667861204e+000

5.12684721657352e+005,-2.21237947658511e+001,-6.42746725014111e+000

5.19841533667984e+005,-2.21245793573546e+001,-6.51635136957487e+000

5.27098251051240e+005,-2.21253841214166e+001,-6.60644464103149e+000

5.34456268434150e+005,-2.21262095335011e+001,-6.69776285593976e+000

5.41916999912011e+005,-2.21270560783964e+001,-6.79032199513749e+000

