Freq.,VOut,OutRef

1.00000000000000e+004,-2.35828581908851e+001,-5.02933063228851e-002

1.01395947979003e+004,-2.35828582377972e+001,-5.09953740042519e-002

1.02811382665607e+004,-2.35828582860280e+001,-5.17072421558467e-002

1.04246576084112e+004,-2.35828583356148e+001,-5.24290475843420e-002

1.05701804056138e+004,-2.35828583865958e+001,-5.31609290071562e-002

1.07177346253629e+004,-2.35828584390098e+001,-5.39030270815154e-002

1.08673486252606e+004,-2.35828584928975e+001,-5.46554844217639e-002

1.10190511587661e+004,-2.35828585482999e+001,-5.54184456394425e-002

1.11728713807222e+004,-2.35828586052601e+001,-5.61920573585782e-002

1.13288388529580e+004,-2.35828586638215e+001,-5.69764682546908e-002

1.14869835499703e+004,-2.35828587240292e+001,-5.77718290773786e-002

1.16473358646846e+004,-2.35828587859295e+001,-5.85782926789708e-002

1.18099266142953e+004,-2.35828588495700e+001,-5.93960140477629e-002

1.19747870461893e+004,-2.35828589149997e+001,-6.02251503324211e-002

1.21419488439505e+004,-2.35828589822686e+001,-6.10658608807336e-002

1.23114441334492e+004,-2.35828590514289e+001,-6.19183072560784e-002

1.24833054890161e+004,-2.35828591225332e+001,-6.27826532883754e-002

1.26575659397028e+004,-2.35828591956366e+001,-6.36590650832732e-002

1.28342589756290e+004,-2.35828592707951e+001,-6.45477110725864e-002

1.30134185544193e+004,-2.35828593480664e+001,-6.54487620367162e-002

1.31950791077289e+004,-2.35828594275100e+001,-6.63623911396863e-002

1.33792755478611e+004,-2.35828595091872e+001,-6.72887739617748e-002

1.35660432744767e+004,-2.35828595931604e+001,-6.82280885377111e-002

1.37554181813974e+004,-2.35828596794943e+001,-6.91805153844929e-002

1.39474366635040e+004,-2.35828597682552e+001,-7.01462375384880e-002

1.41421356237309e+004,-2.35828598595116e+001,-7.11254405925189e-002

1.43395524801583e+004,-2.35828599533332e+001,-7.21183127300742e-002

1.45397251732031e+004,-2.35828600497924e+001,-7.31250447612761e-002

1.47426921729110e+004,-2.35828601489634e+001,-7.41458301578649e-002

1.49484924863494e+004,-2.35828602509220e+001,-7.51808650965025e-002

1.51571656651040e+004,-2.35828603557472e+001,-7.62303484853954e-002

1.53687518128801e+004,-2.35828604635191e+001,-7.72944820169171e-002

1.55832915932100e+004,-2.35828605743208e+001,-7.83734701928553e-002

1.58008262372675e+004,-2.35828606882374e+001,-7.94675203727298e-002

1.60213975517924e+004,-2.35828608053562e+001,-8.05768428106293e-002

1.62450479271247e+004,-2.35828609257676e+001,-8.17016506928381e-002

1.64718203453514e+004,-2.35828610495640e+001,-8.28421601835427e-002

1.67017583885674e+004,-2.35828611768403e+001,-8.39985904649454e-002

1.69349062472505e+004,-2.35828613076948e+001,-8.51711637756470e-002

1.71713087287550e+004,-2.35828614422278e+001,-8.63601054592834e-002

1.74110112659224e+004,-2.35828615805427e+001,-8.75656440030470e-002

1.76540599258131e+004,-2.35828617227461e+001,-8.87880110842084e-002

1.79005014185594e+004,-2.35828618689468e+001,-9.00274416155906e-002

1.81503831063432e+004,-2.35828620192574e+001,-9.12841737863651e-002

1.84037530124975e+004,-2.35828621737935e+001,-9.25584491108028e-002

1.86606598307361e+004,-2.35828623326738e+001,-9.38505124747269e-002

1.89211529345119e+004,-2.35828624960204e+001,-9.51606121834470e-002

1.91852823865052e+004,-2.35828626639589e+001,-9.64890000061801e-002

1.94530989482457e+004,-2.35828628366184e+001,-9.78359312266558e-002

1.97246540898671e+004,-2.35828630141314e+001,-9.92016646938014e-002

1.99999999999999e+004,-2.35828631966345e+001,-1.00586462867103e-001

2.02791895958005e+004,-2.35828633842680e+001,-1.01990591870127e-001

2.05622765331213e+004,-2.35828635771760e+001,-1.03414321542476e-001

2.08493152168224e+004,-2.35828637755068e+001,-1.04857925487835e-001

2.11403608112276e+004,-2.35828639794128e+001,-1.06321681130479e-001

2.14354692507258e+004,-2.35828641890507e+001,-1.07805869767345e-001

2.17346972505211e+004,-2.35828644045814e+001,-1.09310776621005e-001

2.20381023175322e+004,-2.35828646261710e+001,-1.10836690892613e-001

2.23457427614443e+004,-2.35828648539895e+001,-1.12383905823360e-001

2.26576777059159e+004,-2.35828650882120e+001,-1.13952718746757e-001

2.29739670999406e+004,-2.35828653290183e+001,-1.15543431146207e-001

2.32946717293690e+004,-2.35828655765940e+001,-1.17156348709993e-001

2.36198532285905e+004,-2.35828658311289e+001,-1.18791781398309e-001

2.39495740923785e+004,-2.35828660928184e+001,-1.20450043496106e-001

2.42838976879009e+004,-2.35828663618642e+001,-1.22131453670588e-001

2.46228882668982e+004,-2.35828666384726e+001,-1.23836335042178e-001

2.49666109780322e+004,-2.35828669228563e+001,-1.25565015237879e-001

2.53151318794055e+004,-2.35828672152339e+001,-1.27317826458973e-001

2.56685179512580e+004,-2.35828675158300e+001,-1.29095105542288e-001

2.60268371088386e+004,-2.35828678248754e+001,-1.30897194027632e-001

2.63901582154578e+004,-2.35828681426077e+001,-1.32724438220674e-001

2.67585510957221e+004,-2.35828684692711e+001,-1.34577189258965e-001

2.71320865489533e+004,-2.35828688051164e+001,-1.36455803183612e-001

2.75108363627948e+004,-2.35828691504020e+001,-1.38360641001662e-001

2.78948733270080e+004,-2.35828695053929e+001,-1.40292068761970e-001

2.82842712474618e+004,-2.35828698703617e+001,-1.42250457621602e-001

2.86791049603164e+004,-2.35828702455892e+001,-1.44236183913788e-001

2.90794503464061e+004,-2.35828706313635e+001,-1.46249629229835e-001

2.94853843458219e+004,-2.35828710279809e+001,-1.48291180482395e-001

2.98969849726987e+004,-2.35828714357462e+001,-1.50361229986242e-001

3.03143313302078e+004,-2.35828718549728e+001,-1.52460175529982e-001

3.07375036257601e+004,-2.35828722859826e+001,-1.54588420454608e-001

3.11665831864199e+004,-2.35828727291065e+001,-1.56746373731023e-001

3.16016524745350e+004,-2.35828731846854e+001,-1.58934450034919e-001

3.20427951035848e+004,-2.35828736530688e+001,-1.61153069832773e-001

3.24900958542493e+004,-2.35828741346168e+001,-1.63402659455498e-001

3.29436406907028e+004,-2.35828746296992e+001,-1.65683651185959e-001

3.34035167771346e+004,-2.35828751386961e+001,-1.67996483340278e-001

3.38698124945009e+004,-2.35828756619990e+001,-1.70341600347616e-001

3.43426174575100e+004,-2.35828762000092e+001,-1.72719452844550e-001

3.48220225318448e+004,-2.35828767531404e+001,-1.75130497752075e-001

3.53081198516260e+004,-2.35828773218173e+001,-1.77575198369748e-001

3.58010028371187e+004,-2.35828779064767e+001,-1.80054024461607e-001

3.63007662126863e+004,-2.35828785075674e+001,-1.82567452348863e-001

3.68075060249948e+004,-2.35828791255512e+001,-1.85115964997025e-001

3.73213196614721e+004,-2.35828797609029e+001,-1.87700052111884e-001

3.78423058690237e+004,-2.35828804141102e+001,-1.90320210233907e-001

3.83705647730104e+004,-2.35828810856746e+001,-1.92976942832322e-001

3.89061978964912e+004,-2.35828817761120e+001,-1.95670760400625e-001

3.94493081797342e+004,-2.35828824859526e+001,-1.98402180556478e-001

3.99999999999998e+004,-2.35828832157414e+001,-2.01171728139546e-001

4.05583791916010e+004,-2.35828839660385e+001,-2.03979935315119e-001

4.11245530662425e+004,-2.35828847374205e+001,-2.06827341670379e-001

4.16986304336447e+004,-2.35828855304793e+001,-2.09714494324836e-001

4.22807216224550e+004,-2.35828863458237e+001,-2.12641948031059e-001

4.28709385014515e+004,-2.35828871840799e+001,-2.15610265281257e-001

4.34693945010421e+004,-2.35828880458913e+001,-2.18620016416498e-001

4.40762046350642e+004,-2.35828889319196e+001,-2.21671779735475e-001

4.46914855228886e+004,-2.35828898428447e+001,-2.24766141606859e-001

4.53153554118317e+004,-2.35828907793660e+001,-2.27903696577332e-001

4.59479341998812e+004,-2.35828917422023e+001,-2.31085047492635e-001

4.65893434587380e+004,-2.35828927320926e+001,-2.34310805605715e-001

4.72397064571810e+004,-2.35828937497968e+001,-2.37581590699105e-001

4.78991481847569e+004,-2.35828947960956e+001,-2.40898031203746e-001

4.85677953758016e+004,-2.35828958717923e+001,-2.44260764313858e-001

4.92457765337964e+004,-2.35828969777122e+001,-2.47670436117282e-001

4.99332219560642e+004,-2.35828981147039e+001,-2.51127701712629e-001

5.06302637588109e+004,-2.35828992836398e+001,-2.54633225338589e-001

5.13370359025159e+004,-2.35829004854170e+001,-2.58187680498594e-001

5.20536742176771e+004,-2.35829017209574e+001,-2.61791750093289e-001

5.27803164309155e+004,-2.35829029912089e+001,-2.65446126548792e-001

5.35171021914442e+004,-2.35829042971459e+001,-2.69151511949260e-001

5.42641730979066e+004,-2.35829056397702e+001,-2.72908618173714e-001

5.50216727255895e+004,-2.35829070201117e+001,-2.76718167029979e-001

5.57897466540159e+004,-2.35829084392290e+001,-2.80580890394948e-001

5.65685424949235e+004,-2.35829098982105e+001,-2.84497530352313e-001

5.73582099206328e+004,-2.35829113981752e+001,-2.88468839337987e-001

5.81589006928121e+004,-2.35829129402733e+001,-2.92495580281147e-001

5.89707686916437e+004,-2.35829145256873e+001,-2.96578526751807e-001

5.97939699453972e+004,-2.35829161556326e+001,-3.00718463111187e-001

6.06286626604156e+004,-2.35829178313591e+001,-3.04916184655447e-001

6.14750072515201e+004,-2.35829195541512e+001,-3.09172497776311e-001

6.23331663728396e+004,-2.35829213253295e+001,-3.13488220108662e-001

6.32033049490698e+004,-2.35829231462520e+001,-3.17864180689350e-001

6.40855902071694e+004,-2.35829250183138e+001,-3.22301220118401e-001

6.49801917084985e+004,-2.35829269429499e+001,-3.26800190716049e-001

6.58872813814055e+004,-2.35829289216349e+001,-3.31361956687830e-001

6.68070335542691e+004,-2.35829309558853e+001,-3.35987394288797e-001

6.77396249890018e+004,-2.35829330472591e+001,-3.40677391994403e-001

6.86852349150199e+004,-2.35829351973590e+001,-3.45432850664573e-001

6.96440450636895e+004,-2.35829374078317e+001,-3.50254683721593e-001

7.06162397032520e+004,-2.35829396803704e+001,-3.55143817322059e-001

7.16020056742374e+004,-2.35829420167155e+001,-3.60101190535332e-001

7.26015324253724e+004,-2.35829444186559e+001,-3.65127755521798e-001

7.36150120499896e+004,-2.35829468880311e+001,-3.70224477713688e-001

7.46426393229441e+004,-2.35829494267313e+001,-3.75392336004778e-001

7.56846117380472e+004,-2.35829520367001e+001,-3.80632322931146e-001

7.67411295460207e+004,-2.35829547199350e+001,-3.85945444865529e-001

7.78123957929823e+004,-2.35829574784899e+001,-3.91332722205222e-001

7.88986163594682e+004,-2.35829603144755e+001,-3.96795189572927e-001

7.99999999999995e+004,-2.35829632300617e+001,-4.02333896009017e-001

8.11167583832018e+004,-2.35829662274791e+001,-4.07949905172968e-001

8.22491061324848e+004,-2.35829693090204e+001,-4.13644295549563e-001

8.33972608672892e+004,-2.35829724770425e+001,-4.19418160650491e-001

8.45614432449099e+004,-2.35829757339679e+001,-4.25272609226274e-001

8.57418770029029e+004,-2.35829790822870e+001,-4.31208765475260e-001

8.69387890020841e+004,-2.35829825245593e+001,-4.37227769261556e-001

8.81524092701283e+004,-2.35829860634162e+001,-4.43330776327193e-001

8.93829710457770e+004,-2.35829897015619e+001,-4.49518958518696e-001

9.06307108236633e+004,-2.35829934417766e+001,-4.55793504005680e-001

9.18958683997622e+004,-2.35829972869175e+001,-4.62155617510212e-001

9.31786869174758e+004,-2.35830012399219e+001,-4.68606520534018e-001

9.44794129143618e+004,-2.35830053038088e+001,-4.75147451593192e-001

9.57982963695136e+004,-2.35830094816809e+001,-4.81779666453998e-001

9.71355907516031e+004,-2.35830137767281e+001,-4.88504438370167e-001

9.84915530675926e+004,-2.35830181922284e+001,-4.95323058328331e-001

9.98664439121282e+004,-2.35830227315515e+001,-5.02236835290274e-001

1.01260527517622e+005,-2.35830273981607e+001,-5.09247096445109e-001

1.02674071805032e+005,-2.35830321956157e+001,-5.16355187460100e-001

1.04107348435354e+005,-2.35830371275752e+001,-5.23562472736383e-001

1.05560632861831e+005,-2.35830421977998e+001,-5.30870335669692e-001

1.07034204382888e+005,-2.35830474101544e+001,-5.38280178912616e-001

1.08528346195813e+005,-2.35830527686113e+001,-5.45793424641210e-001

1.10043345451179e+005,-2.35830582772535e+001,-5.53411514824306e-001

1.11579493308032e+005,-2.35830639402769e+001,-5.61135911499755e-001

1.13137084989847e+005,-2.35830697619944e+001,-5.68968097049161e-001

1.14716419841265e+005,-2.35830757468381e+001,-5.76909574481140e-001

1.16317801385624e+005,-2.35830818993634e+001,-5.84961867715863e-001

1.17941537383287e+005,-2.35830882242521e+001,-5.93126521873508e-001

1.19587939890794e+005,-2.35830947263153e+001,-6.01405103569154e-001

1.21257325320831e+005,-2.35831014104980e+001,-6.09799201207090e-001

1.22950014503040e+005,-2.35831082818819e+001,-6.18310425284078e-001

1.24666332745679e+005,-2.35831153456893e+001,-6.26940408692593e-001

1.26406609898139e+005,-2.35831226072873e+001,-6.35690807031877e-001

1.28171180414339e+005,-2.35831300721913e+001,-6.44563298918886e-001

1.29960383416997e+005,-2.35831377460694e+001,-6.53559586307466e-001

1.31774562762811e+005,-2.35831456347461e+001,-6.62681394811070e-001

1.33614067108538e+005,-2.35831537442070e+001,-6.71930474025630e-001

1.35479249978003e+005,-2.35831620806031e+001,-6.81308597863948e-001

1.37370469830040e+005,-2.35831706502549e+001,-6.90817564887976e-001

1.39288090127379e+005,-2.35831794596575e+001,-7.00459198649625e-001

1.41232479406504e+005,-2.35831885154849e+001,-7.10235348034495e-001

1.43204011348474e+005,-2.35831978245952e+001,-7.20147887610749e-001

1.45203064850745e+005,-2.35832073940352e+001,-7.30198717981357e-001

1.47230024099979e+005,-2.35832172310458e+001,-7.40389766145067e-001

1.49285278645888e+005,-2.35832273430672e+001,-7.50722985854819e-001

1.51369223476094e+005,-2.35832377377439e+001,-7.61200357989726e-001

1.53482259092041e+005,-2.35832484229307e+001,-7.71823890925479e-001

1.55624791585964e+005,-2.35832594066981e+001,-7.82595620912115e-001

1.57797232718936e+005,-2.35832706973377e+001,-7.93517612457736e-001

1.59999999999999e+005,-2.35832823033693e+001,-8.04591958713685e-001

1.62233516766403e+005,-2.35832942335452e+001,-8.15820781871719e-001

1.64498212264969e+005,-2.35833064968583e+001,-8.27206233556937e-001

1.66794521734578e+005,-2.35833191025469e+001,-8.38750495235678e-001

1.69122886489819e+005,-2.35833320601026e+001,-8.50455778621389e-001

1.71483754005805e+005,-2.35833453792757e+001,-8.62324326089839e-001

1.73877578004168e+005,-2.35833590700835e+001,-8.74358411098391e-001

1.76304818540256e+005,-2.35833731428161e+001,-8.86560338610812e-001

1.78765942091554e+005,-2.35833876080441e+001,-8.98932445530092e-001

1.81261421647326e+005,-2.35834024766264e+001,-9.11477101130812e-001

1.83791736799524e+005,-2.35834177597173e+001,-9.24196707505642e-001

1.86357373834951e+005,-2.35834334687743e+001,-9.37093700010203e-001

1.88958825828723e+005,-2.35834496155663e+001,-9.50170547718910e-001

1.91596592739027e+005,-2.35834662121817e+001,-9.63429753882283e-001

1.94271181503206e+005,-2.35834832710367e+001,-9.76873856395883e-001

1.96983106135185e+005,-2.35835008048836e+001,-9.90505428270175e-001

1.99732887824256e+005,-2.35835188268202e+001,-1.00432707810844e+000

2.02521055035243e+005,-2.35835373502983e+001,-1.01834145059218e+000

2.05348143610063e+005,-2.35835563891331e+001,-1.03255122697089e+000

2.08214696870707e+005,-2.35835759575123e+001,-1.04695912555892e+000

2.11121265723661e+005,-2.35835960700063e+001,-1.06156790223957e+000

2.14068408765776e+005,-2.35836167415774e+001,-1.07638035097514e+000

2.17056692391625e+005,-2.35836379875906e+001,-1.09139930432194e+000

2.20086690902357e+005,-2.35836598238231e+001,-1.10662763395567e+000

2.23158986616063e+005,-2.35836822664758e+001,-1.12206825119963e+000

2.26274169979693e+005,-2.35837053321832e+001,-1.13772410756276e+000

2.29432839682530e+005,-2.35837290380253e+001,-1.15359819528249e+000

2.32635602771247e+005,-2.35837534015384e+001,-1.16969354787581e+000

2.35883074766574e+005,-2.35837784407266e+001,-1.18601324069862e+000

2.39175879781588e+005,-2.35838041740740e+001,-1.20256039150796e+000

2.42514650641661e+005,-2.35838306205567e+001,-1.21933816103620e+000

2.45900029006080e+005,-2.35838577996549e+001,-1.23634975357031e+000

2.49332665491357e+005,-2.35838857313659e+001,-1.25359841753876e+000

2.52813219796278e+005,-2.35839144362166e+001,-1.27108744610638e+000

2.56342360828676e+005,-2.35839439352773e+001,-1.28882017777563e+000

2.59920766833993e+005,-2.35839742501748e+001,-1.30679999699745e+000

2.63549125525621e+005,-2.35840054031059e+001,-1.32503033478904e+000

2.67228134217075e+005,-2.35840374168523e+001,-1.34351466935757e+000

2.70958499956006e+005,-2.35840703147941e+001,-1.36225652673651e+000

2.74740939660078e+005,-2.35841041209251e+001,-1.38125948142432e+000

2.78576180254757e+005,-2.35841388598675e+001,-1.40052715703679e+000

2.82464958813007e+005,-2.35841745568873e+001,-1.42006322696231e+000

2.86408022696948e+005,-2.35842112379099e+001,-1.43987141503138e+000

2.90406129701488e+005,-2.35842489295360e+001,-1.45995549618817e+000

2.94460048199957e+005,-2.35842876590580e+001,-1.48031929717663e+000

2.98570557291775e+005,-2.35843274544763e+001,-1.50096669723148e+000

3.02738446952187e+005,-2.35843683445166e+001,-1.52190162877894e+000

3.06964518184081e+005,-2.35844103586471e+001,-1.54312807814653e+000

3.11249583171928e+005,-2.35844535270957e+001,-1.56465008628328e+000

3.15594465437872e+005,-2.35844978808684e+001,-1.58647174948596e+000

3.19999999999997e+005,-2.35845434517675e+001,-1.60859722013725e+000

3.24467033532806e+005,-2.35845902724101e+001,-1.63103070745285e+000

3.28996424529938e+005,-2.35846383762472e+001,-1.65377647823680e+000

3.33589043469155e+005,-2.35846877975831e+001,-1.67683885764812e+000

3.38245772979638e+005,-2.35847385715950e+001,-1.70022222997608e+000

3.42967508011610e+005,-2.35847907343534e+001,-1.72393103942624e+000

3.47755156008335e+005,-2.35848443228422e+001,-1.74796979091546e+000

3.52609637080511e+005,-2.35848993749795e+001,-1.77234305087898e+000

3.57531884183106e+005,-2.35849559296393e+001,-1.79705544808508e+000

3.62522843294651e+005,-2.35850140266728e+001,-1.82211167446392e+000

3.67583473599047e+005,-2.35850737069302e+001,-1.84751648594328e+000

3.72714747669902e+005,-2.35851350122833e+001,-1.87327470329867e+000

3.77917651657445e+005,-2.35851979856483e+001,-1.89939121301115e+000

3.83193185478053e+005,-2.35852626710090e+001,-1.92587096813926e+000

3.88542363006410e+005,-2.35853291134401e+001,-1.95271898920043e+000

3.93966212270369e+005,-2.35853973591314e+001,-1.97994036506538e+000

3.99465775648511e+005,-2.35854674554121e+001,-2.00754025386286e+000

4.05042110070485e+005,-2.35855394507758e+001,-2.03552388389740e+000

4.10696287220124e+005,-2.35856133949052e+001,-2.06389655457958e+000

4.16429393741414e+005,-2.35856893386988e+001,-2.09266363736669e+000

4.22242531447321e+005,-2.35857673342955e+001,-2.12183057671967e+000

4.28136817531551e+005,-2.35858474351026e+001,-2.15140289106839e+000

4.34113384783250e+005,-2.35859296958217e+001,-2.18138617379505e+000

4.40173381804713e+005,-2.35860141724768e+001,-2.21178609422575e+000

4.46317973232124e+005,-2.35861009224417e+001,-2.24260839864052e+000

4.52548339959385e+005,-2.35861900044689e+001,-2.27385891129358e+000

4.58865679365059e+005,-2.35862814787179e+001,-2.30554353545035e+000

4.65271205542494e+005,-2.35863754067850e+001,-2.33766825443702e+000

4.71766149533147e+005,-2.35864718517328e+001,-2.37023913270688e+000

4.78351759563174e+005,-2.35865708781207e+001,-2.40326231691924e+000

4.85029301283321e+005,-2.35866725520358e+001,-2.43674403703645e+000

4.91800058012158e+005,-2.35867769411245e+001,-2.47069060743441e+000

4.98665330982714e+005,-2.35868841146240e+001,-2.50510842803106e+000

5.05626439592555e+005,-2.35869941433953e+001,-2.54000398542961e+000

5.12684721657352e+005,-2.35871070999565e+001,-2.57538385407944e+000

5.19841533667984e+005,-2.35872230585160e+001,-2.61125469745493e+000

5.27098251051240e+005,-2.35873420950074e+001,-2.64762326924949e+000

5.34456268434150e+005,-2.35874642871245e+001,-2.68449641459036e+000

5.41916999912011e+005,-2.35875897143571e+001,-2.72188107126957e+000

