Freq.,VOut,OutRef

1.00000000000000e+004,-8.18955421044048e+000,-1.23717972289163e-001

1.01395947979003e+004,-8.18955409870962e+000,-1.25445010897834e-001

1.02811382665607e+004,-8.18955398383765e+000,-1.27196158069515e-001

1.04246576084112e+004,-8.18955386573634e+000,-1.28971750346970e-001

1.05701804056138e+004,-8.18955374431446e+000,-1.30772128973725e-001

1.07177346253629e+004,-8.18955361947916e+000,-1.32597639951690e-001

1.08673486252606e+004,-8.18955349113386e+000,-1.34448634118952e-001

1.10190511587661e+004,-8.18955335918043e+000,-1.36325467204547e-001

1.11728713807222e+004,-8.18955322351718e+000,-1.38228499907968e-001

1.13288388529580e+004,-8.18955308404007e+000,-1.40158097960958e-001

1.14869835499703e+004,-8.18955294064135e+000,-1.42114632205115e-001

1.16473358646846e+004,-8.18955279321133e+000,-1.44098478652612e-001

1.18099266142953e+004,-8.18955264163614e+000,-1.46110018571054e-001

1.19747870461893e+004,-8.18955248579976e+000,-1.48149638543643e-001

1.21419488439505e+004,-8.18955232558199e+000,-1.50217730556299e-001

1.23114441334492e+004,-8.18955216085998e+000,-1.52314692061916e-001

1.24833054890161e+004,-8.18955199150665e+000,-1.54440926066566e-001

1.26575659397028e+004,-8.18955181739223e+000,-1.56596841196554e-001

1.28342589756290e+004,-8.18955163838275e+000,-1.58782851785993e-001

1.30134185544193e+004,-8.18955145434053e+000,-1.60999377952438e-001

1.31950791077289e+004,-8.18955126512391e+000,-1.63246845678918e-001

1.33792755478611e+004,-8.18955107058763e+000,-1.65525686891921e-001

1.35660432744767e+004,-8.18955087058216e+000,-1.67836339549684e-001

1.37554181813974e+004,-8.18955066495349e+000,-1.70179247725022e-001

1.39474366635040e+004,-8.18955045354376e+000,-1.72554861687054e-001

1.41421356237309e+004,-8.18955023619045e+000,-1.74963637991667e-001

1.43395524801583e+004,-8.18955001272617e+000,-1.77406039570047e-001

1.45397251732031e+004,-8.18954978297937e+000,-1.79882535812311e-001

1.47426921729110e+004,-8.18954954677344e+000,-1.82393602662616e-001

1.49484924863494e+004,-8.18954930392658e+000,-1.84939722710015e-001

1.51571656651040e+004,-8.18954905425207e+000,-1.87521385279575e-001

1.53687518128801e+004,-8.18954879755822e+000,-1.90139086525111e-001

1.55832915932100e+004,-8.18954853364756e+000,-1.92793329529084e-001

1.58008262372675e+004,-8.18954826231688e+000,-1.95484624397394e-001

1.60213975517924e+004,-8.18954798335807e+000,-1.98213488352488e-001

1.62450479271247e+004,-8.18954769655626e+000,-2.00980445842198e-001

1.64718203453514e+004,-8.18954740169126e+000,-2.03786028630926e-001

1.67017583885674e+004,-8.18954709853609e+000,-2.06630775910194e-001

1.69349062472505e+004,-8.18954678685771e+000,-2.09515234395974e-001

1.71713087287550e+004,-8.18954646641662e+000,-2.12439958435855e-001

1.74110112659224e+004,-8.18954613696631e+000,-2.15405510117626e-001

1.76540599258131e+004,-8.18954579825371e+000,-2.18412459373054e-001

1.79005014185594e+004,-8.18954545001814e+000,-2.21461384093200e-001

1.81503831063432e+004,-8.18954509199179e+000,-2.24552870234568e-001

1.84037530124975e+004,-8.18954472389964e+000,-2.27687511931699e-001

1.86606598307361e+004,-8.18954434545862e+000,-2.30865911614969e-001

1.89211529345119e+004,-8.18954395637779e+000,-2.34088680123395e-001

1.91852823865052e+004,-8.18954355635787e+000,-2.37356436824614e-001

1.94530989482457e+004,-8.18954314509126e+000,-2.40669809731177e-001

1.97246540898671e+004,-8.18954272226185e+000,-2.44029435622346e-001

1.99999999999999e+004,-8.18954228754468e+000,-2.47435960165208e-001

2.02791895958005e+004,-8.18954184060508e+000,-2.50890038044385e-001

2.05622765331213e+004,-8.18954138109989e+000,-2.54392333077915e-001

2.08493152168224e+004,-8.18954090867548e+000,-2.57943518354965e-001

2.11403608112276e+004,-8.18954042296858e+000,-2.61544276359289e-001

2.14354692507258e+004,-8.18953992360600e+000,-2.65195299099934e-001

2.17346972505211e+004,-8.18953941020358e+000,-2.68897288248743e-001

2.20381023175322e+004,-8.18953888236653e+000,-2.72650955272072e-001

2.23457427614443e+004,-8.18953833968921e+000,-2.76457021565851e-001

2.26576777059159e+004,-8.18953778175411e+000,-2.80316218599445e-001

2.29739670999406e+004,-8.18953720813238e+000,-2.84229288051112e-001

2.32946717293690e+004,-8.18953661838284e+000,-2.88196981953749e-001

2.36198532285905e+004,-8.18953601205220e+000,-2.92220062836671e-001

2.39495740923785e+004,-8.18953538867389e+000,-2.96299303877263e-001

2.42838976879009e+004,-8.18953474776894e+000,-3.00435489041507e-001

2.46228882668982e+004,-8.18953408884436e+000,-3.04629413242527e-001

2.49666109780322e+004,-8.18953341139339e+000,-3.08881882489624e-001

2.53151318794055e+004,-8.18953271489528e+000,-3.13193714042106e-001

2.56685179512580e+004,-8.18953199881445e+000,-3.17565736568901e-001

2.60268371088386e+004,-8.18953126260015e+000,-3.21998790307517e-001

2.63901582154578e+004,-8.18953050568632e+000,-3.26493727223781e-001

2.67585510957221e+004,-8.18952972749091e+000,-3.31051411176927e-001

2.71320865489533e+004,-8.18952892741555e+000,-3.35672718085200e-001

2.75108363627948e+004,-8.18952810484484e+000,-3.40358536095186e-001

2.78948733270080e+004,-8.18952725914650e+000,-3.45109765749564e-001

2.82842712474618e+004,-8.18952638966999e+000,-3.49927320164880e-001

2.86791049603164e+004,-8.18952549574667e+000,-3.54812125202632e-001

2.90794503464061e+004,-8.18952457668924e+000,-3.59765119649410e-001

2.94853843458219e+004,-8.18952363179091e+000,-3.64787255396694e-001

2.98969849726987e+004,-8.18952266032492e+000,-3.69879497625256e-001

3.03143313302078e+004,-8.18952166154434e+000,-3.75042824987413e-001

3.07375036257601e+004,-8.18952063468108e+000,-3.80278229798016e-001

3.11665831864199e+004,-8.18951957894535e+000,-3.85586718225180e-001

3.16016524745350e+004,-8.18951849352520e+000,-3.90969310482079e-001

3.20427951035848e+004,-8.18951737758600e+000,-3.96427041022857e-001

3.24900958542493e+004,-8.18951623026953e+000,-4.01960958743313e-001

3.29436406907028e+004,-8.18951505069333e+000,-4.07572127181454e-001

3.34035167771346e+004,-8.18951383795033e+000,-4.13261624720884e-001

3.38698124945009e+004,-8.18951259110775e+000,-4.19030544800435e-001

3.43426174575100e+004,-8.18951130920670e+000,-4.24879996121928e-001

3.48220225318448e+004,-8.18950999126113e+000,-4.30811102865625e-001

3.53081198516260e+004,-8.18950863625759e+000,-4.36825004902961e-001

3.58010028371187e+004,-8.18950724315382e+000,-4.42922858019118e-001

3.63007662126863e+004,-8.18950581087843e+000,-4.49105834132990e-001

3.68075060249948e+004,-8.18950433832969e+000,-4.55375121523920e-001

3.73213196614721e+004,-8.18950282437496e+000,-4.61731925058785e-001

3.78423058690237e+004,-8.18950126784986e+000,-4.68177466423732e-001

3.83705647730104e+004,-8.18949966755712e+000,-4.74712984359560e-001

3.89061978964912e+004,-8.18949802226581e+000,-4.81339734899924e-001

3.94493081797342e+004,-8.18949633071047e+000,-4.88058991611177e-001

3.99999999999998e+004,-8.18949459158982e+000,-4.94872045840040e-001

4.05583791916010e+004,-8.18949280356609e+000,-5.01780206959067e-001

4.11245530662425e+004,-8.18949096526410e+000,-5.08784802618451e-001

4.16986304336447e+004,-8.18948907526945e+000,-5.15887179004555e-001

4.22807216224550e+004,-8.18948713212844e+000,-5.23088701093957e-001

4.28709385014515e+004,-8.18948513434623e+000,-5.30390752918826e-001

4.34693945010421e+004,-8.18948308038594e+000,-5.37794737831900e-001

4.40762046350642e+004,-8.18948096866745e+000,-5.45302078776988e-001

4.46914855228886e+004,-8.18947879756622e+000,-5.52914218561344e-001

4.53153554118317e+004,-8.18947656541200e+000,-5.60632620133165e-001

4.59479341998812e+004,-8.18947427048733e+000,-5.68458766864966e-001

4.65893434587380e+004,-8.18947191102681e+000,-5.76394162834282e-001

4.72397064571810e+004,-8.18946948521490e+000,-5.84440333117795e-001

4.78991481847569e+004,-8.18946699118538e+000,-5.92598824080381e-001

4.85677953758016e+004,-8.18946442701925e+000,-6.00871203674369e-001

4.92457765337964e+004,-8.18946179074365e+000,-6.09259061740308e-001

4.99332219560642e+004,-8.18945908032986e+000,-6.17764010314640e-001

5.06302637588109e+004,-8.18945629369262e+000,-6.26387683934414e-001

5.13370359025159e+004,-8.18945342868755e+000,-6.35131739956850e-001

5.20536742176771e+004,-8.18945048310993e+000,-6.43997858875832e-001

5.27803164309155e+004,-8.18944745469304e+000,-6.52987744644392e-001

5.35171021914442e+004,-8.18944434110665e+000,-6.62103125001293e-001

5.42641730979066e+004,-8.18944113995434e+000,-6.71345751807184e-001

5.50216727255895e+004,-8.18943784877265e+000,-6.80717401376988e-001

5.57897466540159e+004,-8.18943446502870e+000,-6.90219874822606e-001

5.65685424949235e+004,-8.18943098611820e+000,-6.99854998400654e-001

5.73582099206328e+004,-8.18942740936348e+000,-7.09624623862394e-001

5.81589006928121e+004,-8.18942373201174e+000,-7.19530628808106e-001

5.89707686916437e+004,-8.18941995123236e+000,-7.29574917050982e-001

5.97939699453972e+004,-8.18941606411520e+000,-7.39759418981347e-001

6.06286626604156e+004,-8.18941206766811e+000,-7.50086091937247e-001

6.14750072515201e+004,-8.18940795881458e+000,-7.60556920582555e-001

6.23331663728396e+004,-8.18940373439160e+000,-7.71173917286594e-001

6.32033049490698e+004,-8.18939939114701e+000,-7.81939122511821e-001

6.40855902071694e+004,-8.18939492573706e+000,-7.92854605205808e-001

6.49801917084985e+004,-8.18939033472377e+000,-8.03922463199475e-001

6.58872813814055e+004,-8.18938561457234e+000,-8.15144823609647e-001

6.68070335542691e+004,-8.18938076164839e+000,-8.26523843248566e-001

6.77396249890018e+004,-8.18937577221514e+000,-8.38061709037848e-001

6.86852349150199e+004,-8.18937064243040e+000,-8.49760638430172e-001

6.96440450636895e+004,-8.18936536834406e+000,-8.61622879832687e-001

7.06162397032520e+004,-8.18935994589439e+000,-8.73650713042832e-001

7.16020056742374e+004,-8.18935437090529e+000,-8.85846449684315e-001

7.26015324253724e+004,-8.18934863908289e+000,-8.98212433652932e-001

7.36150120499896e+004,-8.18934274601250e+000,-9.10751041564849e-001

7.46426393229441e+004,-8.18933668715489e+000,-9.23464683215629e-001

7.56846117380472e+004,-8.18933045784283e+000,-9.36355802043373e-001

7.67411295460207e+004,-8.18932405327754e+000,-9.49426875597558e-001

7.78123957929823e+004,-8.18931746852495e+000,-9.62680416015974e-001

7.88986163594682e+004,-8.18931069851200e+000,-9.76118970506613e-001

7.99999999999995e+004,-8.18930373802240e+000,-9.89745121839491e-001

8.11167583832018e+004,-8.18929658169290e+000,-1.00356148884081e+000

8.22491061324848e+004,-8.18928922400898e+000,-1.01757072689804e+000

8.33972608672892e+004,-8.18928165930046e+000,-1.03177552847051e+000

8.45614432449099e+004,-8.18927388173740e+000,-1.04617862360576e+000

8.57418770029029e+004,-8.18926588532532e+000,-1.06078278046572e+000

8.69387890020841e+004,-8.18925766390072e+000,-1.07559080585770e+000

8.81524092701283e+004,-8.18924921112600e+000,-1.09060554577642e+000

8.93829710457770e+004,-8.18924052048498e+000,-1.10582988594771e+000

9.06307108236633e+004,-8.18923158527746e+000,-1.12126675238665e+000

9.18958683997622e+004,-8.18922239861413e+000,-1.13691911195868e+000

9.31786869174758e+004,-8.18921295341129e+000,-1.15278997294989e+000

9.44794129143618e+004,-8.18920324238517e+000,-1.16888238564669e+000

9.57982963695136e+004,-8.18919325804666e+000,-1.18519944291990e+000

9.71355907516031e+004,-8.18918299269482e+000,-1.20174428082296e+000

9.84915530675926e+004,-8.18917243841149e+000,-1.21852007919261e+000

9.98664439121282e+004,-8.18916158705483e+000,-1.23553006226055e+000

1.01260527517622e+005,-8.18915043025303e+000,-1.25277749927471e+000

1.02674071805032e+005,-8.18913895939775e+000,-1.27026570512699e+000

1.04107348435354e+005,-8.18912716563753e+000,-1.28799804099111e+000

1.05560632861831e+005,-8.18911503987086e+000,-1.30597791496820e+000

1.07034204382888e+005,-8.18910257273877e+000,-1.32420878274503e+000

1.08528346195813e+005,-8.18908975461809e+000,-1.34269414825481e+000

1.10043345451179e+005,-8.18907657561341e+000,-1.36143756435424e+000

1.11579493308032e+005,-8.18906302554957e+000,-1.38044263350613e+000

1.13137084989847e+005,-8.18904909396391e+000,-1.39971300847054e+000

1.14716419841265e+005,-8.18903477009763e+000,-1.41925239301066e+000

1.16317801385624e+005,-8.18902004288775e+000,-1.43906454260280e+000

1.17941537383287e+005,-8.18900490095833e+000,-1.45915326515977e+000

1.19587939890794e+005,-8.18898933261150e+000,-1.47952242176401e+000

1.21257325320831e+005,-8.18897332581836e+000,-1.50017592740919e+000

1.22950014503040e+005,-8.18895686820971e+000,-1.52111775175446e+000

1.24666332745679e+005,-8.18893994706594e+000,-1.54235191988834e+000

1.26406609898139e+005,-8.18892254930747e+000,-1.56388251310260e+000

1.28171180414339e+005,-8.18890466148427e+000,-1.58571366967818e+000

1.29960383416997e+005,-8.18888626976525e+000,-1.60784958568185e+000

1.31774562762811e+005,-8.18886735992778e+000,-1.63029451577200e+000

1.33614067108538e+005,-8.18884791734580e+000,-1.65305277402069e+000

1.35479249978003e+005,-8.18882792697907e+000,-1.67612873474096e+000

1.37370469830040e+005,-8.18880737336082e+000,-1.69952683333058e+000

1.39288090127379e+005,-8.18878624058565e+000,-1.72325156712613e+000

1.41232479406504e+005,-8.18876451229741e+000,-1.74730749626654e+000

1.43204011348474e+005,-8.18874217167561e+000,-1.77169924457451e+000

1.45203064850745e+005,-8.18871920142272e+000,-1.79643150044406e+000

1.47230024099979e+005,-8.18869558375021e+000,-1.82150901774461e+000

1.49285278645888e+005,-8.18867130036468e+000,-1.84693661673618e+000

1.51369223476094e+005,-8.18864633245317e+000,-1.87271918499805e+000

1.53482259092041e+005,-8.18862066066856e+000,-1.89886167836953e+000

1.55624791585964e+005,-8.18859426511393e+000,-1.92536912190594e+000

1.57797232718936e+005,-8.18856712532714e+000,-1.95224661084506e+000

1.59999999999999e+005,-8.18853922026427e+000,-1.97949931159014e+000

1.62233516766403e+005,-8.18851052828314e+000,-2.00713246270529e+000

1.64498212264969e+005,-8.18848102712611e+000,-2.03515137592394e+000

1.66794521734578e+005,-8.18845069390222e+000,-2.06356143717496e+000

1.69122886489819e+005,-8.18841950506916e+000,-2.09236810761819e+000

1.71483754005805e+005,-8.18838743641449e+000,-2.12157692469946e+000

1.73877578004168e+005,-8.18835446303626e+000,-2.15119350321754e+000

1.76304818540256e+005,-8.18832055932328e+000,-2.18122353640631e+000

1.78765942091554e+005,-8.18828569893456e+000,-2.21167279703441e+000

1.81261421647326e+005,-8.18824985477835e+000,-2.24254713851784e+000

1.83791736799524e+005,-8.18821299899040e+000,-2.27385249604954e+000

1.86357373834951e+005,-8.18817510291173e+000,-2.30559488774492e+000

1.88958825828723e+005,-8.18813613706560e+000,-2.33778041580385e+000

1.91596592739027e+005,-8.18809607113401e+000,-2.37041526768768e+000

1.94271181503206e+005,-8.18805487393319e+000,-2.40350571731506e+000

1.96983106135185e+005,-8.18801251338865e+000,-2.43705812627351e+000

1.99732887824256e+005,-8.18796895650934e+000,-2.47107894504780e+000

2.02521055035243e+005,-8.18792416936117e+000,-2.50557471426698e+000

2.05348143610063e+005,-8.18787811703948e+000,-2.54055206596882e+000

2.08214696870707e+005,-8.18783076364113e+000,-2.57601772488090e+000

2.11121265723661e+005,-8.18778207223527e+000,-2.61197850972193e+000

2.14068408765776e+005,-8.18773200483361e+000,-2.64844133452086e+000

2.17056692391625e+005,-8.18768052235970e+000,-2.68541320995373e+000

2.20086690902357e+005,-8.18762758461716e+000,-2.72290124470175e+000

2.23158986616063e+005,-8.18757315025709e+000,-2.76091264682736e+000

2.26274169979693e+005,-8.18751717674453e+000,-2.79945472517026e+000

2.29432839682530e+005,-8.18745962032383e+000,-2.83853489076354e+000

2.32635602771247e+005,-8.18740043598320e+000,-2.87816065826977e+000

2.35883074766574e+005,-8.18733957741773e+000,-2.91833964743947e+000

2.39175879781588e+005,-8.18727699699173e+000,-2.95907958458817e+000

2.42514650641661e+005,-8.18721264569997e+000,-3.00038830409599e+000

2.45900029006080e+005,-8.18714647312730e+000,-3.04227374992974e+000

2.49332665491357e+005,-8.18707842740757e+000,-3.08474397718496e+000

2.52813219796278e+005,-8.18700845518112e+000,-3.12780715365183e+000

2.56342360828676e+005,-8.18693650155074e+000,-3.17147156140451e+000

2.59920766833993e+005,-8.18686251003660e+000,-3.21574559841159e+000

2.63549125525621e+005,-8.18678642253012e+000,-3.26063778017019e+000

2.67228134217075e+005,-8.18670817924543e+000,-3.30615674136756e+000

2.70958499956006e+005,-8.18662771867059e+000,-3.35231123756114e+000

2.74740939660078e+005,-8.18654497751644e+000,-3.39911014688837e+000

2.78576180254757e+005,-8.18645989066425e+000,-3.44656247179896e+000

2.82464958813007e+005,-8.18637239111193e+000,-3.49467734081313e+000

2.86408022696948e+005,-8.18628240991828e+000,-3.54346401030690e+000

2.90406129701488e+005,-8.18618987614572e+000,-3.59293186632202e+000

2.94460048199957e+005,-8.18609471680140e+000,-3.64309042640450e+000

2.98570557291775e+005,-8.18599685677617e+000,-3.69394934146965e+000

3.02738446952187e+005,-8.18589621878222e+000,-3.74551839769489e+000

3.06964518184081e+005,-8.18579272328827e+000,-3.79780751844151e+000

3.11249583171928e+005,-8.18568628845322e+000,-3.85082676620491e+000

3.15594465437872e+005,-8.18557683005746e+000,-3.90458634459464e+000

3.19999999999997e+005,-8.18546426143257e+000,-3.95909660034273e+000

3.24467033532806e+005,-8.18534849338813e+000,-4.01436802534622e+000

3.28996424529938e+005,-8.18522943413703e+000,-4.07041125873651e+000

3.33589043469155e+005,-8.18510698921822e+000,-4.12723708898314e+000

3.38245772979638e+005,-8.18498106141701e+000,-4.18485645602887e+000

3.42967508011610e+005,-8.18485155068310e+000,-4.24328045345829e+000

3.47755156008335e+005,-8.18471835404596e+000,-4.30252033069950e+000

3.52609637080511e+005,-8.18458136552804e+000,-4.36258749525926e+000

3.57531884183106e+005,-8.18444047605468e+000,-4.42349351499524e+000

3.62522843294651e+005,-8.18429557336197e+000,-4.48525012042167e+000

3.67583473599047e+005,-8.18414654190134e+000,-4.54786920705249e+000

3.72714747669902e+005,-8.18399326274145e+000,-4.61136283778189e+000

3.77917651657445e+005,-8.18383561346707e+000,-4.67574324530128e+000

3.83193185478053e+005,-8.18367346807502e+000,-4.74102283455658e+000

3.88542363006410e+005,-8.18350669686674e+000,-4.80721418524402e+000

3.93966212270369e+005,-8.18333516633771e+000,-4.87433005434668e+000

3.99465775648511e+005,-8.18315873906359e+000,-4.94238337871280e+000

4.05042110070485e+005,-8.18297727358303e+000,-5.01138727767431e+000

4.10696287220124e+005,-8.18279062427651e+000,-5.08135505571125e+000

4.16429393741414e+005,-8.18259864124218e+000,-5.15230020515804e+000

4.22242531447321e+005,-8.18240117016748e+000,-5.22423640895543e+000

4.28136817531551e+005,-8.18219805219700e+000,-5.29717754344962e+000

4.34113384783250e+005,-8.18198912379669e+000,-5.37113768123672e+000

4.40173381804713e+005,-8.18177421661369e+000,-5.44613109405742e+000

4.46317973232124e+005,-8.18155315733212e+000,-5.52217225573895e+000

4.52548339959385e+005,-8.18132576752464e+000,-5.59927584519024e+000

4.58865679365059e+005,-8.18109186349954e+000,-5.67745674944647e+000

4.65271205542494e+005,-8.18085125614340e+000,-5.75673006676838e+000

4.71766149533147e+005,-8.18060375075906e+000,-5.83711110979553e+000

4.78351759563174e+005,-8.18034914689896e+000,-5.91861540875479e+000

4.85029301283321e+005,-8.18008723819329e+000,-6.00125871472754e+000

4.91800058012158e+005,-8.17981781217377e+000,-6.08505700297309e+000

4.98665330982714e+005,-8.17954065009159e+000,-6.17002647631491e+000

5.05626439592555e+005,-8.17925552673067e+000,-6.25618356858687e+000

5.12684721657352e+005,-8.17896221021531e+000,-6.34354494814282e+000

5.19841533667984e+005,-8.17866046181225e+000,-6.43212752143213e+000

5.27098251051240e+005,-8.17835003572749e+000,-6.52194843664093e+000

5.34456268434150e+005,-8.17803067889695e+000,-6.61302508740181e+000

5.41916999912011e+005,-8.17770213077131e+000,-6.70537511657511e+000

