Freq.,VOut,OutRef

1.00000000000000e+004,-3.36146704843897e+000,-6.90948528803879e-003

1.01395947979003e+004,-3.36146707671211e+000,-7.00593690586662e-003

1.02811382665607e+004,-3.36146710577951e+000,-7.10373489052651e-003

1.04246576084112e+004,-3.36146713566436e+000,-7.20289802913291e-003

1.05701804056138e+004,-3.36146716638909e+000,-7.30344537974653e-003

1.07177346253629e+004,-3.36146719797774e+000,-7.40539625974351e-003

1.08673486252606e+004,-3.36146723045419e+000,-7.50877026224635e-003

1.10190511587661e+004,-3.36146726384350e+000,-7.61358724986451e-003

1.11728713807222e+004,-3.36146729817158e+000,-7.71986736158330e-003

1.13288388529580e+004,-3.36146733346518e+000,-7.82763101700036e-003

1.14869835499703e+004,-3.36146736975032e+000,-7.93689892959835e-003

1.16473358646846e+004,-3.36146740705481e+000,-8.04769209564355e-003

1.18099266142953e+004,-3.36146744540892e+000,-8.16003179307357e-003

1.19747870461893e+004,-3.36146748484102e+000,-8.27393961495680e-003

1.21419488439505e+004,-3.36146752538169e+000,-8.38943744613632e-003

1.23114441334492e+004,-3.36146756706140e+000,-8.50654748310116e-003

1.24833054890161e+004,-3.36146760991332e+000,-8.62529222045967e-003

1.26575659397028e+004,-3.36146765396985e+000,-8.74569447702054e-003

1.28342589756290e+004,-3.36146769926426e+000,-8.86777739131867e-003

1.30134185544193e+004,-3.36146774583270e+000,-8.99156441069228e-003

1.31950791077289e+004,-3.36146779370947e+000,-9.11707932953985e-003

1.33792755478611e+004,-3.36146784293228e+000,-9.24434625761255e-003

1.35660432744767e+004,-3.36146789353882e+000,-9.37338964813340e-003

1.37554181813974e+004,-3.36146794556797e+000,-9.50423429462860e-003

1.39474366635040e+004,-3.36146799905948e+000,-9.63690533817448e-003

1.41421356237309e+004,-3.36146805405449e+000,-9.77142826861493e-003

1.43395524801583e+004,-3.36146811059561e+000,-9.90782892936517e-003

1.45397251732031e+004,-3.36146816872559e+000,-1.00461335313642e-002

1.47426921729110e+004,-3.36146822848995e+000,-1.01863686408629e-002

1.49484924863494e+004,-3.36146828993407e+000,-1.03285612037869e-002

1.51571656651040e+004,-3.36146835310533e+000,-1.04727385375790e-002

1.53687518128801e+004,-3.36146841805204e+000,-1.06189283429977e-002

1.55832915932100e+004,-3.36146848482499e+000,-1.07671587003344e-002

1.58008262372675e+004,-3.36146855347395e+000,-1.09174580969504e-002

1.60213975517924e+004,-3.36146862405331e+000,-1.10698553969226e-002

1.62450479271247e+004,-3.36146869661633e+000,-1.12243798841159e-002

1.64718203453514e+004,-3.36146877121834e+000,-1.13810612471538e-002

1.67017583885674e+004,-3.36146884791764e+000,-1.15399295796001e-002

1.69349062472505e+004,-3.36146892677328e+000,-1.17010154002931e-002

1.71713087287550e+004,-3.36146900784431e+000,-1.18643496644522e-002

1.74110112659224e+004,-3.36146909119464e+000,-1.20299637386353e-002

1.76540599258131e+004,-3.36146917688749e+000,-1.21978894424535e-002

1.79005014185594e+004,-3.36146926498926e+000,-1.23681590303342e-002

1.81503831063432e+004,-3.36146935556706e+000,-1.25408052141953e-002

1.84037530124975e+004,-3.36146944869065e+000,-1.27158611571253e-002

1.86606598307361e+004,-3.36146954443104e+000,-1.28933604886523e-002

1.89211529345119e+004,-3.36146964286315e+000,-1.30733372954724e-002

1.91852823865052e+004,-3.36146974406148e+000,-1.32558261559713e-002

1.94530989482457e+004,-3.36146984810367e+000,-1.34408621230182e-002

1.97246540898671e+004,-3.36146995507066e+000,-1.36284807320926e-002

1.99999999999999e+004,-3.36147006504328e+000,-1.38187180285675e-002

2.02791895958005e+004,-3.36147017810696e+000,-1.40116105460628e-002

2.05622765331213e+004,-3.36147029434848e+000,-1.42071953335725e-002

2.08493152168224e+004,-3.36147041385674e+000,-1.44055099589428e-002

2.11403608112276e+004,-3.36147053672323e+000,-1.46065925132901e-002

2.14354692507258e+004,-3.36147066304299e+000,-1.48104816123078e-002

2.17346972505211e+004,-3.36147079291293e+000,-1.50172164145466e-002

2.20381023175322e+004,-3.36147092643245e+000,-1.52268366268190e-002

2.23457427614443e+004,-3.36147106370399e+000,-1.54393825067193e-002

2.26576777059159e+004,-3.36147120483386e+000,-1.56548948671975e-002

2.29739670999406e+004,-3.36147134992906e+000,-1.58734151045471e-002

2.32946717293690e+004,-3.36147149910216e+000,-1.60949851754261e-002

2.36198532285905e+004,-3.36147165246725e+000,-1.63196476314946e-002

2.39495740923785e+004,-3.36147181014173e+000,-1.65474456173466e-002

2.42838976879009e+004,-3.36147197224742e+000,-1.67784228705326e-002

2.46228882668982e+004,-3.36147213890814e+000,-1.70126237476568e-002

2.49666109780322e+004,-3.36147231025198e+000,-1.72500932186123e-002

2.53151318794055e+004,-3.36147248641061e+000,-1.74908768788582e-002

2.56685179512580e+004,-3.36147266751913e+000,-1.77350209617370e-002

2.60268371088386e+004,-3.36147285371648e+000,-1.79825723435483e-002

2.63901582154578e+004,-3.36147304514562e+000,-1.82335785533269e-002

2.67585510957221e+004,-3.36147324195382e+000,-1.84880877795764e-002

2.71320865489533e+004,-3.36147344429135e+000,-1.87461488896794e-002

2.75108363627948e+004,-3.36147365231468e+000,-1.90078114183579e-002

2.78948733270080e+004,-3.36147386618205e+000,-1.92731256078835e-002

2.82842712474618e+004,-3.36147408605896e+000,-1.95421423808969e-002

2.86791049603164e+004,-3.36147431211309e+000,-1.98149133854129e-002

2.90794503464061e+004,-3.36147454451799e+000,-2.00914909807842e-002

2.94853843458219e+004,-3.36147478345260e+000,-2.03719282522842e-002

2.98969849726987e+004,-3.36147502910000e+000,-2.06562790296713e-002

3.03143313302078e+004,-3.36147528164832e+000,-2.09445978919874e-002

3.07375036257601e+004,-3.36147554129107e+000,-2.12369401782985e-002

3.11665831864199e+004,-3.36147580822790e+000,-2.15333619919230e-002

3.16016524745350e+004,-3.36147608266392e+000,-2.18339202189622e-002

3.20427951035848e+004,-3.36147636480879e+000,-2.21386725439060e-002

3.24900958542493e+004,-3.36147665487909e+000,-2.24476774477082e-002

3.29436406907028e+004,-3.36147695309767e+000,-2.27609942231687e-002

3.34035167771346e+004,-3.36147725969335e+000,-2.30786829899761e-002

3.38698124945009e+004,-3.36147757490036e+000,-2.34008047102295e-002

3.43426174575100e+004,-3.36147789896081e+000,-2.37274211856400e-002

3.48220225318448e+004,-3.36147823212305e+000,-2.40585950806028e-002

3.53081198516260e+004,-3.36147857464269e+000,-2.43943899294527e-002

3.58010028371187e+004,-3.36147892678216e+000,-2.47348701513278e-002

3.63007662126863e+004,-3.36147928881154e+000,-2.50801010591381e-002

3.68075060249948e+004,-3.36147966100802e+000,-2.54301488770348e-002

3.73213196614721e+004,-3.36148004365684e+000,-2.57850807472144e-002

3.78423058690237e+004,-3.36148043705080e+000,-2.61449647480290e-002

3.83705647730104e+004,-3.36148084149261e+000,-2.65098698927074e-002

3.89061978964912e+004,-3.36148125729059e+000,-2.68798661713065e-002

3.94493081797342e+004,-3.36148168476426e+000,-2.72550245302067e-002

3.99999999999998e+004,-3.36148212424064e+000,-2.76354169099469e-002

4.05583791916010e+004,-3.36148257605647e+000,-2.80211162467418e-002

4.11245530662425e+004,-3.36148304055778e+000,-2.84121964905642e-002

4.16986304336447e+004,-3.36148351809999e+000,-2.88087326193991e-002

4.22807216224550e+004,-3.36148400904886e+000,-2.92108006499125e-002

4.28709385014515e+004,-3.36148451377985e+000,-2.96184776571684e-002

4.34693945010421e+004,-3.36148503268006e+000,-3.00318417782881e-002

4.40762046350642e+004,-3.36148556614650e+000,-3.04509722402098e-002

4.46914855228886e+004,-3.36148611458659e+000,-3.08759493739082e-002

4.53153554118317e+004,-3.36148667842093e+000,-3.13068546121530e-002

4.59479341998812e+004,-3.36148725808043e+000,-3.17437705270813e-002

4.65893434587380e+004,-3.36148785400838e+000,-3.21867808330773e-002

4.72397064571810e+004,-3.36148846666073e+000,-3.26359704026836e-002

4.78991481847569e+004,-3.36148909650630e+000,-3.30914252847978e-002

4.85677953758016e+004,-3.36148974402605e+000,-3.35532327259538e-002

4.92457765337964e+004,-3.36149040971561e+000,-3.40214811738966e-002

4.99332219560642e+004,-3.36149109408318e+000,-3.44962603091138e-002

5.06302637588109e+004,-3.36149179765268e+000,-3.49776610444480e-002

5.13370359025159e+004,-3.36149252096081e+000,-3.54657755626210e-002

5.20536742176771e+004,-3.36149326456066e+000,-3.59606973138155e-002

5.27803164309155e+004,-3.36149402902001e+000,-3.64625210453846e-002

5.35171021914442e+004,-3.36149481492326e+000,-3.69713428110564e-002

5.42641730979066e+004,-3.36149562286981e+000,-3.74872600005946e-002

5.50216727255895e+004,-3.36149645347677e+000,-3.80103713445748e-002

5.57897466540159e+004,-3.36149730737789e+000,-3.85407769417306e-002

5.65685424949235e+004,-3.36149818522546e+000,-3.90785782680226e-002

5.73582099206328e+004,-3.36149908768859e+000,-3.96238782105979e-002

5.81589006928121e+004,-3.36150001545589e+000,-4.01767810716741e-002

5.89707686916437e+004,-3.36150096923499e+000,-4.07373925950365e-002

5.97939699453972e+004,-3.36150194975337e+000,-4.13058199822256e-002

6.06286626604156e+004,-3.36150295775799e+000,-4.18821719195379e-002

6.14750072515201e+004,-3.36150399401731e+000,-4.24665585878058e-002

6.23331663728396e+004,-3.36150505932080e+000,-4.30590916892294e-002

6.32033049490698e+004,-3.36150615447999e+000,-4.36598844652506e-002

6.40855902071694e+004,-3.36150728032912e+000,-4.42690517167424e-002

6.49801917084985e+004,-3.36150843772486e+000,-4.48867098305352e-002

6.58872813814055e+004,-3.36150962754875e+000,-4.55129767893863e-002

6.68070335542691e+004,-3.36151085070549e+000,-4.61479722083329e-002

6.77396249890018e+004,-3.36151210812590e+000,-4.67918173413553e-002

6.86852349150199e+004,-3.36151340076619e+000,-4.74446351132858e-002

6.96440450636895e+004,-3.36151472960886e+000,-4.81065501404640e-002

7.06162397032520e+004,-3.36151609566452e+000,-4.87776887452881e-002

7.16020056742374e+004,-3.36151749997001e+000,-4.94581789972039e-002

7.26015324253724e+004,-3.36151894359267e+000,-5.01481507123943e-002

7.36150120499896e+004,-3.36152042762822e+000,-5.08477354959442e-002

7.46426393229441e+004,-3.36152195320308e+000,-5.15570667551877e-002

7.56846117380472e+004,-3.36152352147464e+000,-5.22762797287484e-002

7.67411295460207e+004,-3.36152513363247e+000,-5.30055115058633e-002

7.78123957929823e+004,-3.36152679089869e+000,-5.37449010559318e-002

7.88986163594682e+004,-3.36152849452902e+000,-5.44945892516239e-002

7.99999999999995e+004,-3.36153024581449e+000,-5.52547188887208e-002

8.11167583832018e+004,-3.36153204608046e+000,-5.60254347229685e-002

8.22491061324848e+004,-3.36153389669047e+000,-5.68068834784531e-002

8.33972608672892e+004,-3.36153579904382e+000,-5.75992138945101e-002

8.45614432449099e+004,-3.36153775457917e+000,-5.84025767349081e-002

8.57418770029029e+004,-3.36153976477500e+000,-5.92171248184061e-002

8.69387890020841e+004,-3.36154183114990e+000,-6.00430130504412e-002

8.81524092701283e+004,-3.36154395526407e+000,-6.08803984478376e-002

8.93829710457770e+004,-3.36154613872081e+000,-6.17294401620153e-002

9.06307108236633e+004,-3.36154838316736e+000,-6.25902995110785e-002

9.18958683997622e+004,-3.36155069029542e+000,-6.34631400097334e-002

9.31786869174758e+004,-3.36155306184398e+000,-6.43481273881226e-002

9.44794129143618e+004,-3.36155549959886e+000,-6.52454296305180e-002

9.57982963695136e+004,-3.36155800539511e+000,-6.61552169976971e-002

9.71355907516031e+004,-3.36156058111744e+000,-6.70776620602516e-002

9.84915530675926e+004,-3.36156322870195e+000,-6.80129397262702e-002

9.98664439121282e+004,-3.36156595013841e+000,-6.89612272651534e-002

1.01260527517622e+005,-3.36156874746942e+000,-6.99227043505232e-002

1.02674071805032e+005,-3.36157162279407e+000,-7.08975530780395e-002

1.04107348435354e+005,-3.36157457826853e+000,-7.18859580000465e-002

1.05560632861831e+005,-3.36157761610649e+000,-7.28881061637901e-002

1.07034204382888e+005,-3.36158073858320e+000,-7.39041871256519e-002

1.08528346195813e+005,-3.36158394803423e+000,-7.49343930019842e-002

1.10043345451179e+005,-3.36158724685897e+000,-7.59789184869447e-002

1.11579493308032e+005,-3.36159063752163e+000,-7.70379608898821e-002

1.13137084989847e+005,-3.36159412255302e+000,-7.81117201657054e-002

1.14716419841265e+005,-3.36159770455195e+000,-7.92003989502557e-002

1.16317801385624e+005,-3.36160138618757e+000,-8.03042025896691e-002

1.17941537383287e+005,-3.36160517020055e+000,-8.14233391762823e-002

1.19587939890794e+005,-3.36160905940564e+000,-8.25580195780622e-002

1.21257325320831e+005,-3.36161305669281e+000,-8.37084574770268e-002

1.22950014503040e+005,-3.36161716502918e+000,-8.48748694026590e-002

1.24666332745679e+005,-3.36162138746179e+000,-8.60574747610385e-002

1.26406609898139e+005,-3.36162572711916e+000,-8.72564958720399e-002

1.28171180414339e+005,-3.36163018721296e+000,-8.84721580068831e-002

1.29960383416997e+005,-3.36163477104070e+000,-8.97046894178493e-002

1.31774562762811e+005,-3.36163948198736e+000,-9.09543213785659e-002

1.33614067108538e+005,-3.36164432352817e+000,-9.22212882138711e-002

1.35479249978003e+005,-3.36164929923042e+000,-9.35058273390521e-002

1.37370469830040e+005,-3.36165441275534e+000,-9.48081792976637e-002

1.39288090127379e+005,-3.36165966786181e+000,-9.61285877890940e-002

1.41232479406504e+005,-3.36166506840713e+000,-9.74672997147279e-002

1.43204011348474e+005,-3.36167061835051e+000,-9.88245652077368e-002

1.45203064850745e+005,-3.36167632175507e+000,-1.00200637672069e-001

1.47230024099979e+005,-3.36168218279071e+000,-1.01595773817867e-001

1.49285278645888e+005,-3.36168820573640e+000,-1.03010233699389e-001

1.51369223476094e+005,-3.36169439498269e+000,-1.04444280753368e-001

1.53482259092041e+005,-3.36170075503434e+000,-1.05898181835900e-001

1.55624791585964e+005,-3.36170729051411e+000,-1.07372207253518e-001

1.57797232718936e+005,-3.36171400616375e+000,-1.08866630811197e-001

1.59999999999999e+005,-3.36172090684832e+000,-1.10381729841413e-001

1.62233516766403e+005,-3.36172799755824e+000,-1.11917785245968e-001

1.64498212264969e+005,-3.36173528341261e+000,-1.13475081532344e-001

1.66794521734578e+005,-3.36174276966190e+000,-1.15053906851550e-001

1.69122886489819e+005,-3.36175046169099e+000,-1.16654553038071e-001

1.71483754005805e+005,-3.36175836502241e+000,-1.18277315644741e-001

1.73877578004168e+005,-3.36176648531957e+000,-1.19922493980758e-001

1.76304818540256e+005,-3.36177482838942e+000,-1.21590391152912e-001

1.78765942091554e+005,-3.36178340018612e+000,-1.23281314100176e-001

1.81261421647326e+005,-3.36179220681371e+000,-1.24995573635718e-001

1.83791736799524e+005,-3.36180125453041e+000,-1.26733484477849e-001

1.86357373834951e+005,-3.36181054975080e+000,-1.28495365295923e-001

1.88958825828723e+005,-3.36182009905013e+000,-1.30281538741113e-001

1.91596592739027e+005,-3.36182990916701e+000,-1.32092331489907e-001

1.94271181503206e+005,-3.36183998700764e+000,-1.33928074275446e-001

1.96983106135185e+005,-3.36185033964808e+000,-1.35789101933848e-001

1.99732887824256e+005,-3.36186097433935e+000,-1.37675753430196e-001

2.02521055035243e+005,-3.36187189850968e+000,-1.39588371905326e-001

2.05348143610063e+005,-3.36188311976891e+000,-1.41527304705839e-001

2.08214696870707e+005,-3.36189464591155e+000,-1.43492903425486e-001

2.11121265723661e+005,-3.36190648492092e+000,-1.45485523937917e-001

2.14068408765776e+005,-3.36191864497192e+000,-1.47505526437825e-001

2.17056692391625e+005,-3.36193113443619e+000,-1.49553275467937e-001

2.20086690902357e+005,-3.36194396188444e+000,-1.51629139963277e-001

2.23158986616063e+005,-3.36195713609068e+000,-1.53733493281801e-001

2.26274169979693e+005,-3.36197066603582e+000,-1.55866713240404e-001

2.29432839682530e+005,-3.36198456091180e+000,-1.58029182146718e-001

2.32635602771247e+005,-3.36199883012475e+000,-1.60221286835768e-001

2.35883074766574e+005,-3.36201348329874e+000,-1.62443418703256e-001

2.39175879781588e+005,-3.36202853027977e+000,-1.64695973736197e-001

2.42514650641661e+005,-3.36204398113902e+000,-1.66979352548167e-001

2.45900029006080e+005,-3.36205984617716e+000,-1.69293960406400e-001

2.49332665491357e+005,-3.36207613592735e+000,-1.71640207266734e-001

2.52813219796278e+005,-3.36209286115837e+000,-1.74018507807270e-001

2.56342360828676e+005,-3.36211003287955e+000,-1.76429281448876e-001

2.59920766833993e+005,-3.36212766234298e+000,-1.78872952392238e-001

2.63549125525621e+005,-3.36214576104735e+000,-1.81349949643680e-001

2.67228134217075e+005,-3.36216434074119e+000,-1.83860707043607e-001

2.70958499956006e+005,-3.36218341342621e+000,-1.86405663292349e-001

2.74740939660078e+005,-3.36220299136025e+000,-1.88985261978502e-001

2.78576180254757e+005,-3.36222308706034e+000,-1.91599951602568e-001

2.82464958813007e+005,-3.36224371330606e+000,-1.94250185601080e-001

2.86408022696948e+005,-3.36226488314153e+000,-1.96936422373000e-001

2.90406129701488e+005,-3.36228660987853e+000,-1.99659125301708e-001

2.94460048199957e+005,-3.36230890709905e+000,-2.02418762775187e-001

2.98570557291775e+005,-3.36233178865756e+000,-2.05215808208282e-001

3.02738446952187e+005,-3.36235526868281e+000,-2.08050740065057e-001

3.06964518184081e+005,-3.36237936158036e+000,-2.10924041873677e-001

3.11249583171928e+005,-3.36240408203380e+000,-2.13836202248670e-001

3.15594465437872e+005,-3.36242944500659e+000,-2.16787714906112e-001

3.19999999999997e+005,-3.36245546574299e+000,-2.19779078681802e-001

3.24467033532806e+005,-3.36248215976931e+000,-2.22810797544576e-001

3.28996424529938e+005,-3.36250954289483e+000,-2.25883380611123e-001

3.33589043469155e+005,-3.36253763121154e+000,-2.28997342161858e-001

3.38245772979638e+005,-3.36256644109472e+000,-2.32153201651405e-001

3.42967508011610e+005,-3.36259598920290e+000,-2.35351483718514e-001

3.47755156008335e+005,-3.36262629247632e+000,-2.38592718202219e-001

3.52609637080511e+005,-3.36265736813721e+000,-2.41877440144506e-001

3.57531884183106e+005,-3.36268923368689e+000,-2.45206189808535e-001

3.62522843294651e+005,-3.36272190690541e+000,-2.48579512675448e-001

3.67583473599047e+005,-3.36275540584811e+000,-2.51997959461218e-001

3.72714747669902e+005,-3.36278974884338e+000,-2.55462086118820e-001

3.77917651657445e+005,-3.36282495448924e+000,-2.58972453844890e-001

3.83193185478053e+005,-3.36286104164904e+000,-2.62529629088171e-001

3.88542363006410e+005,-3.36289802944813e+000,-2.66134183547129e-001

3.93966212270369e+005,-3.36293593726757e+000,-2.69786694183228e-001

3.99465775648511e+005,-3.36297478473951e+000,-2.73487743218626e-001

4.05042110070485e+005,-3.36301459174027e+000,-2.77237918143233e-001

4.10696287220124e+005,-3.36305537838380e+000,-2.81037811716832e-001

4.16429393741414e+005,-3.36309716501358e+000,-2.84888021975452e-001

4.22242531447321e+005,-3.36313997219479e+000,-2.88789152231580e-001

4.28136817531551e+005,-3.36318382070441e+000,-2.92741811082892e-001

4.34113384783250e+005,-3.36322873152182e+000,-2.96746612413224e-001

4.40173381804713e+005,-3.36327472581774e+000,-3.00804175400090e-001

4.46317973232124e+005,-3.36332182494260e+000,-3.04915124520490e-001

4.52548339959385e+005,-3.36337005041377e+000,-3.09080089558757e-001

4.58865679365059e+005,-3.36341942390219e+000,-3.13299705615042e-001

4.65271205542494e+005,-3.36346996721804e+000,-3.17574613115080e-001

4.71766149533147e+005,-3.36352170229495e+000,-3.21905457823344e-001

4.78351759563174e+005,-3.36357465117370e+000,-3.26292890856381e-001

4.85029301283321e+005,-3.36362883598480e+000,-3.30737568698936e-001

4.91800058012158e+005,-3.36368427892941e+000,-3.35240153226013e-001

4.98665330982714e+005,-3.36374100226040e+000,-3.39801311720105e-001

5.05626439592555e+005,-3.36379902826063e+000,-3.44421716902412e-001

5.12684721657352e+005,-3.36385837922154e+000,-3.49102046958271e-001

5.19841533667984e+005,-3.36391907741986e+000,-3.53842985572179e-001

5.27098251051240e+005,-3.36398114509277e+000,-3.58645221967132e-001

5.34456268434150e+005,-3.36404460441314e+000,-3.63509450944365e-001

5.41916999912011e+005,-3.36410947746177e+000,-3.68436372936084e-001

