Freq.,VOut,OutRef

1.00000000000000e+004,-1.34935197052954e+001,-7.06069140537126e-002

1.01395947979003e+004,-1.34935198305787e+001,-7.15925447621952e-002

1.02811382665607e+004,-1.34935199593839e+001,-7.25919341466864e-002

1.04246576084112e+004,-1.34935200918100e+001,-7.36052742620156e-002

1.05701804056138e+004,-1.34935202279587e+001,-7.46327598444424e-002

1.07177346253629e+004,-1.34935203679348e+001,-7.56745883460437e-002

1.08673486252606e+004,-1.34935205118459e+001,-7.67309599764261e-002

1.10190511587661e+004,-1.34935206598026e+001,-7.78020777390710e-002

1.11728713807222e+004,-1.34935208119183e+001,-7.88881474728221e-002

1.13288388529580e+004,-1.34935209683102e+001,-7.99893778868613e-002

1.14869835499703e+004,-1.34935211290985e+001,-8.11059806026448e-002

1.16473358646846e+004,-1.34935212944067e+001,-8.22381701977055e-002

1.18099266142953e+004,-1.34935214643619e+001,-8.33861642430973e-002

1.19747870461893e+004,-1.34935216390944e+001,-8.45501833490312e-002

1.21419488439505e+004,-1.34935218187391e+001,-8.57304511991824e-002

1.23114441334492e+004,-1.34935220034337e+001,-8.69271946038119e-002

1.24833054890161e+004,-1.34935221933201e+001,-8.81406435377406e-002

1.26575659397028e+004,-1.34935223885439e+001,-8.93710311872515e-002

1.28342589756290e+004,-1.34935225892560e+001,-9.06185939861526e-002

1.30134185544193e+004,-1.34935227956100e+001,-9.18835716758535e-002

1.31950791077289e+004,-1.34935230077646e+001,-9.31662073399966e-002

1.33792755478611e+004,-1.34935232258832e+001,-9.44667474535526e-002

1.35660432744767e+004,-1.34935234501326e+001,-9.57854419376101e-002

1.37554181813974e+004,-1.34935236806860e+001,-9.71225441920283e-002

1.39474366635040e+004,-1.34935239177197e+001,-9.84783111620409e-002

1.41421356237309e+004,-1.34935241614168e+001,-9.98530033698298e-002

1.43395524801583e+004,-1.34935244119639e+001,-1.01246884981316e-001

1.45397251732031e+004,-1.34935246695537e+001,-1.02660223844725e-001

1.47426921729110e+004,-1.34935249343842e+001,-1.04093291547226e-001

1.49484924863494e+004,-1.34935252066589e+001,-1.05546363465543e-001

1.51571656651040e+004,-1.34935254865869e+001,-1.07019718821666e-001

1.53687518128801e+004,-1.34935257743833e+001,-1.08513640730983e-001

1.55832915932100e+004,-1.34935260702692e+001,-1.10028416262617e-001

1.58008262372675e+004,-1.34935263744723e+001,-1.11564336487625e-001

1.60213975517924e+004,-1.34935266872258e+001,-1.13121696545580e-001

1.62450479271247e+004,-1.34935270087704e+001,-1.14700795687320e-001

1.64718203453514e+004,-1.34935273393529e+001,-1.16301937345658e-001

1.67017583885674e+004,-1.34935276792275e+001,-1.17925429182739e-001

1.69349062472505e+004,-1.34935280286550e+001,-1.19571583157849e-001

1.71713087287550e+004,-1.34935283879042e+001,-1.21240715581279e-001

1.74110112659224e+004,-1.34935287572509e+001,-1.22933147176861e-001

1.76540599258131e+004,-1.34935291369791e+001,-1.24649203144422e-001

1.79005014185594e+004,-1.34935295273802e+001,-1.26389213222602e-001

1.81503831063432e+004,-1.34935299287541e+001,-1.28153511749946e-001

1.84037530124975e+004,-1.34935303414094e+001,-1.29942437729075e-001

1.86606598307361e+004,-1.34935307656630e+001,-1.31756334894317e-001

1.89211529345119e+004,-1.34935312018408e+001,-1.33595551776023e-001

1.91852823865052e+004,-1.34935316502777e+001,-1.35460441767559e-001

1.94530989482457e+004,-1.34935321113184e+001,-1.37351363190988e-001

1.97246540898671e+004,-1.34935325853170e+001,-1.39268679370909e-001

1.99999999999999e+004,-1.34935330726373e+001,-1.41212758700272e-001

2.02791895958005e+004,-1.34935335736537e+001,-1.43183974710521e-001

2.05622765331213e+004,-1.34935340887514e+001,-1.45182706144247e-001

2.08493152168224e+004,-1.34935346183255e+001,-1.47209337031489e-001

2.11403608112276e+004,-1.34935351627831e+001,-1.49264256755343e-001

2.14354692507258e+004,-1.34935357225420e+001,-1.51347860135856e-001

2.17346972505211e+004,-1.34935362980324e+001,-1.53460547497447e-001

2.20381023175322e+004,-1.34935368896960e+001,-1.55602724751923e-001

2.23457427614443e+004,-1.34935374979873e+001,-1.57774803472317e-001

2.26576777059159e+004,-1.34935381233733e+001,-1.59977200973166e-001

2.29739670999406e+004,-1.34935387663345e+001,-1.62210340390432e-001

2.32946717293690e+004,-1.34935394273643e+001,-1.64474650764615e-001

2.36198532285905e+004,-1.34935401069703e+001,-1.66770567118469e-001

2.39495740923785e+004,-1.34935408056744e+001,-1.69098530544510e-001

2.42838976879009e+004,-1.34935415240131e+001,-1.71458988287090e-001

2.46228882668982e+004,-1.34935422625377e+001,-1.73852393830080e-001

2.49666109780322e+004,-1.34935430218153e+001,-1.76279206981436e-001

2.53151318794055e+004,-1.34935438024288e+001,-1.78739893963278e-001

2.56685179512580e+004,-1.34935446049775e+001,-1.81234927498675e-001

2.60268371088386e+004,-1.34935454300773e+001,-1.83764786906951e-001

2.63901582154578e+004,-1.34935462783617e+001,-1.86329958190481e-001

2.67585510957221e+004,-1.34935471504817e+001,-1.88930934128753e-001

2.71320865489533e+004,-1.34935480471068e+001,-1.91568214375670e-001

2.75108363627948e+004,-1.34935489689250e+001,-1.94242305552186e-001

2.78948733270080e+004,-1.34935499166437e+001,-1.96953721345584e-001

2.82842712474618e+004,-1.34935508909906e+001,-1.99702982602764e-001

2.86791049603164e+004,-1.34935518927128e+001,-2.02490617438837e-001

2.90794503464061e+004,-1.34935529225796e+001,-2.05317161328473e-001

2.94853843458219e+004,-1.34935539813808e+001,-2.08183157215923e-001

2.98969849726987e+004,-1.34935550699288e+001,-2.11089155614950e-001

3.03143313302078e+004,-1.34935561890591e+001,-2.14035714713464e-001

3.07375036257601e+004,-1.34935573396297e+001,-2.17023400485525e-001

3.11665831864199e+004,-1.34935585225237e+001,-2.20052786792234e-001

3.16016524745350e+004,-1.34935597386485e+001,-2.23124455496132e-001

3.20427951035848e+004,-1.34935609889364e+001,-2.26238996573814e-001

3.24900958542493e+004,-1.34935622743469e+001,-2.29397008222987e-001

3.29436406907028e+004,-1.34935635958657e+001,-2.32599096981678e-001

3.34035167771346e+004,-1.34935649545061e+001,-2.35845877843027e-001

3.38698124945009e+004,-1.34935663513101e+001,-2.39137974372220e-001

3.43426174575100e+004,-1.34935677873487e+001,-2.42476018824712e-001

3.48220225318448e+004,-1.34935692637228e+001,-2.45860652270135e-001

3.53081198516260e+004,-1.34935707815645e+001,-2.49292524711147e-001

3.58010028371187e+004,-1.34935723420374e+001,-2.52772295207785e-001

3.63007662126863e+004,-1.34935739463375e+001,-2.56300632008302e-001

3.68075060249948e+004,-1.34935755956945e+001,-2.59878212669818e-001

3.73213196614721e+004,-1.34935772913725e+001,-2.63505724192239e-001

3.78423058690237e+004,-1.34935790346712e+001,-2.67183863146311e-001

3.83705647730104e+004,-1.34935808269262e+001,-2.70913335809829e-001

3.89061978964912e+004,-1.34935826695109e+001,-2.74694858299669e-001

3.94493081797342e+004,-1.34935845638369e+001,-2.78529156709282e-001

3.99999999999998e+004,-1.34935865113554e+001,-2.82416967247413e-001

4.05583791916010e+004,-1.34935885135581e+001,-2.86359036378002e-001

4.11245530662425e+004,-1.34935905719789e+001,-2.90356120960257e-001

4.16986304336447e+004,-1.34935926881937e+001,-2.94408988399526e-001

4.22807216224550e+004,-1.34935948638234e+001,-2.98518416784235e-001

4.28709385014515e+004,-1.34935971005336e+001,-3.02685195041985e-001

4.34693945010421e+004,-1.34935994000367e+001,-3.06910123085547e-001

4.40762046350642e+004,-1.34936017640929e+001,-3.11194011965568e-001

4.46914855228886e+004,-1.34936041945119e+001,-3.15537684024599e-001

4.53153554118317e+004,-1.34936066931533e+001,-3.19941973057060e-001

4.59479341998812e+004,-1.34936092619295e+001,-3.24407724461856e-001

4.65893434587380e+004,-1.34936119028056e+001,-3.28935795407992e-001

4.72397064571810e+004,-1.34936146178021e+001,-3.33527054994177e-001

4.78991481847569e+004,-1.34936174089953e+001,-3.38182384418404e-001

4.85677953758016e+004,-1.34936202785204e+001,-3.42902677137886e-001

4.92457765337964e+004,-1.34936232285713e+001,-3.47688839046237e-001

4.99332219560642e+004,-1.34936262614036e+001,-3.52541788641679e-001

5.06302637588109e+004,-1.34936293793357e+001,-3.57462457200873e-001

5.13370359025159e+004,-1.34936325847508e+001,-3.62451788956803e-001

5.20536742176771e+004,-1.34936358800985e+001,-3.67510741277668e-001

5.27803164309155e+004,-1.34936392678964e+001,-3.72640284848360e-001

5.35171021914442e+004,-1.34936427507329e+001,-3.77841403852637e-001

5.42641730979066e+004,-1.34936463312680e+001,-3.83115096163184e-001

5.50216727255895e+004,-1.34936500122360e+001,-3.88462373526142e-001

5.57897466540159e+004,-1.34936537964475e+001,-3.93884261754620e-001

5.65685424949235e+004,-1.34936576867912e+001,-3.99381800923678e-001

5.73582099206328e+004,-1.34936616862363e+001,-4.04956045565240e-001

5.81589006928121e+004,-1.34936657978346e+001,-4.10608064867336e-001

5.89707686916437e+004,-1.34936700247230e+001,-4.16338942876617e-001

5.97939699453972e+004,-1.34936743701254e+001,-4.22149778704562e-001

6.06286626604156e+004,-1.34936788373554e+001,-4.28041686731846e-001

6.14750072515201e+004,-1.34936834298190e+001,-4.34015796818385e-001

6.23331663728396e+004,-1.34936881510164e+001,-4.40073254520795e-001

6.32033049490698e+004,-1.34936930045455e+001,-4.46215221302054e-001

6.40855902071694e+004,-1.34936979941040e+001,-4.52442874754648e-001

6.49801917084985e+004,-1.34937031234920e+001,-4.58757408820940e-001

6.58872813814055e+004,-1.34937083966154e+001,-4.65160034015639e-001

6.68070335542691e+004,-1.34937138174883e+001,-4.71651977656077e-001

6.77396249890018e+004,-1.34937193902362e+001,-4.78234484091054e-001

6.86852349150199e+004,-1.34937251190990e+001,-4.84908814935062e-001

6.96440450636895e+004,-1.34937310084341e+001,-4.91676249304479e-001

7.06162397032520e+004,-1.34937370627193e+001,-4.98538084057513e-001

7.16020056742374e+004,-1.34937432865570e+001,-5.05495634036799e-001

7.26015324253724e+004,-1.34937496846763e+001,-5.12550232316202e-001

7.36150120499896e+004,-1.34937562619376e+001,-5.19703230449170e-001

7.46426393229441e+004,-1.34937630233358e+001,-5.26955998720972e-001

7.56846117380472e+004,-1.34937699740033e+001,-5.34309926407370e-001

7.67411295460207e+004,-1.34937771192147e+001,-5.41766422030259e-001

7.78123957929823e+004,-1.34937844643903e+001,-5.49326913621624e-001

7.88986163594682e+004,-1.34937920150999e+001,-5.56992848990536e-001

7.99999999999995e+004,-1.34937997770668e+001,-5.64765695991012e-001

8.11167583832018e+004,-1.34938077561722e+001,-5.72646942796318e-001

8.22491061324848e+004,-1.34938159584593e+001,-5.80638098174235e-001

8.33972608672892e+004,-1.34938243901380e+001,-5.88740691767768e-001

8.45614432449099e+004,-1.34938330575886e+001,-5.96956274378779e-001

8.57418770029029e+004,-1.34938419673674e+001,-6.05286418254907e-001

8.69387890020841e+004,-1.34938511262107e+001,-6.13732717380390e-001

8.81524092701283e+004,-1.34938605410397e+001,-6.22296787771572e-001

8.93829710457770e+004,-1.34938702189660e+001,-6.30980267773752e-001

9.06307108236633e+004,-1.34938801672958e+001,-6.39784818365541e-001

9.18958683997622e+004,-1.34938903935360e+001,-6.48712123462943e-001

9.31786869174758e+004,-1.34939009053990e+001,-6.57763890229541e-001

9.44794129143618e+004,-1.34939117108084e+001,-6.66941849391378e-001

9.57982963695136e+004,-1.34939228179044e+001,-6.76247755553851e-001

9.71355907516031e+004,-1.34939342350499e+001,-6.85683387522758e-001

9.84915530675926e+004,-1.34939459708361e+001,-6.95250548631434e-001

9.98664439121282e+004,-1.34939580340884e+001,-7.04951067070244e-001

1.01260527517622e+005,-1.34939704338732e+001,-7.14786796219179e-001

1.02674071805032e+005,-1.34939831795038e+001,-7.24759614986903e-001

1.04107348435354e+005,-1.34939962805467e+001,-7.34871428152671e-001

1.05560632861831e+005,-1.34940097468288e+001,-7.45124166712924e-001

1.07034204382888e+005,-1.34940235884439e+001,-7.55519788231493e-001

1.08528346195813e+005,-1.34940378157598e+001,-7.66060277193633e-001

1.10043345451179e+005,-1.34940524394250e+001,-7.76747645367321e-001

1.11579493308032e+005,-1.34940674703768e+001,-7.87583932165202e-001

1.13137084989847e+005,-1.34940829198482e+001,-7.98571205012535e-001

1.14716419841265e+005,-1.34940987993759e+001,-8.09711559718903e-001

1.16317801385624e+005,-1.34941151208079e+001,-8.21007120856675e-001

1.17941537383287e+005,-1.34941318963114e+001,-8.32460042140860e-001

1.19587939890794e+005,-1.34941491383817e+001,-8.44072506815238e-001

1.21257325320831e+005,-1.34941668598498e+001,-8.55846728041906e-001

1.22950014503040e+005,-1.34941850738915e+001,-8.67784949297378e-001

1.24666332745679e+005,-1.34942037940359e+001,-8.79889444770573e-001

1.26406609898139e+005,-1.34942230341749e+001,-8.92162519767570e-001

1.28171180414339e+005,-1.34942428085714e+001,-9.04606511121060e-001

1.29960383416997e+005,-1.34942631318700e+001,-9.17223787601010e-001

1.31774562762811e+005,-1.34942840191052e+001,-9.30016750336928e-001

1.33614067108538e+005,-1.34943054857124e+001,-9.42987833236660e-001

1.35479249978003e+005,-1.34943275475373e+001,-9.56139503415724e-001

1.37370469830040e+005,-1.34943502208462e+001,-9.69474261630799e-001

1.39288090127379e+005,-1.34943735223366e+001,-9.82994642714047e-001

1.41232479406504e+005,-1.34943974691475e+001,-9.96703216018884e-001

1.43204011348474e+005,-1.34944220788709e+001,-1.01060258586253e+000

1.45203064850745e+005,-1.34944473695623e+001,-1.02469539198183e+000

1.47230024099979e+005,-1.34944733597524e+001,-1.03898430998776e+000

1.49285278645888e+005,-1.34945000684585e+001,-1.05347205182683e+000

1.51369223476094e+005,-1.34945275151964e+001,-1.06816136624770e+000

1.53482259092041e+005,-1.34945557199920e+001,-1.08305503927468e+000

1.55624791585964e+005,-1.34945847033943e+001,-1.09815589468106e+000

1.57797232718936e+005,-1.34946144864871e+001,-1.11346679447221e+000

1.59999999999999e+005,-1.34946450909023e+001,-1.12899063937155e+000

1.62233516766403e+005,-1.34946765388324e+001,-1.14473036931193e+000

1.64498212264969e+005,-1.34947088530437e+001,-1.16068896393304e+000

1.66794521734578e+005,-1.34947420568900e+001,-1.17686944307961e+000

1.69122886489819e+005,-1.34947761743259e+001,-1.19327486731177e+000

1.71483754005805e+005,-1.34948112299208e+001,-1.20990833841303e+000

1.73877578004168e+005,-1.34948472488727e+001,-1.22677299990926e+000

1.76304818540256e+005,-1.34948842570230e+001,-1.24387203758807e+000

1.78765942091554e+005,-1.34949222808707e+001,-1.26120868002645e+000

1.81261421647326e+005,-1.34949613475868e+001,-1.27878619912159e+000

1.83791736799524e+005,-1.34950014850299e+001,-1.29660791062739e+000

1.86357373834951e+005,-1.34950427217608e+001,-1.31467717469628e+000

1.88958825828723e+005,-1.34950850870583e+001,-1.33299739642449e+000

1.91596592739027e+005,-1.34951286109343e+001,-1.35157202640471e+000

1.94271181503206e+005,-1.34951733241498e+001,-1.37040456128231e+000

1.96983106135185e+005,-1.34952192582310e+001,-1.38949854431460e+000

1.99732887824256e+005,-1.34952664454850e+001,-1.40885756594024e+000

2.02521055035243e+005,-1.34953149190161e+001,-1.42848526434770e+000

2.05348143610063e+005,-1.34953647127428e+001,-1.44838532605270e+000

2.08214696870707e+005,-1.34954158614138e+001,-1.46856148647840e+000

2.11121265723661e+005,-1.34954684006248e+001,-1.48901753054167e+000

2.14068408765776e+005,-1.34955223668356e+001,-1.50975729324298e+000

2.17056692391625e+005,-1.34955777973869e+001,-1.53078466026311e+000

2.20086690902357e+005,-1.34956347305173e+001,-1.55210356856160e+000

2.23158986616063e+005,-1.34956932053807e+001,-1.57371800698330e+000

2.26274169979693e+005,-1.34957532620629e+001,-1.59563201686733e+000

2.29432839682530e+005,-1.34958149415998e+001,-1.61784969266120e+000

2.32635602771247e+005,-1.34958782859938e+001,-1.64037518254044e+000

2.35883074766574e+005,-1.34959433382316e+001,-1.66321268903231e+000

2.39175879781588e+005,-1.34960101423011e+001,-1.68636646964410e+000

2.42514650641661e+005,-1.34960787432091e+001,-1.70984083749646e+000

2.45900029006080e+005,-1.34961491869979e+001,-1.73364016196004e+000

2.49332665491357e+005,-1.34962215207630e+001,-1.75776886929877e+000

2.52813219796278e+005,-1.34962957926694e+001,-1.78223144331649e+000

2.56342360828676e+005,-1.34963720519690e+001,-1.80703242600674e+000

2.59920766833993e+005,-1.34964503490167e+001,-1.83217641821087e+000

2.63549125525621e+005,-1.34965307352871e+001,-1.85766808027616e+000

2.67228134217075e+005,-1.34966132633905e+001,-1.88351213272185e+000

2.70958499956006e+005,-1.34966979870887e+001,-1.90971335690774e+000

2.74740939660078e+005,-1.34967849613108e+001,-1.93627659570821e+000

2.78576180254757e+005,-1.34968742421679e+001,-1.96320675418989e+000

2.82464958813007e+005,-1.34969658869678e+001,-1.99050880029499e+000

2.86408022696948e+005,-1.34970599542299e+001,-2.01818776552754e+000

2.90406129701488e+005,-1.34971565036976e+001,-2.04624874564655e+000

2.94460048199957e+005,-1.34972555963528e+001,-2.07469690136056e+000

2.98570557291775e+005,-1.34973572944272e+001,-2.10353745903001e+000

3.02738446952187e+005,-1.34974616614151e+001,-2.13277571137115e+000

3.06964518184081e+005,-1.34975687620833e+001,-2.16241701816802e+000

3.11249583171928e+005,-1.34976786624824e+001,-2.19246680698627e+000

3.15594465437872e+005,-1.34977914299552e+001,-2.22293057389367e+000

3.19999999999997e+005,-1.34979071331454e+001,-2.25381388418492e+000

3.24467033532806e+005,-1.34980258420052e+001,-2.28512237311163e+000

3.28996424529938e+005,-1.34981476278008e+001,-2.31686174661744e+000

3.33589043469155e+005,-1.34982725631180e+001,-2.34903778207900e+000

3.38245772979638e+005,-1.34984007218658e+001,-2.38165632905244e+000

3.42967508011610e+005,-1.34985321792785e+001,-2.41472331002538e+000

3.47755156008335e+005,-1.34986670119169e+001,-2.44824472117400e+000

3.52609637080511e+005,-1.34988052976675e+001,-2.48222663312959e+000

3.57531884183106e+005,-1.34989471157406e+001,-2.51667519174729e+000

3.62522843294651e+005,-1.34990925466660e+001,-2.55159661888483e+000

3.67583473599047e+005,-1.34992416722868e+001,-2.58699721318824e+000

3.72714747669902e+005,-1.34993945757528e+001,-2.62288335088273e+000

3.77917651657445e+005,-1.34995513415096e+001,-2.65926148657405e+000

3.83193185478053e+005,-1.34997120552872e+001,-2.69613815405778e+000

3.88542363006410e+005,-1.34998768040855e+001,-2.73351996713634e+000

3.93966212270369e+005,-1.35000456761579e+001,-2.77141362044643e+000

3.99465775648511e+005,-1.35002187609923e+001,-2.80982589029655e+000

4.05042110070485e+005,-1.35003961492892e+001,-2.84876363551396e+000

4.10696287220124e+005,-1.35005779329370e+001,-2.88823379830486e+000

4.16429393741414e+005,-1.35007642049852e+001,-2.92824340512411e+000

4.22242531447321e+005,-1.35009550596139e+001,-2.96879956756033e+000

4.28136817531551e+005,-1.35011505921002e+001,-3.00990948323187e+000

4.34113384783250e+005,-1.35013508987817e+001,-3.05158043670003e+000

4.40173381804713e+005,-1.35015560770165e+001,-3.09381980039500e+000

4.46317973232124e+005,-1.35017662251395e+001,-3.13663503556088e+000

4.52548339959385e+005,-1.35019814424155e+001,-3.18003369321521e+000

4.58865679365059e+005,-1.35022018289881e+001,-3.22402341513061e+000

4.65271205542494e+005,-1.35024274858252e+001,-3.26861193483265e+000

4.71766149533147e+005,-1.35026585146598e+001,-3.31380707862198e+000

4.78351759563174e+005,-1.35028950179275e+001,-3.35961676661793e+000

4.85029301283321e+005,-1.35031370986994e+001,-3.40604901382441e+000

4.91800058012158e+005,-1.35033848606104e+001,-3.45311193122437e+000

4.98665330982714e+005,-1.35036384077836e+001,-3.50081372689857e+000

5.05626439592555e+005,-1.35038978447495e+001,-3.54916270717505e+000

5.12684721657352e+005,-1.35041632763613e+001,-3.59816727780841e+000

5.19841533667984e+005,-1.35044348077046e+001,-3.64783594519136e+000

5.27098251051240e+005,-1.35047125440031e+001,-3.69817731760128e+000

5.34456268434150e+005,-1.35049965905190e+001,-3.74920010648175e+000

5.41916999912011e+005,-1.35052870524482e+001,-3.80091312776478e+000

