Freq.,VOut,OutRef

1.00000000000000e+004,-2.52584356721083e+001,-4.53847680289112e-001

1.01395947979003e+004,-2.52584385584630e+001,-4.60183095312063e-001

1.02811382665607e+004,-2.52584415259621e+001,-4.66606946778505e-001

1.04246576084112e+004,-2.52584445768867e+001,-4.73120469103451e-001

1.05701804056138e+004,-2.52584477135819e+001,-4.79724913927805e-001

1.07177346253629e+004,-2.52584509384591e+001,-4.86421550359194e-001

1.08673486252606e+004,-2.52584542539972e+001,-4.93211665217310e-001

1.10190511587661e+004,-2.52584576627449e+001,-5.00096563279330e-001

1.11728713807222e+004,-2.52584611673226e+001,-5.07077567530297e-001

1.13288388529580e+004,-2.52584647704242e+001,-5.14156019418592e-001

1.14869835499703e+004,-2.52584684748194e+001,-5.21333279111098e-001

1.16473358646846e+004,-2.52584722833557e+001,-5.28610725756446e-001

1.18099266142953e+004,-2.52584761989608e+001,-5.35989757748712e-001

1.19747870461893e+004,-2.52584802246445e+001,-5.43471792995830e-001

1.21419488439505e+004,-2.52584843635013e+001,-5.51058269191666e-001

1.23114441334492e+004,-2.52584886187129e+001,-5.58750644090741e-001

1.24833054890161e+004,-2.52584929935500e+001,-5.66550395791690e-001

1.26575659397028e+004,-2.52584974913756e+001,-5.74459023016450e-001

1.28342589756290e+004,-2.52585021156470e+001,-5.82478045400297e-001

1.30134185544193e+004,-2.52585068699188e+001,-5.90609003783437e-001

1.31950791077289e+004,-2.52585117578454e+001,-5.98853460505540e-001

1.33792755478611e+004,-2.52585167831842e+001,-6.07212999706016e-001

1.35660432744767e+004,-2.52585219497980e+001,-6.15689227627874e-001

1.37554181813974e+004,-2.52585272616580e+001,-6.24283772926562e-001

1.39474366635040e+004,-2.52585327228475e+001,-6.32998286981040e-001

1.41421356237309e+004,-2.52585383375640e+001,-6.41834444211450e-001

1.43395524801583e+004,-2.52585441101237e+001,-6.50793942399401e-001

1.45397251732031e+004,-2.52585500449633e+001,-6.59878503015518e-001

1.47426921729110e+004,-2.52585561466449e+001,-6.69089871546710e-001

1.49484924863494e+004,-2.52585624198584e+001,-6.78429817834104e-001

1.51571656651040e+004,-2.52585688694257e+001,-6.87900136409273e-001

1.53687518128801e+004,-2.52585755003042e+001,-6.97502646841306e-001

1.55832915932100e+004,-2.52585823175906e+001,-7.07239194082210e-001

1.58008262372675e+004,-2.52585893265250e+001,-7.17111648824557e-001

1.60213975517924e+004,-2.52585965324946e+001,-7.27121907856789e-001

1.62450479271247e+004,-2.52586039410380e+001,-7.37271894428947e-001

1.64718203453514e+004,-2.52586115578497e+001,-7.47563558620332e-001

1.67017583885674e+004,-2.52586193887840e+001,-7.57998877713636e-001

1.69349062472505e+004,-2.52586274398599e+001,-7.68579856572878e-001

1.71713087287550e+004,-2.52586357172655e+001,-7.79308528029629e-001

1.74110112659224e+004,-2.52586442273628e+001,-7.90186953270860e-001

1.76540599258131e+004,-2.52586529766927e+001,-8.01217222233557e-001

1.79005014185594e+004,-2.52586619719799e+001,-8.12401454006788e-001

1.81503831063432e+004,-2.52586712201380e+001,-8.23741797237147e-001

1.84037530124975e+004,-2.52586807282749e+001,-8.35240430538872e-001

1.86606598307361e+004,-2.52586905036984e+001,-8.46899562913396e-001

1.89211529345119e+004,-2.52587005539217e+001,-8.58721434169733e-001

1.91852823865052e+004,-2.52587108866689e+001,-8.70708315356415e-001

1.94530989482457e+004,-2.52587215098814e+001,-8.82862509193409e-001

1.97246540898671e+004,-2.52587324317238e+001,-8.95186350515675e-001

1.99999999999999e+004,-2.52587436605899e+001,-9.07682206718026e-001

2.02791895958005e+004,-2.52587552051096e+001,-9.20352478209443e-001

2.05622765331213e+004,-2.52587670741553e+001,-9.33199598871473e-001

2.08493152168224e+004,-2.52587792768486e+001,-9.46226036526446e-001

2.11403608112276e+004,-2.52587918225677e+001,-9.59434293405379e-001

2.14354692507258e+004,-2.52588047209540e+001,-9.72826906631365e-001

2.17346972505211e+004,-2.52588179819201e+001,-9.86406448701668e-001

2.20381023175322e+004,-2.52588316156569e+001,-1.00017552798218e+000

2.23457427614443e+004,-2.52588456326419e+001,-1.01413678920319e+000

2.26576777059159e+004,-2.52588600436470e+001,-1.02829291396819e+000

2.29739670999406e+004,-2.52588748597465e+001,-1.04264662126542e+000

2.32946717293690e+004,-2.52588900923261e+001,-1.05720066798749e+000

2.36198532285905e+004,-2.52589057530916e+001,-1.07195784945735e+000

2.39495740923785e+004,-2.52589218540773e+001,-1.08692099996541e+000

2.42838976879009e+004,-2.52589384076560e+001,-1.10209299330778e+000

2.46228882668982e+004,-2.52589554265479e+001,-1.11747674333755e+000

2.49666109780322e+004,-2.52589729238307e+001,-1.13307520452066e+000

2.53151318794055e+004,-2.52589909129494e+001,-1.14889137249993e+000

2.56685179512580e+004,-2.52590094077269e+001,-1.16492828466783e+000

2.60268371088386e+004,-2.52590284223745e+001,-1.18118902074491e+000

2.63901582154578e+004,-2.52590479715026e+001,-1.19767670336947e+000

2.67585510957221e+004,-2.52590680701322e+001,-1.21439449869243e+000

2.71320865489533e+004,-2.52590887337061e+001,-1.23134561698161e+000

2.75108363627948e+004,-2.52591099781011e+001,-1.24853331323411e+000

2.78948733270080e+004,-2.52591318196400e+001,-1.26596088779759e+000

2.82842712474618e+004,-2.52591542751042e+001,-1.28363168699874e+000

2.86791049603164e+004,-2.52591773617463e+001,-1.30154910378208e+000

2.90794503464061e+004,-2.52592010973036e+001,-1.31971657835651e+000

2.94853843458219e+004,-2.52592255000119e+001,-1.33813759885040e+000

2.98969849726987e+004,-2.52592505886188e+001,-1.35681570197653e+000

3.03143313302078e+004,-2.52592763823988e+001,-1.37575447370535e+000

3.07375036257601e+004,-2.52593029011678e+001,-1.39495754994870e+000

3.11665831864199e+004,-2.52593301652979e+001,-1.41442861725097e+000

3.16016524745350e+004,-2.52593581957339e+001,-1.43417141349054e+000

3.20427951035848e+004,-2.52593870140084e+001,-1.45418972859278e+000

3.24900958542493e+004,-2.52594166422590e+001,-1.47448740524849e+000

3.29436406907028e+004,-2.52594471032448e+001,-1.49506833964678e+000

3.34035167771346e+004,-2.52594784203644e+001,-1.51593648221370e+000

3.38698124945009e+004,-2.52595106176730e+001,-1.53709583836455e+000

3.43426174575100e+004,-2.52595437199017e+001,-1.55855046926427e+000

3.48220225318448e+004,-2.52595777524759e+001,-1.58030449259913e+000

3.53081198516260e+004,-2.52596127415348e+001,-1.60236208335721e+000

3.58010028371187e+004,-2.52596487139518e+001,-1.62472747462278e+000

3.63007662126863e+004,-2.52596856973548e+001,-1.64740495837704e+000

3.68075060249948e+004,-2.52597237201471e+001,-1.67039888631447e+000

3.73213196614721e+004,-2.52597628115298e+001,-1.69371367066596e+000

3.78423058690237e+004,-2.52598030015236e+001,-1.71735378503610e+000

3.83705647730104e+004,-2.52598443209920e+001,-1.74132376525011e+000

3.89061978964912e+004,-2.52598868016650e+001,-1.76562821021307e+000

3.94493081797342e+004,-2.52599304761632e+001,-1.79027178277996e+000

3.99999999999998e+004,-2.52599753780228e+001,-1.81525921063782e+000

4.05583791916010e+004,-2.52600215417214e+001,-1.84059528720025e+000

4.11245530662425e+004,-2.52600690027041e+001,-1.86628487251398e+000

4.16986304336447e+004,-2.52601177974113e+001,-1.89233289417510e+000

4.22807216224550e+004,-2.52601679633055e+001,-1.91874434826198e+000

4.28709385014515e+004,-2.52602195389007e+001,-1.94552430027680e+000

4.34693945010421e+004,-2.52602725637919e+001,-1.97267788610147e+000

4.40762046350642e+004,-2.52603270786848e+001,-2.00021031296638e+000

4.46914855228886e+004,-2.52603831254275e+001,-2.02812686043172e+000

4.53153554118317e+004,-2.52604407470420e+001,-2.05643288138110e+000

4.59479341998812e+004,-2.52604999877577e+001,-2.08513380303000e+000

4.65893434587380e+004,-2.52605608930443e+001,-2.11423512794711e+000

4.72397064571810e+004,-2.52606235096475e+001,-2.14374243508734e+000

4.78991481847569e+004,-2.52606878856238e+001,-2.17366138084210e+000

4.85677953758016e+004,-2.52607540703780e+001,-2.20399770009975e+000

4.92457765337964e+004,-2.52608221147004e+001,-2.23475720732267e+000

4.99332219560642e+004,-2.52608920708057e+001,-2.26594579763813e+000

5.06302637588109e+004,-2.52609639923728e+001,-2.29756944794132e+000

5.13370359025159e+004,-2.52610379345860e+001,-2.32963421801689e+000

5.20536742176771e+004,-2.52611139541767e+001,-2.36214625167058e+000

5.27803164309155e+004,-2.52611921094671e+001,-2.39511177788012e+000

5.35171021914442e+004,-2.52612724604142e+001,-2.42853711195735e+000

5.42641730979066e+004,-2.52613550686560e+001,-2.46242865672864e+000

5.50216727255895e+004,-2.52614399975580e+001,-2.49679290372793e+000

5.57897466540159e+004,-2.52615273122619e+001,-2.53163643440778e+000

5.65685424949235e+004,-2.52616170797350e+001,-2.56696592136412e+000

5.73582099206328e+004,-2.52617093688211e+001,-2.60278812957791e+000

5.81589006928121e+004,-2.52618042502931e+001,-2.63910991767319e+000

5.89707686916437e+004,-2.52619017969069e+001,-2.67593823918966e+000

5.97939699453972e+004,-2.52620020834566e+001,-2.71328014387345e+000

6.06286626604156e+004,-2.52621051868313e+001,-2.75114277898328e+000

6.14750072515201e+004,-2.52622111860741e+001,-2.78953339061411e+000

6.23331663728396e+004,-2.52623201624416e+001,-2.82845932503677e+000

6.32033049490698e+004,-2.52624321994658e+001,-2.86792803005529e+000

6.40855902071694e+004,-2.52625473830178e+001,-2.90794705638172e+000

6.49801917084985e+004,-2.52626658013729e+001,-2.94852405902684e+000

6.58872813814055e+004,-2.52627875452774e+001,-2.98966679871062e+000

6.68070335542691e+004,-2.52629127080179e+001,-3.03138314328811e+000

6.77396249890018e+004,-2.52630413854916e+001,-3.07368106919497e+000

6.86852349150199e+004,-2.52631736762794e+001,-3.11656866291011e+000

6.96440450636895e+004,-2.52633096817205e+001,-3.16005412243713e+000

7.06162397032520e+004,-2.52634495059891e+001,-3.20414575880263e+000

7.16020056742374e+004,-2.52635932561737e+001,-3.24885199757566e+000

7.26015324253724e+004,-2.52637410423576e+001,-3.29418138040325e+000

7.36150120499896e+004,-2.52638929777026e+001,-3.34014256656618e+000

7.46426393229441e+004,-2.52640491785345e+001,-3.38674433455348e+000

7.56846117380472e+004,-2.52642097644314e+001,-3.43399558365600e+000

7.67411295460207e+004,-2.52643748583133e+001,-3.48190533557916e+000

7.78123957929823e+004,-2.52645445865359e+001,-3.53048273607482e+000

7.88986163594682e+004,-2.52647190789854e+001,-3.57973705659430e+000

7.99999999999995e+004,-2.52648984691765e+001,-3.62967769595827e+000

8.11167583832018e+004,-2.52650828943536e+001,-3.68031418204942e+000

8.22491061324848e+004,-2.52652724955939e+001,-3.73165617352349e+000

8.33972608672892e+004,-2.52654674179138e+001,-3.78371346154007e+000

8.45614432449099e+004,-2.52656678103780e+001,-3.83649597151538e+000

8.57418770029029e+004,-2.52658738262120e+001,-3.89001376489337e+000

8.69387890020841e+004,-2.52660856229169e+001,-3.94427704093876e+000

8.81524092701283e+004,-2.52663033623885e+001,-3.99929613854946e+000

8.93829710457770e+004,-2.52665272110381e+001,-4.05508153809140e+000

9.06307108236633e+004,-2.52667573399179e+001,-4.11164386325162e+000

9.18958683997622e+004,-2.52669939248495e+001,-4.16899388291439e+000

9.31786869174758e+004,-2.52672371465553e+001,-4.22714251305747e+000

9.44794129143618e+004,-2.52674871907941e+001,-4.28610081866920e+000

9.57982963695136e+004,-2.52677442485004e+001,-4.34588001568677e+000

9.71355907516031e+004,-2.52680085159268e+001,-4.40649147295597e+000

9.84915530675926e+004,-2.52682801947912e+001,-4.46794671421127e+000

9.98664439121282e+004,-2.52685594924269e+001,-4.53025742007855e+000

1.01260527517622e+005,-2.52688466219380e+001,-4.59343543009748e+000

1.02674071805032e+005,-2.52691418023579e+001,-4.65749274476612e+000

1.04107348435354e+005,-2.52694452588125e+001,-4.72244152760734e+000

1.05560632861831e+005,-2.52697572226881e+001,-4.78829410725459e+000

1.07034204382888e+005,-2.52700779318030e+001,-4.85506297956131e+000

1.08528346195813e+005,-2.52704076305849e+001,-4.92276080972975e+000

1.10043345451179e+005,-2.52707465702516e+001,-4.99140043446192e+000

1.11579493308032e+005,-2.52710950089980e+001,-5.06099486413140e+000

1.13137084989847e+005,-2.52714532121869e+001,-5.13155728497687e+000

1.14716419841265e+005,-2.52718214525455e+001,-5.20310106131537e+000

1.16317801385624e+005,-2.52722000103674e+001,-5.27563973777747e+000

1.17941537383287e+005,-2.52725891737189e+001,-5.34918704156327e+000

1.19587939890794e+005,-2.52729892386522e+001,-5.42375688471820e+000

1.21257325320831e+005,-2.52734005094230e+001,-5.49936336643068e+000

1.22950014503040e+005,-2.52738232987147e+001,-5.57602077534845e+000

1.24666332745679e+005,-2.52742579278682e+001,-5.65374359191645e+000

1.26406609898139e+005,-2.52747047271176e+001,-5.73254649073423e+000

1.28171180414339e+005,-2.52751640358325e+001,-5.81244434293250e+000

1.29960383416997e+005,-2.52756362027661e+001,-5.89345221856980e+000

1.31774562762811e+005,-2.52761215863108e+001,-5.97558538904808e+000

1.33614067108538e+005,-2.52766205547592e+001,-6.05885932954715e+000

1.35479249978003e+005,-2.52771334865728e+001,-6.14328972147740e+000

1.37370469830040e+005,-2.52776607706577e+001,-6.22889245495115e+000

1.39288090127379e+005,-2.52782028066469e+001,-6.31568363127113e+000

1.41232479406504e+005,-2.52787600051904e+001,-6.40367956543706e+000

1.43204011348474e+005,-2.52793327882529e+001,-6.49289678866836e+000

1.45203064850745e+005,-2.52799215894184e+001,-6.58335205094349e+000

1.47230024099979e+005,-2.52805268542039e+001,-6.67506232355553e+000

1.49285278645888e+005,-2.52811490403796e+001,-6.76804480168272e+000

1.51369223476094e+005,-2.52817886182992e+001,-6.86231690697354e+000

1.53482259092041e+005,-2.52824460712367e+001,-6.95789629014620e+000

1.55624791585964e+005,-2.52831218957330e+001,-7.05480083360154e+000

1.57797232718936e+005,-2.52838166019511e+001,-7.15304865404839e+000

1.59999999999999e+005,-2.52845307140402e+001,-7.25265810514097e+000

1.62233516766403e+005,-2.52852647705086e+001,-7.35364778012730e+000

1.64498212264969e+005,-2.52860193246065e+001,-7.45603651450851e+000

1.66794521734578e+005,-2.52867949447185e+001,-7.55984338870652e+000

1.69122886489819e+005,-2.52875922147652e+001,-7.66508773074069e+000

1.71483754005805e+005,-2.52884117346157e+001,-7.77178911891216e+000

1.73877578004168e+005,-2.52892541205092e+001,-7.87996738449419e+000

1.76304818540256e+005,-2.52901200054886e+001,-7.98964261442722e+000

1.78765942091554e+005,-2.52910100398430e+001,-8.10083515401958e+000

1.81261421647326e+005,-2.52919248915621e+001,-8.21356560964903e+000

1.83791736799524e+005,-2.52928652468019e+001,-8.32785485146787e+000

1.86357373834951e+005,-2.52938318103609e+001,-8.44372401610610e+000

1.88958825828723e+005,-2.52948253061681e+001,-8.56119450937531e+000

1.91596592739027e+005,-2.52958464777832e+001,-8.68028800896882e+000

1.94271181503206e+005,-2.52968960889082e+001,-8.80102646715702e+000

1.96983106135185e+005,-2.52979749239116e+001,-8.92343211347833e+000

1.99732887824256e+005,-2.52990837883646e+001,-9.04752745742028e+000

2.02521055035243e+005,-2.53002235095904e+001,-9.17333529109351e+000

2.05348143610063e+005,-2.53013949372260e+001,-9.30087869189217e+000

2.08214696870707e+005,-2.53025989437976e+001,-9.43018102514273e+000

2.11121265723661e+005,-2.53038364253087e+001,-9.56126594673605e+000

2.14068408765776e+005,-2.53051083018420e+001,-9.69415740574270e+000

2.17056692391625e+005,-2.53064155181755e+001,-9.82887964700823e+000

2.20086690902357e+005,-2.53077590444119e+001,-9.96545721372619e+000

2.23158986616063e+005,-2.53091398766224e+001,-1.01039149499869e+001

2.26274169979693e+005,-2.53105590375058e+001,-1.02442780032987e+001

2.29432839682530e+005,-2.53120175770605e+001,-1.03865718270796e+001

2.32635602771247e+005,-2.53135165732731e+001,-1.05308221831171e+001

2.35883074766574e+005,-2.53150571328212e+001,-1.06770551439914e+001

2.39175879781588e+005,-2.53166403917913e+001,-1.08252970954612e+001

2.42514650641661e+005,-2.53182675164126e+001,-1.09755747388083e+001

2.45900029006080e+005,-2.53199397038065e+001,-1.11279150931365e+001

2.49332665491357e+005,-2.53216581827512e+001,-1.12823454976243e+001

2.52813219796278e+005,-2.53234242144635e+001,-1.14388936137245e+001

2.56342360828676e+005,-2.53252390933954e+001,-1.15975874273099e+001

2.59920766833993e+005,-2.53271041480483e+001,-1.17584552507605e+001

2.63549125525621e+005,-2.53290207418026e+001,-1.19215257249880e+001

2.67228134217075e+005,-2.53309902737647e+001,-1.20868278213930e+001

2.70958499956006e+005,-2.53330141796306e+001,-1.22543908437542e+001

2.74740939660078e+005,-2.53350939325660e+001,-1.24242444300401e+001

2.78576180254757e+005,-2.53372310441034e+001,-1.25964185541432e+001

2.82464958813007e+005,-2.53394270650571e+001,-1.27709435275309e+001

2.86408022696948e+005,-2.53416835864538e+001,-1.29478500008067e+001

2.90406129701488e+005,-2.53440022404821e+001,-1.31271689651801e+001

2.94460048199957e+005,-2.53463847014577e+001,-1.33089317538371e+001

2.98570557291775e+005,-2.53488326868067e+001,-1.34931700432083e+001

3.02738446952187e+005,-2.53513479580662e+001,-1.36799158541292e+001

3.06964518184081e+005,-2.53539323219014e+001,-1.38692015528856e+001

3.11249583171928e+005,-2.53565876311404e+001,-1.40610598521409e+001

3.15594465437872e+005,-2.53593157858262e+001,-1.42555238117375e+001

3.19999999999997e+005,-2.53621187342852e+001,-1.44526268393685e+001

3.24467033532806e+005,-2.53649984742129e+001,-1.46524026911117e+001

3.28996424529938e+005,-2.53679570537763e+001,-1.48548854718213e+001

3.33589043469155e+005,-2.53709965727328e+001,-1.50601096353702e+001

3.38245772979638e+005,-2.53741191835650e+001,-1.52681099847367e+001

3.42967508011610e+005,-2.53773270926327e+001,-1.54789216719290e+001

3.47755156008335e+005,-2.53806225613391e+001,-1.56925801977409e+001

3.52609637080511e+005,-2.53840079073137e+001,-1.59091214113321e+001

3.57531884183106e+005,-2.53874855056095e+001,-1.61285815096245e+001

3.62522843294651e+005,-2.53910577899156e+001,-1.63509970365104e+001

3.67583473599047e+005,-2.53947272537833e+001,-1.65764048818621e+001

3.72714747669902e+005,-2.53984964518665e+001,-1.68048422803382e+001

3.77917651657445e+005,-2.54023680011743e+001,-1.70363468099769e+001

3.83193185478053e+005,-2.54063445823381e+001,-1.72709563905704e+001

3.88542363006410e+005,-2.54104289408882e+001,-1.75087092818126e+001

3.93966212270369e+005,-2.54146238885436e+001,-1.77496440812102e+001

3.99465775648511e+005,-2.54189323045113e+001,-1.79937997217528e+001

4.05042110070485e+005,-2.54233571367954e+001,-1.82412154693314e+001

4.10696287220124e+005,-2.54279014035153e+001,-1.84919309198975e+001

4.16429393741414e+005,-2.54325681942312e+001,-1.87459859963572e+001

4.22242531447321e+005,-2.54373606712768e+001,-1.90034209451886e+001

4.28136817531551e+005,-2.54422820710981e+001,-1.92642763327779e+001

4.34113384783250e+005,-2.54473357055957e+001,-1.95285930414629e+001

4.40173381804713e+005,-2.54525249634717e+001,-1.97964122652793e+001

4.46317973232124e+005,-2.54578533115780e+001,-2.00677755053983e+001

4.52548339959385e+005,-2.54633242962655e+001,-2.03427245652501e+001

4.58865679365059e+005,-2.54689415447328e+001,-2.06213015453238e+001

4.65271205542494e+005,-2.54747087663722e+001,-2.09035488376369e+001

4.71766149533147e+005,-2.54806297541123e+001,-2.11895091198662e+001

4.78351759563174e+005,-2.54867083857547e+001,-2.14792253491322e+001

4.85029301283321e+005,-2.54929486253039e+001,-2.17727407554301e+001

4.91800058012158e+005,-2.54993545242871e+001,-2.20700988347005e+001

4.98665330982714e+005,-2.55059302230639e+001,-2.23713433415315e+001

5.05626439592555e+005,-2.55126799521219e+001,-2.26765182814871e+001

5.12684721657352e+005,-2.55196080333573e+001,-2.29856679030531e+001

5.19841533667984e+005,-2.55267188813382e+001,-2.32988366891977e+001

5.27098251051240e+005,-2.55340170045475e+001,-2.36160693485376e+001

5.34456268434150e+005,-2.55415070066034e+001,-2.39374108061057e+001

5.41916999912011e+005,-2.55491935874556e+001,-2.42629061937157e+001

