Freq.,VOut,OutRef

1.00000000000000e+004,-3.26966267199729e+001,-1.43884269913645e-001

1.01395947979003e+004,-3.26966270601490e+001,-1.45892815697419e-001

1.02811382665607e+004,-3.26966274098884e+001,-1.47929399575972e-001

1.04246576084112e+004,-3.26966277694604e+001,-1.49994412937916e-001

1.05701804056138e+004,-3.26966281391411e+001,-1.52088252638915e-001

1.07177346253629e+004,-3.26966285192148e+001,-1.54211321071052e-001

1.08673486252606e+004,-3.26966289099737e+001,-1.56364026244417e-001

1.10190511587661e+004,-3.26966293117181e+001,-1.58546781865397e-001

1.11728713807222e+004,-3.26966297247569e+001,-1.60760007413851e-001

1.13288388529580e+004,-3.26966301494077e+001,-1.63004128224839e-001

1.14869835499703e+004,-3.26966305859967e+001,-1.65279575572093e-001

1.16473358646846e+004,-3.26966310348598e+001,-1.67586786747122e-001

1.18099266142953e+004,-3.26966314963420e+001,-1.69926205146695e-001

1.19747870461893e+004,-3.26966319707980e+001,-1.72298280356752e-001

1.21419488439505e+004,-3.26966324585924e+001,-1.74703468239491e-001

1.23114441334492e+004,-3.26966329601005e+001,-1.77142231018224e-001

1.24833054890161e+004,-3.26966334757076e+001,-1.79615037369627e-001

1.26575659397028e+004,-3.26966340058099e+001,-1.82122362513033e-001

1.28342589756290e+004,-3.26966345508152e+001,-1.84664688299409e-001

1.30134185544193e+004,-3.26966351111425e+001,-1.87242503305474e-001

1.31950791077289e+004,-3.26966356872224e+001,-1.89856302929517e-001

1.33792755478611e+004,-3.26966362794976e+001,-1.92506589483476e-001

1.35660432744767e+004,-3.26966368884236e+001,-1.95193872291340e-001

1.37554181813974e+004,-3.26966375144685e+001,-1.97918667785171e-001

1.39474366635040e+004,-3.26966381581135e+001,-2.00681499606067e-001

1.41421356237309e+004,-3.26966388198533e+001,-2.03482898705768e-001

1.43395524801583e+004,-3.26966395001967e+001,-2.06323403444033e-001

1.45397251732031e+004,-3.26966401996668e+001,-2.09203559697623e-001

1.47426921729110e+004,-3.26966409188009e+001,-2.12123920962320e-001

1.49484924863494e+004,-3.26966416581523e+001,-2.15085048457739e-001

1.51571656651040e+004,-3.26966424182889e+001,-2.18087511239965e-001

1.53687518128801e+004,-3.26966431997954e+001,-2.21131886304804e-001

1.55832915932100e+004,-3.26966440032724e+001,-2.24218758704008e-001

1.58008262372675e+004,-3.26966448293374e+001,-2.27348721654575e-001

1.60213975517924e+004,-3.26966456786255e+001,-2.30522376653283e-001

1.62450479271247e+004,-3.26966465517896e+001,-2.33740333592918e-001

1.64718203453514e+004,-3.26966474495010e+001,-2.37003210878119e-001

1.67017583885674e+004,-3.26966483724495e+001,-2.40311635545909e-001

1.69349062472505e+004,-3.26966493213448e+001,-2.43666243384782e-001

1.71713087287550e+004,-3.26966502969161e+001,-2.47067679057427e-001

1.74110112659224e+004,-3.26966512999135e+001,-2.50516596224993e-001

1.76540599258131e+004,-3.26966523311079e+001,-2.54013657670316e-001

1.79005014185594e+004,-3.26966533912920e+001,-2.57559535428150e-001

1.81503831063432e+004,-3.26966544812807e+001,-2.61154910914086e-001

1.84037530124975e+004,-3.26966556019119e+001,-2.64800475051977e-001

1.86606598307361e+004,-3.26966567540470e+001,-2.68496928410665e-001

1.89211529345119e+004,-3.26966579385717e+001,-2.72244981336268e-001

1.91852823865052e+004,-3.26966591563962e+001,-2.76045354090304e-001

1.94530989482457e+004,-3.26966604084570e+001,-2.79898776985354e-001

1.97246540898671e+004,-3.26966616957163e+001,-2.83805990528059e-001

1.99999999999999e+004,-3.26966630191636e+001,-2.87767745560075e-001

2.02791895958005e+004,-3.26966643798162e+001,-2.91784803401420e-001

2.05622765331213e+004,-3.26966657787199e+001,-2.95857935998943e-001

2.08493152168224e+004,-3.26966672169501e+001,-2.99987926072621e-001

2.11403608112276e+004,-3.26966686956122e+001,-3.04175567266481e-001

2.14354692507258e+004,-3.26966702158429e+001,-3.08421664300331e-001

2.17346972505211e+004,-3.26966717788105e+001,-3.12727033126899e-001

2.20381023175322e+004,-3.26966733857167e+001,-3.17092501083821e-001

2.23457427614443e+004,-3.26966750377963e+001,-3.21518907058172e-001

2.26576777059159e+004,-3.26966767363192e+001,-3.26007101642127e-001

2.29739670999406e+004,-3.26966784825911e+001,-3.30557947300032e-001

2.32946717293690e+004,-3.26966802779540e+001,-3.35172318533010e-001

2.36198532285905e+004,-3.26966821237881e+001,-3.39851102044807e-001

2.39495740923785e+004,-3.26966840215120e+001,-3.44595196915057e-001

2.42838976879009e+004,-3.26966859725843e+001,-3.49405514771357e-001

2.46228882668982e+004,-3.26966879785047e+001,-3.54282979961730e-001

2.49666109780322e+004,-3.26966900408148e+001,-3.59228529734612e-001

2.53151318794055e+004,-3.26966921610997e+001,-3.64243114418633e-001

2.56685179512580e+004,-3.26966943409893e+001,-3.69327697602528e-001

2.60268371088386e+004,-3.26966965821588e+001,-3.74483256324073e-001

2.63901582154578e+004,-3.26966988863308e+001,-3.79710781253977e-001

2.67585510957221e+004,-3.26967012552762e+001,-3.85011276888532e-001

2.71320865489533e+004,-3.26967036908157e+001,-3.90385761740496e-001

2.75108363627948e+004,-3.26967061948212e+001,-3.95835268536718e-001

2.78948733270080e+004,-3.26967087692171e+001,-4.01360844413020e-001

2.82842712474618e+004,-3.26967114159822e+001,-4.06963551118806e-001

2.86791049603164e+004,-3.26967141371504e+001,-4.12644465219000e-001

2.90794503464061e+004,-3.26967169348131e+001,-4.18404678300513e-001

2.94853843458219e+004,-3.26967198111205e+001,-4.24245297181981e-001

2.98969849726987e+004,-3.26967227682832e+001,-4.30167444125592e-001

3.03143313302078e+004,-3.26967258085735e+001,-4.36172257054807e-001

3.07375036257601e+004,-3.26967289343281e+001,-4.42260889768412e-001

3.11665831864199e+004,-3.26967321479493e+001,-4.48434512165527e-001

3.16016524745350e+004,-3.26967354519067e+001,-4.54694310468607e-001

3.20427951035848e+004,-3.26967388487392e+001,-4.61041487451313e-001

3.24900958542493e+004,-3.26967423410573e+001,-4.67477262668483e-001

3.29436406907028e+004,-3.26967459315449e+001,-4.74002872691105e-001

3.34035167771346e+004,-3.26967496229609e+001,-4.80619571342477e-001

3.38698124945009e+004,-3.26967534181423e+001,-4.87328629939168e-001

3.43426174575100e+004,-3.26967573200054e+001,-4.94131337534856e-001

3.48220225318448e+004,-3.26967613315485e+001,-5.01029001168243e-001

3.53081198516260e+004,-3.26967654558543e+001,-5.08022946111698e-001

3.58010028371187e+004,-3.26967696960918e+001,-5.15114516127149e-001

3.63007662126863e+004,-3.26967740555194e+001,-5.22305073722731e-001

3.68075060249948e+004,-3.26967785374870e+001,-5.29596000413990e-001

3.73213196614721e+004,-3.26967831454384e+001,-5.36988696989873e-001

3.78423058690237e+004,-3.26967878829141e+001,-5.44484583780422e-001

3.83705647730104e+004,-3.26967927535545e+001,-5.52085100927766e-001

3.89061978964912e+004,-3.26967977611019e+001,-5.59791708664880e-001

3.94493081797342e+004,-3.26968029094037e+001,-5.67605887592535e-001

3.99999999999998e+004,-3.26968082024158e+001,-5.75529138964362e-001

4.05583791916010e+004,-3.26968136442047e+001,-5.83562984975611e-001

4.11245530662425e+004,-3.26968192389516e+001,-5.91708969052178e-001

4.16986304336447e+004,-3.26968249909547e+001,-5.99968656149351e-001

4.22807216224550e+004,-3.26968309046333e+001,-6.08343633048009e-001

4.28709385014515e+004,-3.26968369845306e+001,-6.16835508662299e-001

4.34693945010421e+004,-3.26968432353177e+001,-6.25445914344138e-001

4.40762046350642e+004,-3.26968496617966e+001,-6.34176504198725e-001

4.46914855228886e+004,-3.26968562689043e+001,-6.43028955399432e-001

4.53153554118317e+004,-3.26968630617165e+001,-6.52004968509939e-001

4.59479341998812e+004,-3.26968700454512e+001,-6.61106267808470e-001

4.65893434587380e+004,-3.26968772254735e+001,-6.70334601618756e-001

4.72397064571810e+004,-3.26968846072986e+001,-6.79691742645212e-001

4.78991481847569e+004,-3.26968921965968e+001,-6.89179488310808e-001

4.85677953758016e+004,-3.26968999991978e+001,-6.98799661101964e-001

4.92457765337964e+004,-3.26969080210947e+001,-7.08554108916682e-001

4.99332219560642e+004,-3.26969162684491e+001,-7.18444705419019e-001

5.06302637588109e+004,-3.26969247475956e+001,-7.28473350396113e-001

5.13370359025159e+004,-3.26969334650466e+001,-7.38641970122506e-001

5.20536742176771e+004,-3.26969424274975e+001,-7.48952517727634e-001

5.27803164309155e+004,-3.26969516418313e+001,-7.59406973570837e-001

5.35171021914442e+004,-3.26969611151247e+001,-7.70007345618049e-001

5.42641730979066e+004,-3.26969708546529e+001,-7.80755669826941e-001

5.50216727255895e+004,-3.26969808678952e+001,-7.91654010535562e-001

5.57897466540159e+004,-3.26969911625411e+001,-8.02704460855970e-001

5.65685424949235e+004,-3.26970017464958e+001,-8.13909143076059e-001

5.73582099206328e+004,-3.26970126278864e+001,-8.25270209063484e-001

5.81589006928121e+004,-3.26970238150682e+001,-8.36789840676687e-001

5.89707686916437e+004,-3.26970353166310e+001,-8.48470250182310e-001

5.97939699453972e+004,-3.26970471414057e+001,-8.60313680675910e-001

6.06286626604156e+004,-3.26970592984708e+001,-8.72322406513530e-001

6.14750072515201e+004,-3.26970717971599e+001,-8.84498733741897e-001

6.23331663728396e+004,-3.26970846470683e+001,-8.96845000540308e-001

6.32033049490698e+004,-3.26970978580608e+001,-9.09363577666550e-001

6.40855902071694e+004,-3.26971114402787e+001,-9.22056868909350e-001

6.49801917084985e+004,-3.26971254041480e+001,-9.34927311546512e-001

6.58872813814055e+004,-3.26971397603873e+001,-9.47977376809036e-001

6.68070335542691e+004,-3.26971545200156e+001,-9.61209570352608e-001

6.77396249890018e+004,-3.26971696943614e+001,-9.74626432735877e-001

6.86852349150199e+004,-3.26971852950706e+001,-9.88230539903140e-001

6.96440450636895e+004,-3.26972013341161e+001,-1.00202450367566e+000

7.06162397032520e+004,-3.26972178238064e+001,-1.01601097224849e+000

7.16020056742374e+004,-3.26972347767952e+001,-1.03019263069690e+000

7.26015324253724e+004,-3.26972522060913e+001,-1.04457220148319e+000

7.36150120499896e+004,-3.26972701250679e+001,-1.05915244497885e+000

7.46426393229441e+004,-3.26972885474735e+001,-1.07393615998728e+000

7.56846117380472e+004,-3.26973074874420e+001,-1.08892618427702e+000

7.67411295460207e+004,-3.26973269595034e+001,-1.10412539512109e+000

7.78123957929823e+004,-3.26973469785952e+001,-1.11953670984341e+000

7.88986163594682e+004,-3.26973675600737e+001,-1.13516308637296e+000

7.99999999999995e+004,-3.26973887197254e+001,-1.15100752380679e+000

8.11167583832018e+004,-3.26974104737793e+001,-1.16707306297848e+000

8.22491061324848e+004,-3.26974328389191e+001,-1.18336278703586e+000

8.33972608672892e+004,-3.26974558322965e+001,-1.19987982202456e+000

8.45614432449099e+004,-3.26974794715432e+001,-1.21662733748323e+000

8.57418770029029e+004,-3.26975037747851e+001,-1.23360854704355e+000

8.69387890020841e+004,-3.26975287606559e+001,-1.25082670903821e+000

8.81524092701283e+004,-3.26975544483113e+001,-1.26828512712010e+000

8.93829710457770e+004,-3.26975808574434e+001,-1.28598715088654e+000

9.06307108236633e+004,-3.26976080082958e+001,-1.30393617651445e+000

9.18958683997622e+004,-3.26976359216790e+001,-1.32213564740282e+000

9.31786869174758e+004,-3.26976646189862e+001,-1.34058905482252e+000

9.44794129143618e+004,-3.26976941222096e+001,-1.35929993857918e+000

9.57982963695136e+004,-3.26977244539567e+001,-1.37827188767998e+000

9.71355907516031e+004,-3.26977556374683e+001,-1.39750854101189e+000

9.84915530675926e+004,-3.26977876966350e+001,-1.41701358803003e+000

9.98664439121282e+004,-3.26978206560164e+001,-1.43679076945258e+000

1.01260527517622e+005,-3.26978545408591e+001,-1.45684387796630e+000

1.02674071805032e+005,-3.26978893771160e+001,-1.47717675894262e+000

1.04107348435354e+005,-3.26979251914657e+001,-1.49779331116137e+000

1.05560632861831e+005,-3.26979620113333e+001,-1.51869748754531e+000

1.07034204382888e+005,-3.26979998649106e+001,-1.53989329590414e+000

1.08528346195813e+005,-3.26980387811775e+001,-1.56138479968751e+000

1.10043345451179e+005,-3.26980787899244e+001,-1.58317611875046e+000

1.11579493308032e+005,-3.26981199217740e+001,-1.60527143012644e+000

1.13137084989847e+005,-3.26981622082049e+001,-1.62767496881193e+000

1.14716419841265e+005,-3.26982056815753e+001,-1.65039102856067e+000

1.16317801385624e+005,-3.26982503751474e+001,-1.67342396268921e+000

1.17941537383287e+005,-3.26982963231124e+001,-1.69677818489307e+000

1.19587939890794e+005,-3.26983435606164e+001,-1.72045817007182e+000

1.21257325320831e+005,-3.26983921237867e+001,-1.74446845516870e+000

1.22950014503040e+005,-3.26984420497594e+001,-1.76881364001646e+000

1.24666332745679e+005,-3.26984933767071e+001,-1.79349838819870e+000

1.26406609898139e+005,-3.26985461438672e+001,-1.81852742792019e+000

1.28171180414339e+005,-3.26986003915724e+001,-1.84390555288860e+000

1.29960383416997e+005,-3.26986561612800e+001,-1.86963762320748e+000

1.31774562762811e+005,-3.26987134956037e+001,-1.89572856628282e+000

1.33614067108538e+005,-3.26987724383452e+001,-1.92218337773973e+000

1.35479249978003e+005,-3.26988330345274e+001,-1.94900712235006e+000

1.37370469830040e+005,-3.26988953304277e+001,-1.97620493497461e+000

1.39288090127379e+005,-3.26989593736131e+001,-2.00378202151510e+000

1.41232479406504e+005,-3.26990252129755e+001,-2.03174365987994e+000

1.43204011348474e+005,-3.26990928987683e+001,-2.06009520096206e+000

1.45203064850745e+005,-3.26991624826442e+001,-2.08884206962871e+000

1.47230024099979e+005,-3.26992340176936e+001,-2.11798976572347e+000

1.49285278645888e+005,-3.26993075584840e+001,-2.14754386508359e+000

1.51369223476094e+005,-3.26993831611009e+001,-2.17751002056732e+000

1.53482259092041e+005,-3.26994608831900e+001,-2.20789396309516e+000

1.55624791585964e+005,-3.26995407839993e+001,-2.23870150270563e+000

1.57797232718936e+005,-3.26996229244236e+001,-2.26993852962294e+000

1.59999999999999e+005,-3.26997073670497e+001,-2.30161101533774e+000

1.62233516766403e+005,-3.26997941762029e+001,-2.33372501370342e+000

1.64498212264969e+005,-3.26998834179948e+001,-2.36628666204390e+000

1.66794521734578e+005,-3.26999751603719e+001,-2.39930218227627e+000

1.69122886489819e+005,-3.27000694731663e+001,-2.43277788204808e+000

1.71483754005805e+005,-3.27001664281471e+001,-2.46672015588749e+000

1.73877578004168e+005,-3.27002660990735e+001,-2.50113548636785e+000

1.76304818540256e+005,-3.27003685617495e+001,-2.53603044528710e+000

1.78765942091554e+005,-3.27004738940790e+001,-2.57141169486218e+000

1.81261421647326e+005,-3.27005821761240e+001,-2.60728598893583e+000

1.83791736799524e+005,-3.27006934901633e+001,-2.64366017420109e+000

1.86357373834951e+005,-3.27008079207523e+001,-2.68054119143832e+000

1.88958825828723e+005,-3.27009255547859e+001,-2.71793607676809e+000

1.91596592739027e+005,-3.27010464815617e+001,-2.75585196291945e+000

1.94271181503206e+005,-3.27011707928455e+001,-2.79429608051253e+000

1.96983106135185e+005,-3.27012985829383e+001,-2.83327575935782e+000

1.99732887824256e+005,-3.27014299487452e+001,-2.87279842976927e+000

2.02521055035243e+005,-3.27015649898460e+001,-2.91287162389466e+000

2.05348143610063e+005,-3.27017038085677e+001,-2.95350297705956e+000

2.08214696870707e+005,-3.27018465100590e+001,-2.99470022913020e+000

2.11121265723661e+005,-3.27019932023665e+001,-3.03647122588823e+000

2.14068408765776e+005,-3.27021439965129e+001,-3.07882392042570e+000

2.17056692391625e+005,-3.27022990065779e+001,-3.12176637455264e+000

2.20086690902357e+005,-3.27024583497798e+001,-3.16530676022336e+000

2.23158986616063e+005,-3.27026221465607e+001,-3.20945336097785e+000

2.26274169979693e+005,-3.27027905206733e+001,-3.25421457339915e+000

2.29432839682530e+005,-3.27029635992692e+001,-3.29959890858940e+000

2.32635602771247e+005,-3.27031415129912e+001,-3.34561499366009e+000

2.35883074766574e+005,-3.27033243960659e+001,-3.39227157324039e+000

2.39175879781588e+005,-3.27035123864006e+001,-3.43957751100250e+000

2.42514650641661e+005,-3.27037056256810e+001,-3.48754179120272e+000

2.45900029006080e+005,-3.27039042594729e+001,-3.53617352024045e+000

2.49332665491357e+005,-3.27041084373255e+001,-3.58548192823420e+000

2.52813219796278e+005,-3.27043183128772e+001,-3.63547637061503e+000

2.56342360828676e+005,-3.27045340439650e+001,-3.68616632973555e+000

2.59920766833993e+005,-3.27047557927362e+001,-3.73756141649899e+000

2.63549125525621e+005,-3.27049837257621e+001,-3.78967137200339e+000

2.67228134217075e+005,-3.27052180141563e+001,-3.84250606920348e+000

2.70958499956006e+005,-3.27054588336943e+001,-3.89607551459188e+000

2.74740939660078e+005,-3.27057063649370e+001,-3.95038984989558e+000

2.78576180254757e+005,-3.27059607933569e+001,-4.00545935379131e+000

2.82464958813007e+005,-3.27062223094680e+001,-4.06129444363806e+000

2.86408022696948e+005,-3.27064911089581e+001,-4.11790567722811e+000

2.90406129701488e+005,-3.27067673928249e+001,-4.17530375455453e+000

2.94460048199957e+005,-3.27070513675154e+001,-4.23349951959751e+000

2.98570557291775e+005,-3.27073432450688e+001,-4.29250396212849e+000

3.02738446952187e+005,-3.27076432432627e+001,-4.35232821953081e+000

3.06964518184081e+005,-3.27079515857627e+001,-4.41298357864053e+000

3.11249583171928e+005,-3.27082685022766e+001,-4.47448147760289e+000

3.15594465437872e+005,-3.27085942287110e+001,-4.53683350774815e+000

3.19999999999997e+005,-3.27089290073327e+001,-4.60005141548425e+000

3.24467033532806e+005,-3.27092730869337e+001,-4.66414710420903e+000

3.28996424529938e+005,-3.27096267230004e+001,-4.72913263623835e+000

3.33589043469155e+005,-3.27099901778862e+001,-4.79502023475312e+000

3.38245772979638e+005,-3.27103637209890e+001,-4.86182228576512e+000

3.42967508011610e+005,-3.27107476289325e+001,-4.92955134009924e+000

3.47755156008335e+005,-3.27111421857524e+001,-4.99822011539365e+000

3.52609637080511e+005,-3.27115476830859e+001,-5.06784149811957e+000

3.57531884183106e+005,-3.27119644203675e+001,-5.13842854561646e+000

3.62522843294651e+005,-3.27123927050269e+001,-5.20999448814710e+000

3.67583473599047e+005,-3.27128328526946e+001,-5.28255273096944e+000

3.72714747669902e+005,-3.27132851874097e+001,-5.35611685642544e+000

3.77917651657445e+005,-3.27137500418342e+001,-5.43070062604947e+000

3.83193185478053e+005,-3.27142277574715e+001,-5.50631798269261e+000

3.88542363006410e+005,-3.27147186848906e+001,-5.58298305266522e+000

3.93966212270369e+005,-3.27152231839553e+001,-5.66071014789708e+000

3.99465775648511e+005,-3.27157416240581e+001,-5.73951376811470e+000

4.05042110070485e+005,-3.27162743843610e+001,-5.81940860303622e+000

4.10696287220124e+005,-3.27168218540402e+001,-5.90040953458325e+000

4.16429393741414e+005,-3.27173844325378e+001,-5.98253163911023e+000

4.22242531447321e+005,-3.27179625298187e+001,-6.06579018965036e+000

4.28136817531551e+005,-3.27185565666332e+001,-6.15020065817959e+000

4.34113384783250e+005,-3.27191669747865e+001,-6.23577871789606e+000

4.40173381804713e+005,-3.27197941974134e+001,-6.32254024551745e+000

4.46317973232124e+005,-3.27204386892597e+001,-6.41050132359470e+000

4.52548339959385e+005,-3.27211009169707e+001,-6.49967824284184e+000

4.58865679365059e+005,-3.27217813593851e+001,-6.59008750448252e+000

4.65271205542494e+005,-3.27224805078366e+001,-6.68174582261343e+000

4.71766149533147e+005,-3.27231988664620e+001,-6.77467012658214e+000

4.78351759563174e+005,-3.27239369525163e+001,-6.86887756338310e+000

4.85029301283321e+005,-3.27246952966951e+001,-6.96438550006767e+000

4.91800058012158e+005,-3.27254744434646e+001,-7.06121152617006e+000

4.98665330982714e+005,-3.27262749513986e+001,-7.15937345614956e+000

5.05626439592555e+005,-3.27270973935238e+001,-7.25888933184735e+000

5.12684721657352e+005,-3.27279423576724e+001,-7.35977742495764e+000

5.19841533667984e+005,-3.27288104468435e+001,-7.46205623951445e+000

5.27098251051240e+005,-3.27297022795721e+001,-7.56574451439295e+000

5.34456268434150e+005,-3.27306184903071e+001,-7.67086122582375e+000

5.41916999912011e+005,-3.27315597297973e+001,-7.77742558992256e+000

