Freq.,VOut,OutRef

1.00000000000000e+004,-2.41509172024175e+001,-2.58970891953614e-001

1.01395947979003e+004,-2.41509181446381e+001,-2.62585977403665e-001

1.02811382665607e+004,-2.41509191133478e+001,-2.66251526992844e-001

1.04246576084112e+004,-2.41509201092912e+001,-2.69968245150779e-001

1.05701804056138e+004,-2.41509211332340e+001,-2.73736846138221e-001

1.07177346253629e+004,-2.41509221859633e+001,-2.77558054186603e-001

1.08673486252606e+004,-2.41509232682883e+001,-2.81432603635745e-001

1.10190511587661e+004,-2.41509243810411e+001,-2.85361239074491e-001

1.11728713807222e+004,-2.41509255250772e+001,-2.89344715485164e-001

1.13288388529580e+004,-2.41509267012759e+001,-2.93383798388722e-001

1.14869835499703e+004,-2.41509279105415e+001,-2.97479263989142e-001

1.16473358646846e+004,-2.41509291538034e+001,-3.01631899327655e-001

1.18099266142953e+004,-2.41509304320177e+001,-3.05842502425965e-001

1.19747870461893e+004,-2.41509317461666e+001,-3.10111882449675e-001

1.21419488439505e+004,-2.41509330972607e+001,-3.14440859853606e-001

1.23114441334492e+004,-2.41509344863383e+001,-3.18830266547226e-001

1.24833054890161e+004,-2.41509359144674e+001,-3.23280946050514e-001

1.26575659397028e+004,-2.41509373827458e+001,-3.27793753655457e-001

1.28342589756290e+004,-2.41509388923021e+001,-3.32369556593666e-001

1.30134185544193e+004,-2.41509404442970e+001,-3.37009234198956e-001

1.31950791077289e+004,-2.41509420399232e+001,-3.41713678080330e-001

1.33792755478611e+004,-2.41509436804075e+001,-3.46483792288650e-001

1.35660432744767e+004,-2.41509453670110e+001,-3.51320493494981e-001

1.37554181813974e+004,-2.41509471010301e+001,-3.56224711162208e-001

1.39474366635040e+004,-2.41509488837978e+001,-3.61197387728466e-001

1.41421356237309e+004,-2.41509507166847e+001,-3.66239478781568e-001

1.43395524801583e+004,-2.41509526010994e+001,-3.71351953250223e-001

1.45397251732031e+004,-2.41509545384908e+001,-3.76535793583169e-001

1.47426921729110e+004,-2.41509565303480e+001,-3.81791995942824e-001

1.49484924863494e+004,-2.41509585782023e+001,-3.87121570392954e-001

1.51571656651040e+004,-2.41509606836277e+001,-3.92525541095861e-001

1.53687518128801e+004,-2.41509628482429e+001,-3.98004946505738e-001

1.55832915932100e+004,-2.41509650737115e+001,-4.03560839571415e-001

1.58008262372675e+004,-2.41509673617445e+001,-4.09194287935840e-001

1.60213975517924e+004,-2.41509697141007e+001,-4.14906374141977e-001

1.62450479271247e+004,-2.41509721325881e+001,-4.20698195842237e-001

1.64718203453514e+004,-2.41509746190660e+001,-4.26570866005297e-001

1.67017583885674e+004,-2.41509771754457e+001,-4.32525513134711e-001

1.69349062472505e+004,-2.41509798036920e+001,-4.38563281482190e-001

1.71713087287550e+004,-2.41509825058256e+001,-4.44685331267335e-001

1.74110112659224e+004,-2.41509852839231e+001,-4.50892838902781e-001

1.76540599258131e+004,-2.41509881401205e+001,-4.57186997216390e-001

1.79005014185594e+004,-2.41509910766128e+001,-4.63569015684769e-001

1.81503831063432e+004,-2.41509940956576e+001,-4.70040120660361e-001

1.84037530124975e+004,-2.41509971995753e+001,-4.76601555611864e-001

1.86606598307361e+004,-2.41510003907519e+001,-4.83254581358756e-001

1.89211529345119e+004,-2.41510036716401e+001,-4.90000476315971e-001

1.91852823865052e+004,-2.41510070447621e+001,-4.96840536737598e-001

1.94530989482457e+004,-2.41510105127106e+001,-5.03776076966353e-001

1.97246540898671e+004,-2.41510140781512e+001,-5.10808429686139e-001

1.99999999999999e+004,-2.41510177438244e+001,-5.17938946177708e-001

2.02791895958005e+004,-2.41510215125480e+001,-5.25168996576558e-001

2.05622765331213e+004,-2.41510253872186e+001,-5.32499970138691e-001

2.08493152168224e+004,-2.41510293708147e+001,-5.39933275503224e-001

2.11403608112276e+004,-2.41510334663979e+001,-5.47470340967933e-001

2.14354692507258e+004,-2.41510376771165e+001,-5.55112614756795e-001

2.17346972505211e+004,-2.41510420062069e+001,-5.62861565304027e-001

2.20381023175322e+004,-2.41510464569965e+001,-5.70718681531655e-001

2.23457427614443e+004,-2.41510510329062e+001,-5.78685473136953e-001

2.26576777059159e+004,-2.41510557374532e+001,-5.86763470881988e-001

2.29739670999406e+004,-2.41510605742535e+001,-5.94954226886032e-001

2.32946717293690e+004,-2.41510655470247e+001,-6.03259314924604e-001

2.36198532285905e+004,-2.41510706595889e+001,-6.11680330730386e-001

2.39495740923785e+004,-2.41510759158755e+001,-6.20218892300836e-001

2.42838976879009e+004,-2.41510813199245e+001,-6.28876640206097e-001

2.46228882668982e+004,-2.41510868758894e+001,-6.37655237904900e-001

2.49666109780322e+004,-2.41510925880404e+001,-6.46556372063777e-001

2.53151318794055e+004,-2.41510984607678e+001,-6.55581752880063e-001

2.56685179512580e+004,-2.41511044985851e+001,-6.64733114409864e-001

2.60268371088386e+004,-2.41511107061329e+001,-6.74012214899689e-001

2.63901582154578e+004,-2.41511170881819e+001,-6.83420837124958e-001

2.67585510957221e+004,-2.41511236496373e+001,-6.92960788730384e-001

2.71320865489533e+004,-2.41511303955416e+001,-7.02633902578251e-001

2.75108363627948e+004,-2.41511373310796e+001,-7.12442037096659e-001

2.78948733270080e+004,-2.41511444615812e+001,-7.22387076639248e-001

2.82842712474618e+004,-2.41511517925266e+001,-7.32470931842619e-001

2.86791049603164e+004,-2.41511593295498e+001,-7.42695539995724e-001

2.90794503464061e+004,-2.41511670784430e+001,-7.53062865409446e-001

2.94853843458219e+004,-2.41511750451614e+001,-7.63574899791846e-001

2.98969849726987e+004,-2.41511832358273e+001,-7.74233662632478e-001

3.03143313302078e+004,-2.41511916567353e+001,-7.85041201586378e-001

3.07375036257601e+004,-2.41512003143565e+001,-7.95999592868425e-001

3.11665831864199e+004,-2.41512092153444e+001,-8.07110941648219e-001

3.16016524745350e+004,-2.41512183665389e+001,-8.18377382457364e-001

3.20427951035848e+004,-2.41512277749724e+001,-8.29801079593752e-001

3.24900958542493e+004,-2.41512374478747e+001,-8.41384227538277e-001

3.29436406907028e+004,-2.41512473926790e+001,-8.53129051374903e-001

3.34035167771346e+004,-2.41512576170271e+001,-8.65037807215689e-001

3.38698124945009e+004,-2.41512681287758e+001,-8.77112782632553e-001

3.43426174575100e+004,-2.41512789360022e+001,-8.89356297096364e-001

3.48220225318448e+004,-2.41512900470107e+001,-9.01770702418635e-001

3.53081198516260e+004,-2.41513014703390e+001,-9.14358383203348e-001

3.58010028371187e+004,-2.41513132147645e+001,-9.27121757301886e-001

3.63007662126863e+004,-2.41513252893112e+001,-9.40063276275851e-001

3.68075060249948e+004,-2.41513377032567e+001,-9.53185425865919e-001

3.73213196614721e+004,-2.41513504661393e+001,-9.66490726467234e-001

3.78423058690237e+004,-2.41513635877651e+001,-9.79981733610774e-001

3.83705647730104e+004,-2.41513770782159e+001,-9.93661038451599e-001

3.89061978964912e+004,-2.41513909478562e+001,-1.00753126826608e+000

3.94493081797342e+004,-2.41514052073424e+001,-1.02159508695072e+000

3.99999999999998e+004,-2.41514198676295e+001,-1.03585519553396e+000

4.05583791916010e+004,-2.41514349399807e+001,-1.05031433269050e+000

4.11245530662425e+004,-2.41514504359755e+001,-1.06497527526451e+000

4.16986304336447e+004,-2.41514663675184e+001,-1.07984083880131e+000

4.22807216224550e+004,-2.41514827468486e+001,-1.09491387808271e+000

4.28709385014515e+004,-2.41514995865487e+001,-1.11019728767326e+000

4.34693945010421e+004,-2.41515168995549e+001,-1.12569400247335e+000

4.40762046350642e+004,-2.41515346991668e+001,-1.14140699827752e+000

4.46914855228886e+004,-2.41515529990572e+001,-1.15733929234302e+000

4.53153554118317e+004,-2.41515718132833e+001,-1.17349394396558e+000

4.59479341998812e+004,-2.41515911562966e+001,-1.18987405506285e+000

4.65893434587380e+004,-2.41516110429547e+001,-1.20648277076462e+000

4.72397064571810e+004,-2.41516314885324e+001,-1.22332328001358e+000

4.78991481847569e+004,-2.41516525087333e+001,-1.24039881617305e+000

4.85677953758016e+004,-2.41516741197021e+001,-1.25771265764166e+000

4.92457765337964e+004,-2.41516963380366e+001,-1.27526812847971e+000

4.99332219560642e+004,-2.41517191808006e+001,-1.29306859904032e+000

5.06302637588109e+004,-2.41517426655374e+001,-1.31111748661200e+000

5.13370359025159e+004,-2.41517668102822e+001,-1.32941825606931e+000

5.20536742176771e+004,-2.41517916335768e+001,-1.34797442053211e+000

5.27803164309155e+004,-2.41518171544838e+001,-1.36678954203218e+000

5.35171021914442e+004,-2.41518433926004e+001,-1.38586723219286e+000

5.42641730979066e+004,-2.41518703680742e+001,-1.40521115291475e+000

5.50216727255895e+004,-2.41518981016181e+001,-1.42482501707143e+000

5.57897466540159e+004,-2.41519266145267e+001,-1.44471258921490e+000

5.65685424949235e+004,-2.41519559286920e+001,-1.46487768629078e+000

5.73582099206328e+004,-2.41519860666203e+001,-1.48532417836336e+000

5.81589006928121e+004,-2.41520170514498e+001,-1.50605598934875e+000

5.89707686916437e+004,-2.41520489069677e+001,-1.52707709776198e+000

5.97939699453972e+004,-2.41520816576291e+001,-1.54839153746835e+000

6.06286626604156e+004,-2.41521153285747e+001,-1.57000339845126e+000

6.14750072515201e+004,-2.41521499456510e+001,-1.59191682758548e+000

6.23331663728396e+004,-2.41521855354297e+001,-1.61413602942249e+000

6.32033049490698e+004,-2.41522221252276e+001,-1.63666526698935e+000

6.40855902071694e+004,-2.41522597431281e+001,-1.65950886259203e+000

6.49801917084985e+004,-2.41522984180023e+001,-1.68267119863637e+000

6.58872813814055e+004,-2.41523381795310e+001,-1.70615671845450e+000

6.68070335542691e+004,-2.41523790582276e+001,-1.72996992714719e+000

6.77396249890018e+004,-2.41524210854612e+001,-1.75411539243303e+000

6.86852349150199e+004,-2.41524642934805e+001,-1.77859774551228e+000

6.96440450636895e+004,-2.41525087154388e+001,-1.80342168194051e+000

7.06162397032520e+004,-2.41525543854188e+001,-1.82859196251589e+000

7.16020056742374e+004,-2.41526013384587e+001,-1.85411341417469e+000

7.26015324253724e+004,-2.41526496105792e+001,-1.87999093090325e+000

7.36150120499896e+004,-2.41526992388106e+001,-1.90622947465925e+000

7.46426393229441e+004,-2.41527502612215e+001,-1.93283407630465e+000

7.56846117380472e+004,-2.41528027169472e+001,-1.95980983655436e+000

7.67411295460207e+004,-2.41528566462198e+001,-1.98716192693410e+000

7.78123957929823e+004,-2.41529120903991e+001,-2.01489559075286e+000

7.88986163594682e+004,-2.41529690920037e+001,-2.04301614408720e+000

7.99999999999995e+004,-2.41530276947436e+001,-2.07152897677954e+000

8.11167583832018e+004,-2.41530879435532e+001,-2.10043955344915e+000

8.22491061324848e+004,-2.41531498846259e+001,-2.12975341451606e+000

8.33972608672892e+004,-2.41532135654488e+001,-2.15947617723903e+000

8.45614432449099e+004,-2.41532790348392e+001,-2.18961353676696e+000

8.57418770029029e+004,-2.41533463429812e+001,-2.22017126720475e+000

8.69387890020841e+004,-2.41534155414645e+001,-2.25115522269119e+000

8.81524092701283e+004,-2.41534866833230e+001,-2.28257133849303e+000

8.93829710457770e+004,-2.41535598230754e+001,-2.31442563211220e+000

9.06307108236633e+004,-2.41536350167665e+001,-2.34672420440798e+000

9.18958683997622e+004,-2.41537123220095e+001,-2.37947324073345e+000

9.31786869174758e+004,-2.41537917980302e+001,-2.41267901208589e+000

9.44794129143618e+004,-2.41538735057114e+001,-2.44634787627425e+000

9.57982963695136e+004,-2.41539575076395e+001,-2.48048627909899e+000

9.71355907516031e+004,-2.41540438681514e+001,-2.51510075554947e+000

9.84915530675926e+004,-2.41541326533839e+001,-2.55019793101442e+000

9.98664439121282e+004,-2.41542239313229e+001,-2.58578452251052e+000

1.01260527517622e+005,-2.41543177718557e+001,-2.62186733992424e+000

1.02674071805032e+005,-2.41544142468234e+001,-2.65845328727072e+000

1.04107348435354e+005,-2.41545134300753e+001,-2.69554936396920e+000

1.05560632861831e+005,-2.41546153975246e+001,-2.73316266613298e+000

1.07034204382888e+005,-2.41547202272061e+001,-2.77130038787714e+000

1.08528346195813e+005,-2.41548279993346e+001,-2.80996982264167e+000

1.10043345451179e+005,-2.41549387963660e+001,-2.84917836453249e+000

1.11579493308032e+005,-2.41550527030588e+001,-2.88893350967784e+000

1.13137084989847e+005,-2.41551698065388e+001,-2.92924285760272e+000

1.14716419841265e+005,-2.41552901963638e+001,-2.97011411261962e+000

1.16317801385624e+005,-2.41554139645922e+001,-3.01155508523653e+000

1.17941537383287e+005,-2.41555412058510e+001,-3.05357369358372e+000

1.19587939890794e+005,-2.41556720174080e+001,-3.09617796485572e+000

1.21257325320831e+005,-2.41558064992442e+001,-3.13937603677327e+000

1.22950014503040e+005,-2.41559447541295e+001,-3.18317615906124e+000

1.24666332745679e+005,-2.41560868876993e+001,-3.22758669494602e+000

1.26406609898139e+005,-2.41562330085341e+001,-3.27261612266993e+000

1.28171180414339e+005,-2.41563832282407e+001,-3.31827303702439e+000

1.29960383416997e+005,-2.41565376615359e+001,-3.36456615090185e+000

1.31774562762811e+005,-2.41566964263326e+001,-3.41150429686523e+000

1.33614067108538e+005,-2.41568596438274e+001,-3.45909642873728e+000

1.35479249978003e+005,-2.41570274385917e+001,-3.50735162320757e+000

1.37370469830040e+005,-2.41571999386647e+001,-3.55627908145869e+000

1.39288090127379e+005,-2.41573772756488e+001,-3.60588813081289e+000

1.41232479406504e+005,-2.41575595848077e+001,-3.65618822639523e+000

1.43204011348474e+005,-2.41577470051673e+001,-3.70718895281818e+000

1.45203064850745e+005,-2.41579396796193e+001,-3.75890002588479e+000

1.47230024099979e+005,-2.41581377550272e+001,-3.81133129431189e+000

1.49285278645888e+005,-2.41583413823357e+001,-3.86449274147101e+000

1.51369223476094e+005,-2.41585507166823e+001,-3.91839448715201e+000

1.53482259092041e+005,-2.41587659175129e+001,-3.97304678934379e+000

1.55624791585964e+005,-2.41589871486999e+001,-4.02846004603622e+000

1.57797232718936e+005,-2.41592145786630e+001,-4.08464479704117e+000

1.59999999999999e+005,-2.41594483804942e+001,-4.14161172583483e+000

1.62233516766403e+005,-2.41596887320854e+001,-4.19937166141828e+000

1.64498212264969e+005,-2.41599358162599e+001,-4.25793558020014e+000

1.66794521734578e+005,-2.41601898209066e+001,-4.31731460789699e+000

1.69122886489819e+005,-2.41604509391192e+001,-4.37752002145695e+000

1.71483754005805e+005,-2.41607193693371e+001,-4.43856325100017e+000

1.73877578004168e+005,-2.41609953154921e+001,-4.50045588178267e+000

1.76304818540256e+005,-2.41612789871573e+001,-4.56320965617768e+000

1.78765942091554e+005,-2.41615705997008e+001,-4.62683647567949e+000

1.81261421647326e+005,-2.41618703744435e+001,-4.69134840292647e+000

1.83791736799524e+005,-2.41621785388202e+001,-4.75675766374367e+000

1.86357373834951e+005,-2.41624953265461e+001,-4.82307664920707e+000

1.88958825828723e+005,-2.41628209777867e+001,-4.89031791772690e+000

1.91596592739027e+005,-2.41631557393328e+001,-4.95849419715141e+000

1.94271181503206e+005,-2.41634998647791e+001,-5.02761838689080e+000

1.96983106135185e+005,-2.41638536147090e+001,-5.09770356006044e+000

1.99732887824256e+005,-2.41642172568824e+001,-5.16876296564455e+000

2.02521055035243e+005,-2.41645910664298e+001,-5.24081003067979e+000

2.05348143610063e+005,-2.41649753260506e+001,-5.31385836245737e+000

2.08214696870707e+005,-2.41653703262170e+001,-5.38792175074574e+000

2.11121265723661e+005,-2.41657763653823e+001,-5.46301417003203e+000

2.14068408765776e+005,-2.41661937501959e+001,-5.53914978178245e+000

2.17056692391625e+005,-2.41666227957222e+001,-5.61634293672197e+000

2.20086690902357e+005,-2.41670638256669e+001,-5.69460817713217e+000

2.23158986616063e+005,-2.41675171726069e+001,-5.77396023916866e+000

2.26274169979693e+005,-2.41679831782280e+001,-5.85441405519478e+000

2.29432839682530e+005,-2.41684621935675e+001,-5.93598475613524e+000

2.32635602771247e+005,-2.41689545792632e+001,-6.01868767384607e+000

2.35883074766574e+005,-2.41694607058088e+001,-6.10253834350191e+000

2.39175879781588e+005,-2.41699809538153e+001,-6.18755250600162e+000

2.42514650641661e+005,-2.41705157142793e+001,-6.27374611038779e+000

2.45900029006080e+005,-2.41710653888580e+001,-6.36113531628578e+000

2.49332665491357e+005,-2.41716303901507e+001,-6.44973649635523e+000

2.52813219796278e+005,-2.41722111419876e+001,-6.53956623875947e+000

2.56342360828676e+005,-2.41728080797255e+001,-6.63064134964773e+000

2.59920766833993e+005,-2.41734216505507e+001,-6.72297885565356e+000

2.63549125525621e+005,-2.41740523137898e+001,-6.81659600640508e+000

2.67228134217075e+005,-2.41747005412272e+001,-6.91151027704997e+000

2.70958499956006e+005,-2.41753668174313e+001,-7.00773937079231e+000

2.74740939660078e+005,-2.41760516400878e+001,-7.10530122144128e+000

2.78576180254757e+005,-2.41767555203417e+001,-7.20421399597155e+000

2.82464958813007e+005,-2.41774789831466e+001,-7.30449609709434e+000

2.86408022696948e+005,-2.41782225676234e+001,-7.40616616583740e+000

2.90406129701488e+005,-2.41789868274268e+001,-7.50924308413546e+000

2.94460048199957e+005,-2.41797723311206e+001,-7.61374597742740e+000

2.98570557291775e+005,-2.41805796625622e+001,-7.71969421726224e+000

3.02738446952187e+005,-2.41814094212958e+001,-7.82710742391062e+000

3.06964518184081e+005,-2.41822622229543e+001,-7.93600546898237e+000

3.11249583171928e+005,-2.41831386996721e+001,-8.04640847804793e+000

3.15594465437872e+005,-2.41840395005056e+001,-8.15833683326457e+000

3.19999999999997e+005,-2.41849652918644e+001,-8.27181117600391e+000

3.24467033532806e+005,-2.41859167579521e+001,-8.38685240948131e+000

3.28996424529938e+005,-2.41868946012174e+001,-8.50348170138525e+000

3.33589043469155e+005,-2.41878995428149e+001,-8.62172048650604e+000

3.38245772979638e+005,-2.41889323230768e+001,-8.74159046936188e+000

3.42967508011610e+005,-2.41899937019944e+001,-8.86311362682173e+000

3.47755156008335e+005,-2.41910844597114e+001,-8.98631221072228e+000

3.52609637080511e+005,-2.41922053970270e+001,-9.11120875047990e+000

3.57531884183106e+005,-2.41933573359108e+001,-9.23782605569395e+000

3.62522843294651e+005,-2.41945411200283e+001,-9.36618721874016e+000

3.67583473599047e+005,-2.41957576152786e+001,-9.49631561735452e+000

3.72714747669902e+005,-2.41970077103428e+001,-9.62823491720275e+000

3.77917651657445e+005,-2.41982923172447e+001,-9.76196907443719e+000

3.83193185478053e+005,-2.41996123719231e+001,-9.89754233823643e+000

3.88542363006410e+005,-2.42009688348164e+001,-1.00349792533270e+001

3.93966212270369e+005,-2.42023626914592e+001,-1.01743046624862e+001

3.99465775648511e+005,-2.42037949530915e+001,-1.03155437090221e+001

4.05042110070485e+005,-2.42052666572798e+001,-1.04587218392301e+001

4.10696287220124e+005,-2.42067788685523e+001,-1.06038648048237e+001

4.16429393741414e+005,-2.42083326790453e+001,-1.07509986653377e+001

4.22242531447321e+005,-2.42099292091635e+001,-1.09001497904995e+001

4.28136817531551e+005,-2.42115696082536e+001,-1.10513448625697e+001

4.34113384783250e+005,-2.42132550552908e+001,-1.12046108786462e+001

4.40173381804713e+005,-2.42149867595785e+001,-1.13599751529321e+001

4.46317973232124e+005,-2.42167659614624e+001,-1.15174653189625e+001

4.52548339959385e+005,-2.42185939330575e+001,-1.16771093317898e+001

4.58865679365059e+005,-2.42204719789897e+001,-1.18389354701224e+001

4.65271205542494e+005,-2.42224014371503e+001,-1.20029723384167e+001

4.71766149533147e+005,-2.42243836794657e+001,-1.21692488689175e+001

4.78351759563174e+005,-2.42264201126810e+001,-1.23377943236444e+001

4.85029301283321e+005,-2.42285121791570e+001,-1.25086382963218e+001

4.91800058012158e+005,-2.42306613576834e+001,-1.26818107142484e+001

4.98665330982714e+005,-2.42328691643047e+001,-1.28573418401038e+001

5.05626439592555e+005,-2.42351371531617e+001,-1.30352622736886e+001

5.12684721657352e+005,-2.42374669173479e+001,-1.32156029535935e+001

5.19841533667984e+005,-2.42398600897798e+001,-1.33983951587974e+001

5.27098251051240e+005,-2.42423183440828e+001,-1.35836705101851e+001

5.34456268434150e+005,-2.42448433954918e+001,-1.37714609719865e+001

5.41916999912011e+005,-2.42474370017665e+001,-1.39617988531312e+001

