Freq.,VOut,OutRef

1.00000000000000e+004,-2.14304528455869e+000,-7.53879102590455e-002

1.01395947979003e+004,-2.14304525401137e+000,-7.64402863772924e-002

1.02811382665607e+004,-2.14304522260528e+000,-7.75073531231676e-002

1.04246576084112e+004,-2.14304519031605e+000,-7.85893155716051e-002

1.05701804056138e+004,-2.14304515711934e+000,-7.96863816562597e-002

1.07177346253629e+004,-2.14304512298905e+000,-8.07987622200123e-002

1.08673486252606e+004,-2.14304508789954e+000,-8.19266710410014e-002

1.10190511587661e+004,-2.14304505182334e+000,-8.30703248892935e-002

1.11728713807222e+004,-2.14304501473278e+000,-8.42299435570987e-002

1.13288388529580e+004,-2.14304497659963e+000,-8.54057499032946e-002

1.14869835499703e+004,-2.14304493739435e+000,-8.65979699012576e-002

1.16473358646846e+004,-2.14304489708689e+000,-8.78068326768812e-002

1.18099266142953e+004,-2.14304485564614e+000,-8.90325705552215e-002

1.19747870461893e+004,-2.14304481304045e+000,-9.02754191035624e-002

1.21419488439505e+004,-2.14304476923707e+000,-9.15356171778551e-002

1.23114441334492e+004,-2.14304472420193e+000,-9.28134069712266e-002

1.24833054890161e+004,-2.14304467790086e+000,-9.41090340527368e-002

1.26575659397028e+004,-2.14304463029801e+000,-9.54227474233156e-002

1.28342589756290e+004,-2.14304458135685e+000,-9.67547995582967e-002

1.30134185544193e+004,-2.14304453103981e+000,-9.81054464569393e-002

1.31950791077289e+004,-2.14304447930815e+000,-9.94749476936355e-002

1.33792755478611e+004,-2.14304442612209e+000,-1.00863566465519e-001

1.35660432744767e+004,-2.14304437144076e+000,-1.02271569643848e-001

1.37554181813974e+004,-2.14304431522229e+000,-1.03699227823978e-001

1.39474366635040e+004,-2.14304425742300e+000,-1.05146815382872e-001

1.41421356237309e+004,-2.14304419799897e+000,-1.06614610522011e-001

1.43395524801583e+004,-2.14304413690423e+000,-1.08102895330667e-001

1.45397251732031e+004,-2.14304407409198e+000,-1.09611955833238e-001

1.47426921729110e+004,-2.14304400951381e+000,-1.11142082049192e-001

1.49484924863494e+004,-2.14304394311988e+000,-1.12693568046678e-001

1.51571656651040e+004,-2.14304387485949e+000,-1.14266711995625e-001

1.53687518128801e+004,-2.14304380468019e+000,-1.15861816230263e-001

1.55832915932100e+004,-2.14304373252761e+000,-1.17479187308032e-001

1.58008262372675e+004,-2.14304365834682e+000,-1.19119136059603e-001

1.60213975517924e+004,-2.14304358208037e+000,-1.20781977660879e-001

1.62450479271247e+004,-2.14304350366966e+000,-1.22468031684966e-001

1.64718203453514e+004,-2.14304342305457e+000,-1.24177622164809e-001

1.67017583885674e+004,-2.14304334017318e+000,-1.25911077657532e-001

1.69349062472505e+004,-2.14304325496167e+000,-1.27668731307906e-001

1.71713087287550e+004,-2.14304316735450e+000,-1.29450920910397e-001

1.74110112659224e+004,-2.14304307728431e+000,-1.31257988975467e-001

1.76540599258131e+004,-2.14304298468196e+000,-1.33090282793647e-001

1.79005014185594e+004,-2.14304288947618e+000,-1.34948154504706e-001

1.81503831063432e+004,-2.14304279159379e+000,-1.36831961163867e-001

1.84037530124975e+004,-2.14304269095953e+000,-1.38742064810528e-001

1.86606598307361e+004,-2.14304258749605e+000,-1.40678832538323e-001

1.89211529345119e+004,-2.14304248112383e+000,-1.42642636564424e-001

1.91852823865052e+004,-2.14304237176105e+000,-1.44633854303373e-001

1.94530989482457e+004,-2.14304225932367e+000,-1.46652868437127e-001

1.97246540898671e+004,-2.14304214372523e+000,-1.48700066990877e-001

1.99999999999999e+004,-2.14304202487684e+000,-1.50775843405154e-001

2.02791895958005e+004,-2.14304190268718e+000,-1.52880596613997e-001

2.05622765331213e+004,-2.14304177706225e+000,-1.55014731119735e-001

2.08493152168224e+004,-2.14304164790561e+000,-1.57178657071046e-001

2.11403608112276e+004,-2.14304151511777e+000,-1.59372790343341e-001

2.14354692507258e+004,-2.14304137859672e+000,-1.61597552616912e-001

2.17346972505211e+004,-2.14304123823754e+000,-1.63853371458161e-001

2.20381023175322e+004,-2.14304109393241e+000,-1.66140680401495e-001

2.23457427614443e+004,-2.14304094557021e+000,-1.68459919035923e-001

2.26576777059159e+004,-2.14304079303700e+000,-1.70811533084268e-001

2.29739670999406e+004,-2.14304063621543e+000,-1.73195974493417e-001

2.32946717293690e+004,-2.14304047498509e+000,-1.75613701517150e-001

2.36198532285905e+004,-2.14304030922180e+000,-1.78065178809278e-001

2.39495740923785e+004,-2.14304013879832e+000,-1.80550877506948e-001

2.42838976879009e+004,-2.14303996358348e+000,-1.83071275326718e-001

2.46228882668982e+004,-2.14303978344270e+000,-1.85626856652186e-001

2.49666109780322e+004,-2.14303959823751e+000,-1.88218112629169e-001

2.53151318794055e+004,-2.14303940782539e+000,-1.90845541260910e-001

2.56685179512580e+004,-2.14303921206009e+000,-1.93509647501220e-001

2.60268371088386e+004,-2.14303901079098e+000,-1.96210943353986e-001

2.63901582154578e+004,-2.14303880386340e+000,-1.98949947969632e-001

2.67585510957221e+004,-2.14303859111830e+000,-2.01727187746229e-001

2.71320865489533e+004,-2.14303837239205e+000,-2.04543196430238e-001

2.75108363627948e+004,-2.14303814751657e+000,-2.07398515218823e-001

2.78948733270080e+004,-2.14303791631881e+000,-2.10293692865394e-001

2.82842712474618e+004,-2.14303767862131e+000,-2.13229285780908e-001

2.86791049603164e+004,-2.14303743424115e+000,-2.16205858146941e-001

2.90794503464061e+004,-2.14303718299038e+000,-2.19223982019841e-001

2.94853843458219e+004,-2.14303692467604e+000,-2.22284237440119e-001

2.98969849726987e+004,-2.14303665909935e+000,-2.25387212548495e-001

3.03143313302078e+004,-2.14303638605631e+000,-2.28533503692889e-001

3.07375036257601e+004,-2.14303610533687e+000,-2.31723715548735e-001

3.11665831864199e+004,-2.14303581672534e+000,-2.34958461230616e-001

3.16016524745350e+004,-2.14303551999972e+000,-2.38238362413956e-001

3.20427951035848e+004,-2.14303521493192e+000,-2.41564049451585e-001

3.24900958542493e+004,-2.14303490128740e+000,-2.44936161495894e-001

3.29436406907028e+004,-2.14303457882510e+000,-2.48355346622005e-001

3.34035167771346e+004,-2.14303424729704e+000,-2.51822261952131e-001

3.38698124945009e+004,-2.14303390644840e+000,-2.55337573781817e-001

3.43426174575100e+004,-2.14303355601703e+000,-2.58901957708620e-001

3.48220225318448e+004,-2.14303319573371e+000,-2.62516098759436e-001

3.53081198516260e+004,-2.14303282532122e+000,-2.66180691527024e-001

3.58010028371187e+004,-2.14303244449498e+000,-2.69896440298046e-001

3.63007662126863e+004,-2.14303205296209e+000,-2.73664059192273e-001

3.68075060249948e+004,-2.14303165042165e+000,-2.77484272298033e-001

3.73213196614721e+004,-2.14303123656404e+000,-2.81357813812864e-001

3.78423058690237e+004,-2.14303081107126e+000,-2.85285428182087e-001

3.83705647730104e+004,-2.14303037361599e+000,-2.89267870245571e-001

3.89061978964912e+004,-2.14302992386206e+000,-2.93305905378503e-001

3.94493081797342e+004,-2.14302946146366e+000,-2.97400309642155e-001

3.99999999999998e+004,-2.14302898606539e+000,-3.01551869930899e-001

4.05583791916010e+004,-2.14302849730155e+000,-3.05761384125968e-001

4.11245530662425e+004,-2.14302799479661e+000,-3.10029661244291e-001

4.16986304336447e+004,-2.14302747816401e+000,-3.14357521599613e-001

4.22807216224550e+004,-2.14302694700664e+000,-3.18745796955743e-001

4.28709385014515e+004,-2.14302640091630e+000,-3.23195330687128e-001

4.34693945010421e+004,-2.14302583947295e+000,-3.27706977944324e-001

4.40762046350642e+004,-2.14302526224510e+000,-3.32281605813730e-001

4.46914855228886e+004,-2.14302466878879e+000,-3.36920093488575e-001

4.53153554118317e+004,-2.14302405864788e+000,-3.41623332433924e-001

4.59479341998812e+004,-2.14302343135331e+000,-3.46392226560420e-001

4.65893434587380e+004,-2.14302278642271e+000,-3.51227692398187e-001

4.72397064571810e+004,-2.14302212336030e+000,-3.56130659271950e-001

4.78991481847569e+004,-2.14302144165639e+000,-3.61102069479237e-001

4.85677953758016e+004,-2.14302074078670e+000,-3.66142878474692e-001

4.92457765337964e+004,-2.14302002021260e+000,-3.71254055048402e-001

4.99332219560642e+004,-2.14301927937986e+000,-3.76436581518309e-001

5.06302637588109e+004,-2.14301851771903e+000,-3.81691453913477e-001

5.13370359025159e+004,-2.14301773464461e+000,-3.87019682168424e-001

5.20536742176771e+004,-2.14301692955441e+000,-3.92422290318029e-001

5.27803164309155e+004,-2.14301610182949e+000,-3.97900316692345e-001

5.35171021914442e+004,-2.14301525083351e+000,-4.03454814116770e-001

5.42641730979066e+004,-2.14301437591221e+000,-4.09086850114867e-001

5.50216727255895e+004,-2.14301347639285e+000,-4.14797507114352e-001

5.57897466540159e+004,-2.14301255158394e+000,-4.20587882653094e-001

5.65685424949235e+004,-2.14301160077436e+000,-4.26459089591928e-001

5.73582099206328e+004,-2.14301062323316e+000,-4.32412256327957e-001

5.81589006928121e+004,-2.14300961820871e+000,-4.38448527011799e-001

5.89707686916437e+004,-2.14300858492841e+000,-4.44569061765814e-001

5.97939699453972e+004,-2.14300752259774e+000,-4.50775036910386e-001

6.06286626604156e+004,-2.14300643040000e+000,-4.57067645187387e-001

6.14750072515201e+004,-2.14300530749538e+000,-4.63448095990867e-001

6.23331663728396e+004,-2.14300415302064e+000,-4.69917615598009e-001

6.32033049490698e+004,-2.14300296608804e+000,-4.76477447407760e-001

6.40855902071694e+004,-2.14300174578510e+000,-4.83128852176287e-001

6.49801917084985e+004,-2.14300049117348e+000,-4.89873108262974e-001

6.58872813814055e+004,-2.14299920128878e+000,-4.96711511872091e-001

6.68070335542691e+004,-2.14299787513903e+000,-5.03645377307172e-001

6.77396249890018e+004,-2.14299651170461e+000,-5.10676037219361e-001

6.86852349150199e+004,-2.14299510993746e+000,-5.17804842864428e-001

6.96440450636895e+004,-2.14299366875956e+000,-5.25033164365352e-001

7.06162397032520e+004,-2.14299218706301e+000,-5.32362390972056e-001

7.16020056742374e+004,-2.14299066370846e+000,-5.39793931331587e-001

7.26015324253724e+004,-2.14298909752468e+000,-5.47329213757068e-001

7.36150120499896e+004,-2.14298748730749e+000,-5.54969686502504e-001

7.46426393229441e+004,-2.14298583181886e+000,-5.62716818042242e-001

7.56846117380472e+004,-2.14298412978579e+000,-5.70572097353661e-001

7.67411295460207e+004,-2.14298237989973e+000,-5.78537034200925e-001

7.78123957929823e+004,-2.14298058081509e+000,-5.86613159428690e-001

7.88986163594682e+004,-2.14297873114869e+000,-5.94802025253482e-001

7.99999999999995e+004,-2.14297682947834e+000,-6.03105205564175e-001

8.11167583832018e+004,-2.14297487434187e+000,-6.11524296224313e-001

8.22491061324848e+004,-2.14297286423583e+000,-6.20060915379187e-001

8.33972608672892e+004,-2.14297079761469e+000,-6.28716703766054e-001

8.45614432449099e+004,-2.14296867288951e+000,-6.37493325029626e-001

8.57418770029029e+004,-2.14296648842643e+000,-6.46392466044462e-001

8.69387890020841e+004,-2.14296424254582e+000,-6.55415837236376e-001

8.81524092701283e+004,-2.14296193352090e+000,-6.64565172912152e-001

8.93829710457770e+004,-2.14295955957607e+000,-6.73842231595574e-001

9.06307108236633e+004,-2.14295711888603e+000,-6.83248796361788e-001

9.18958683997622e+004,-2.14295460957395e+000,-6.92786675184012e-001

9.31786869174758e+004,-2.14295202971034e+000,-7.02457701278679e-001

9.44794129143618e+004,-2.14294937731159e+000,-7.12263733458015e-001

9.57982963695136e+004,-2.14294665033796e+000,-7.22206656490761e-001

9.71355907516031e+004,-2.14294384669268e+000,-7.32288381460427e-001

9.84915530675926e+004,-2.14294096421981e+000,-7.42510846136448e-001

9.98664439121282e+004,-2.14293800070288e+000,-7.52876015344541e-001

1.01260527517622e+005,-2.14293495386297e+000,-7.63385881347126e-001

1.02674071805032e+005,-2.14293182135726e+000,-7.74042464223568e-001

1.04107348435354e+005,-2.14292860077687e+000,-7.84847812261653e-001

1.05560632861831e+005,-2.14292528964524e+000,-7.95804002350261e-001

1.07034204382888e+005,-2.14292188541619e+000,-8.06913140379128e-001

1.08528346195813e+005,-2.14291838547187e+000,-8.18177361644282e-001

1.10043345451179e+005,-2.14291478712080e+000,-8.29598831259391e-001

1.11579493308032e+005,-2.14291108759589e+000,-8.41179744570986e-001

1.13137084989847e+005,-2.14290728405207e+000,-8.52922327582465e-001

1.14716419841265e+005,-2.14290337356454e+000,-8.64828837380828e-001

1.16317801385624e+005,-2.14289935312578e+000,-8.76901562574033e-001

1.17941537383287e+005,-2.14289521964424e+000,-8.89142823726671e-001

1.19587939890794e+005,-2.14289096994091e+000,-9.01554973812279e-001

1.21257325320831e+005,-2.14288660074762e+000,-9.14140398661450e-001

1.22950014503040e+005,-2.14288210870428e+000,-9.26901517423754e-001

1.24666332745679e+005,-2.14287749035622e+000,-9.39840783032458e-001

1.26406609898139e+005,-2.14287274215168e+000,-9.52960682676548e-001

1.28171180414339e+005,-2.14286786043888e+000,-9.66263738280542e-001

1.29960383416997e+005,-2.14286284146331e+000,-9.79752506989645e-001

1.31774562762811e+005,-2.14285768136506e+000,-9.93429581660416e-001

1.33614067108538e+005,-2.14285237617547e+000,-1.00729759136231e+000

1.35479249978003e+005,-2.14284692181420e+000,-1.02135920188352e+000

1.37370469830040e+005,-2.14284131408624e+000,-1.03561711624296e+000

1.39288090127379e+005,-2.14283554867857e+000,-1.05007407521157e+000

1.41232479406504e+005,-2.14282962115680e+000,-1.06473285784034e+000

1.43204011348474e+005,-2.14282352696182e+000,-1.07959628199574e+000

1.45203064850745e+005,-2.14281726140622e+000,-1.09466720490158e+000

1.47230024099979e+005,-2.14281081967073e+000,-1.10994852369058e+000

1.49285278645888e+005,-2.14280419680058e+000,-1.12544317596067e+000

1.51369223476094e+005,-2.14279738770156e+000,-1.14115414034278e+000

1.53482259092041e+005,-2.14279038713610e+000,-1.15708443707369e+000

1.55624791585964e+005,-2.14278318971925e+000,-1.17323712857853e+000

1.57797232718936e+005,-2.14277578991476e+000,-1.18961532005944e+000

1.59999999999999e+005,-2.14276818203034e+000,-1.20622216009623e+000

1.62233516766403e+005,-2.14276036021371e+000,-1.22306084125099e+000

1.64498212264969e+005,-2.14275231844793e+000,-1.24013460068486e+000

1.66794521734578e+005,-2.14274405054674e+000,-1.25744672078091e+000

1.69122886489819e+005,-2.14273555014974e+000,-1.27500052977789e+000

1.71483754005805e+005,-2.14272681071766e+000,-1.29279940241107e+000

1.73877578004168e+005,-2.14271782552717e+000,-1.31084676056312e+000

1.76304818540256e+005,-2.14270858766587e+000,-1.32914607392364e+000

1.78765942091554e+005,-2.14269909002661e+000,-1.34770086065916e+000

1.81261421647326e+005,-2.14268932530246e+000,-1.36651468809046e+000

1.83791736799524e+005,-2.14267928598076e+000,-1.38559117338098e+000

1.86357373834951e+005,-2.14266896433747e+000,-1.40493398423483e+000

1.88958825828723e+005,-2.14265835243119e+000,-1.42454683960418e+000

1.91596592739027e+005,-2.14264744209699e+000,-1.44443351040657e+000

1.94271181503206e+005,-2.14263622494013e+000,-1.46459782025267e+000

1.96983106135185e+005,-2.14262469232971e+000,-1.48504364618392e+000

1.99732887824256e+005,-2.14261283539185e+000,-1.50577491942113e+000

2.02521055035243e+005,-2.14260064500280e+000,-1.52679562612362e+000

2.05348143610063e+005,-2.14258811178225e+000,-1.54810980815712e+000

2.08214696870707e+005,-2.14257522608565e+000,-1.56972156387649e+000

2.11121265723661e+005,-2.14256197799705e+000,-1.59163504891495e+000

2.14068408765776e+005,-2.14254835732138e+000,-1.61385447698838e+000

2.17056692391625e+005,-2.14253435357665e+000,-1.63638412070720e+000

2.20086690902357e+005,-2.14251995598567e+000,-1.65922831240419e+000

2.23158986616063e+005,-2.14250515346802e+000,-1.68239144496930e+000

2.26274169979693e+005,-2.14248993463118e+000,-1.70587797269999e+000

2.29432839682530e+005,-2.14247428776198e+000,-1.72969241216166e+000

2.32635602771247e+005,-2.14245820081753e+000,-1.75383934306010e+000

2.35883074766574e+005,-2.14244166141586e+000,-1.77832340912764e+000

2.39175879781588e+005,-2.14242465682628e+000,-1.80314931902172e+000

2.42514650641661e+005,-2.14240717395980e+000,-1.82832184723338e+000

2.45900029006080e+005,-2.14238919935888e+000,-1.85384583501292e+000

2.49332665491357e+005,-2.14237071918692e+000,-1.87972619130597e+000

2.52813219796278e+005,-2.14235171921782e+000,-1.90596789370290e+000

2.56342360828676e+005,-2.14233218482481e+000,-1.93257598940294e+000

2.59920766833993e+005,-2.14231210096934e+000,-1.95955559619045e+000

2.63549125525621e+005,-2.14229145218923e+000,-1.98691190342700e+000

2.67228134217075e+005,-2.14227022258697e+000,-2.01465017305559e+000

2.70958499956006e+005,-2.14224839581726e+000,-2.04277574061991e+000

2.74740939660078e+005,-2.14222595507448e+000,-2.07129401629920e+000

2.78576180254757e+005,-2.14220288307966e+000,-2.10021048595599e+000

2.82464958813007e+005,-2.14217916206724e+000,-2.12953071219927e+000

2.86408022696948e+005,-2.14215477377123e+000,-2.15926033546427e+000

2.90406129701488e+005,-2.14212969941114e+000,-2.18940507510516e+000

2.94460048199957e+005,-2.14210391967742e+000,-2.21997073050652e+000

2.98570557291775e+005,-2.14207741471676e+000,-2.25096318220660e+000

3.02738446952187e+005,-2.14205016411639e+000,-2.28238839304078e+000

3.06964518184081e+005,-2.14202214688866e+000,-2.31425240929846e+000

3.11249583171928e+005,-2.14199334145460e+000,-2.34656136189774e+000

3.15594465437872e+005,-2.14196372562733e+000,-2.37932146757690e+000

3.19999999999997e+005,-2.14193327659499e+000,-2.41253903010238e+000

3.24467033532806e+005,-2.14190197090289e+000,-2.44622044149527e+000

3.28996424529938e+005,-2.14186978443564e+000,-2.48037218327322e+000

3.33589043469155e+005,-2.14183669239836e+000,-2.51500082771318e+000

3.38245772979638e+005,-2.14180266929752e+000,-2.55011303912925e+000

3.42967508011610e+005,-2.14176768892145e+000,-2.58571557517122e+000

3.47755156008335e+005,-2.14173172431971e+000,-2.62181528814074e+000

3.52609637080511e+005,-2.14169474778260e+000,-2.65841912632664e+000

3.57531884183106e+005,-2.14165673081967e+000,-2.69553413535929e+000

3.62522843294651e+005,-2.14161764413749e+000,-2.73316745958519e+000

3.67583473599047e+005,-2.14157745761736e+000,-2.77132634346087e+000

3.72714747669902e+005,-2.14153614029175e+000,-2.81001813296726e+000

3.77917651657445e+005,-2.14149366032061e+000,-2.84925027704363e+000

3.83193185478053e+005,-2.14144998496644e+000,-2.88903032904478e+000

3.88542363006410e+005,-2.14140508056951e+000,-2.92936594821523e+000

3.93966212270369e+005,-2.14135891252131e+000,-2.97026490119018e+000

3.99465775648511e+005,-2.14131144523819e+000,-3.01173506351346e+000

4.05042110070485e+005,-2.14126264213379e+000,-3.05378442118000e+000

4.10696287220124e+005,-2.14121246559063e+000,-3.09642107220156e+000

4.16429393741414e+005,-2.14116087693136e+000,-3.13965322819223e+000

4.22242531447321e+005,-2.14110783638861e+000,-3.18348921598126e+000

4.28136817531551e+005,-2.14105330307448e+000,-3.22793747924564e+000

4.34113384783250e+005,-2.14099723494897e+000,-3.27300658016940e+000

4.40173381804713e+005,-2.14093958878741e+000,-3.31870520112586e+000

4.46317973232124e+005,-2.14088032014728e+000,-3.36504214638516e+000

4.52548339959385e+005,-2.14081938333381e+000,-3.41202634384697e+000

4.58865679365059e+005,-2.14075673136486e+000,-3.45966684679807e+000

4.65271205542494e+005,-2.14069231593456e+000,-3.50797283569742e+000

4.71766149533147e+005,-2.14062608737628e+000,-3.55695361998578e+000

4.78351759563174e+005,-2.14055799462416e+000,-3.60661863992373e+000

4.85029301283321e+005,-2.14048798517389e+000,-3.65697746845643e+000

4.91800058012158e+005,-2.14041600504226e+000,-3.70803981310601e+000

4.98665330982714e+005,-2.14034199872564e+000,-3.75981551789189e+000

5.05626439592555e+005,-2.14026590915733e+000,-3.81231456528062e+000

5.12684721657352e+005,-2.14018767766351e+000,-3.86554707816488e+000

5.19841533667984e+005,-2.14010724391828e+000,-3.91952332187089e+000

5.27098251051240e+005,-2.14002454589730e+000,-3.97425370619725e+000

5.34456268434150e+005,-2.13993951983014e+000,-4.02974878748430e+000

5.41916999912011e+005,-2.13985210015133e+000,-4.08601927071441e+000

