Freq.,VOut,OutRef

1.00000000000000e+004,-1.86572832217655e+001,-1.81627022360483e-001

1.01395947979003e+004,-1.86572835710942e+001,-1.84162436643874e-001

1.02811382665607e+004,-1.86572839302435e+001,-1.86733243803238e-001

1.04246576084112e+004,-1.86572842994899e+001,-1.89339937894269e-001

1.05701804056138e+004,-1.86572846791169e+001,-1.91983019873884e-001

1.07177346253629e+004,-1.86572850694168e+001,-1.94662997686791e-001

1.08673486252606e+004,-1.86572854706891e+001,-1.97380386372901e-001

1.10190511587661e+004,-1.86572858832425e+001,-2.00135708157942e-001

1.11728713807222e+004,-1.86572863073943e+001,-2.02929492557949e-001

1.13288388529580e+004,-1.86572867434703e+001,-2.05762276481917e-001

1.14869835499703e+004,-1.86572871918058e+001,-2.08634604331258e-001

1.16473358646846e+004,-1.86572876527455e+001,-2.11547028107543e-001

1.18099266142953e+004,-1.86572881266437e+001,-2.14500107517266e-001

1.19747870461893e+004,-1.86572886138648e+001,-2.17494410079355e-001

1.21419488439505e+004,-1.86572891147832e+001,-2.20530511236103e-001

1.23114441334492e+004,-1.86572896297841e+001,-2.23608994459327e-001

1.24833054890161e+004,-1.86572901592633e+001,-2.26730451368032e-001

1.26575659397028e+004,-1.86572907036278e+001,-2.29895481837174e-001

1.28342589756290e+004,-1.86572912632962e+001,-2.33104694116345e-001

1.30134185544193e+004,-1.86572918386986e+001,-2.36358704945329e-001

1.31950791077289e+004,-1.86572924302773e+001,-2.39658139672174e-001

1.33792755478611e+004,-1.86572930384870e+001,-2.43003632374101e-001

1.35660432744767e+004,-1.86572936637956e+001,-2.46395825977143e-001

1.37554181813974e+004,-1.86572943066835e+001,-2.49835372384619e-001

1.39474366635040e+004,-1.86572949676447e+001,-2.53322932598023e-001

1.41421356237309e+004,-1.86572956471877e+001,-2.56859176843883e-001

1.43395524801583e+004,-1.86572963458348e+001,-2.60444784704787e-001

1.45397251732031e+004,-1.86572970641228e+001,-2.64080445251459e-001

1.47426921729110e+004,-1.86572978026040e+001,-2.67766857168224e-001

1.49484924863494e+004,-1.86572985618461e+001,-2.71504728895213e-001

1.51571656651040e+004,-1.86572993424327e+001,-2.75294778759133e-001

1.53687518128801e+004,-1.86573001449638e+001,-2.79137735115009e-001

1.55832915932100e+004,-1.86573009700564e+001,-2.83034336481989e-001

1.58008262372675e+004,-1.86573018183446e+001,-2.86985331689420e-001

1.60213975517924e+004,-1.86573026904807e+001,-2.90991480016549e-001

1.62450479271247e+004,-1.86573035871348e+001,-2.95053551342891e-001

1.64718203453514e+004,-1.86573045089964e+001,-2.99172326292245e-001

1.67017583885674e+004,-1.86573054567739e+001,-3.03348596384952e-001

1.69349062472505e+004,-1.86573064311961e+001,-3.07583164187957e-001

1.71713087287550e+004,-1.86573074330117e+001,-3.11876843471980e-001

1.74110112659224e+004,-1.86573084629911e+001,-3.16230459364124e-001

1.76540599258131e+004,-1.86573095219258e+001,-3.20644848510194e-001

1.79005014185594e+004,-1.86573106106299e+001,-3.25120859231571e-001

1.81503831063432e+004,-1.86573117299402e+001,-3.29659351691236e-001

1.84037530124975e+004,-1.86573128807170e+001,-3.34261198057363e-001

1.86606598307361e+004,-1.86573140638449e+001,-3.38927282671974e-001

1.89211529345119e+004,-1.86573152802335e+001,-3.43658502218270e-001

1.91852823865052e+004,-1.86573165308176e+001,-3.48455765896880e-001

1.94530989482457e+004,-1.86573178165584e+001,-3.53319995597013e-001

1.97246540898671e+004,-1.86573191384444e+001,-3.58252126074507e-001

1.99999999999999e+004,-1.86573204974914e+001,-3.63253105133099e-001

2.02791895958005e+004,-1.86573218947443e+001,-3.68323893802977e-001

2.05622765331213e+004,-1.86573233312769e+001,-3.73465466528324e-001

2.08493152168224e+004,-1.86573248081934e+001,-3.78678811353859e-001

2.11403608112276e+004,-1.86573263266290e+001,-3.83964930113244e-001

2.14354692507258e+004,-1.86573278877508e+001,-3.89324838623069e-001

2.17346972505211e+004,-1.86573294927588e+001,-3.94759566876540e-001

2.20381023175322e+004,-1.86573311428866e+001,-4.00270159242781e-001

2.23457427614443e+004,-1.86573328394025e+001,-4.05857674665786e-001

2.26576777059159e+004,-1.86573345836103e+001,-4.11523186869003e-001

2.29739670999406e+004,-1.86573363768509e+001,-4.17267784560686e-001

2.32946717293690e+004,-1.86573382205024e+001,-4.23092571642876e-001

2.36198532285905e+004,-1.86573401159818e+001,-4.28998667424950e-001

2.39495740923785e+004,-1.86573420647461e+001,-4.34987206836131e-001

2.42838976879009e+004,-1.86573440682930e+001,-4.41059340644434e-001

2.46228882668982e+004,-1.86573461281624e+001,-4.47216235678957e-001

2.49666109780322e+004,-1.86573482459373e+001,-4.53459075051565e-001

2.53151318794055e+004,-1.86573504232457e+001,-4.59789058384863e-001

2.56685179512580e+004,-1.86573526617606e+001,-4.66207402043899e-001

2.60268371088386e+004,-1.86573549632027e+001,-4.72715339367113e-001

2.63901582154578e+004,-1.86573573293407e+001,-4.79314120905082e-001

2.67585510957221e+004,-1.86573597619931e+001,-4.86005014659149e-001

2.71320865489533e+004,-1.86573622630295e+001,-4.92789306326786e-001

2.75108363627948e+004,-1.86573648343719e+001,-4.99668299546440e-001

2.78948733270080e+004,-1.86573674779965e+001,-5.06643316148289e-001

2.82842712474618e+004,-1.86573701959351e+001,-5.13715696408017e-001

2.86791049603164e+004,-1.86573729902763e+001,-5.20886799304075e-001

2.90794503464061e+004,-1.86573758631677e+001,-5.28158002778458e-001

2.94853843458219e+004,-1.86573788168169e+001,-5.35530704001617e-001

2.98969849726987e+004,-1.86573818534939e+001,-5.43006319639441e-001

3.03143313302078e+004,-1.86573849755323e+001,-5.50586286125738e-001

3.07375036257601e+004,-1.86573881853313e+001,-5.58272059937880e-001

3.11665831864199e+004,-1.86573914853575e+001,-5.66065117875982e-001

3.16016524745350e+004,-1.86573948781468e+001,-5.73966957347292e-001

3.20427951035848e+004,-1.86573983663063e+001,-5.81979096651109e-001

3.24900958542493e+004,-1.86574019525166e+001,-5.90103075272849e-001

3.29436406907028e+004,-1.86574056395333e+001,-5.98340454176880e-001

3.34035167771346e+004,-1.86574094301897e+001,-6.06692816107867e-001

3.38698124945009e+004,-1.86574133273983e+001,-6.15161765893525e-001

3.43426174575100e+004,-1.86574173341539e+001,-6.23748930752292e-001

3.48220225318448e+004,-1.86574214535353e+001,-6.32455960604432e-001

3.53081198516260e+004,-1.86574256887076e+001,-6.41284528391610e-001

3.58010028371187e+004,-1.86574300429249e+001,-6.50236330394155e-001

3.63007662126863e+004,-1.86574345195328e+001,-6.59313086558123e-001

3.68075060249948e+004,-1.86574391219710e+001,-6.68516540824468e-001

3.73213196614721e+004,-1.86574438537756e+001,-6.77848461464565e-001

3.78423058690237e+004,-1.86574487185820e+001,-6.87310641416858e-001

3.83705647730104e+004,-1.86574537201279e+001,-6.96904898633749e-001

3.89061978964912e+004,-1.86574588622561e+001,-7.06633076426402e-001

3.94493081797342e+004,-1.86574641489169e+001,-7.16497043821670e-001

3.99999999999998e+004,-1.86574695841720e+001,-7.26498695916974e-001

4.05583791916010e+004,-1.86574751721970e+001,-7.36639954246257e-001

4.11245530662425e+004,-1.86574809172847e+001,-7.46922767146546e-001

4.16986304336447e+004,-1.86574868238488e+001,-7.57349110131536e-001

4.22807216224550e+004,-1.86574928964264e+001,-7.67920986270559e-001

4.28709385014515e+004,-1.86574991396826e+001,-7.78640426572459e-001

4.34693945010421e+004,-1.86575055584133e+001,-7.89509490372708e-001

4.40762046350642e+004,-1.86575121575488e+001,-8.00530265731297e-001

4.46914855228886e+004,-1.86575189421584e+001,-8.11704869828630e-001

4.53153554118317e+004,-1.86575259174533e+001,-8.23035449375364e-001

4.59479341998812e+004,-1.86575330887913e+001,-8.34524181018769e-001

4.65893434587380e+004,-1.86575404616805e+001,-8.46173271762984e-001

4.72397064571810e+004,-1.86575480417837e+001,-8.57984959391336e-001

4.78991481847569e+004,-1.86575558349227e+001,-8.69961512891477e-001

4.85677953758016e+004,-1.86575638470829e+001,-8.82105232894158e-001

4.92457765337964e+004,-1.86575720844174e+001,-8.94418452109964e-001

4.99332219560642e+004,-1.86575805532525e+001,-9.06903535777334e-001

5.06302637588109e+004,-1.86575892600917e+001,-9.19562882114781e-001

5.13370359025159e+004,-1.86575982116213e+001,-9.32398922780241e-001

5.20536742176771e+004,-1.86576074147152e+001,-9.45414123334995e-001

5.27803164309155e+004,-1.86576168764404e+001,-9.58610983716285e-001

5.35171021914442e+004,-1.86576266040620e+001,-9.71992038715038e-001

5.42641730979066e+004,-1.86576366050493e+001,-9.85559858460428e-001

5.50216727255895e+004,-1.86576468870811e+001,-9.99317048911080e-001

5.57897466540159e+004,-1.86576574580516e+001,-1.01326625235413e+000

5.65685424949235e+004,-1.86576683260767e+001,-1.02741014790927e+000

5.73582099206328e+004,-1.86576794995001e+001,-1.04175145204056e+000

5.81589006928121e+004,-1.86576909868995e+001,-1.05629291907668e+000

5.89707686916437e+004,-1.86577027970932e+001,-1.07103734173568e+000

5.97939699453972e+004,-1.86577149391473e+001,-1.08598755165913e+000

6.06286626604156e+004,-1.86577274223818e+001,-1.10114641995316e+000

6.14750072515201e+004,-1.86577402563785e+001,-1.11651685773549e+000

6.23331663728396e+004,-1.86577534509879e+001,-1.13210181669278e+000

6.32033049490698e+004,-1.86577670163368e+001,-1.14790428964271e+000

6.40855902071694e+004,-1.86577809628361e+001,-1.16392731110559e+000

6.49801917084985e+004,-1.86577953011886e+001,-1.18017395788327e+000

6.58872813814055e+004,-1.86578100423974e+001,-1.19664734964537e+000

6.68070335542691e+004,-1.86578251977741e+001,-1.21335064952598e+000

6.77396249890018e+004,-1.86578407789476e+001,-1.23028706472467e+000

6.86852349150199e+004,-1.86578567978728e+001,-1.24745984711962e+000

6.96440450636895e+004,-1.86578732668398e+001,-1.26487229388613e+000

7.06162397032520e+004,-1.86578901984832e+001,-1.28252774812578e+000

7.16020056742374e+004,-1.86579076057921e+001,-1.30042959950184e+000

7.26015324253724e+004,-1.86579255021192e+001,-1.31858128488747e+000

7.36150120499896e+004,-1.86579439011919e+001,-1.33698628901637e+000

7.46426393229441e+004,-1.86579628171223e+001,-1.35564814514972e+000

7.56846117380472e+004,-1.86579822644178e+001,-1.37457043574664e+000

7.67411295460207e+004,-1.86580022579924e+001,-1.39375679314565e+000

7.78123957929823e+004,-1.86580228131780e+001,-1.41321090025649e+000

7.88986163594682e+004,-1.86580439457361e+001,-1.43293649125954e+000

7.99999999999995e+004,-1.86580656718699e+001,-1.45293735231542e+000

8.11167583832018e+004,-1.86580880082361e+001,-1.47321732228571e+000

8.22491061324848e+004,-1.86581109719582e+001,-1.49378029346109e+000

8.33972608672892e+004,-1.86581345806391e+001,-1.51463021230123e+000

8.45614432449099e+004,-1.86581588523750e+001,-1.53577108018221e+000

8.57418770029029e+004,-1.86581838057684e+001,-1.55720695415893e+000

8.69387890020841e+004,-1.86582094599427e+001,-1.57894194773159e+000

8.81524092701283e+004,-1.86582358345567e+001,-1.60098023162805e+000

8.93829710457770e+004,-1.86582629498195e+001,-1.62332603459360e+000

9.06307108236633e+004,-1.86582908265057e+001,-1.64598364419192e+000

9.18958683997622e+004,-1.86583194859713e+001,-1.66895740761762e+000

9.31786869174758e+004,-1.86583489501697e+001,-1.69225173251989e+000

9.44794129143618e+004,-1.86583792416687e+001,-1.71587108783548e+000

9.57982963695136e+004,-1.86584103836672e+001,-1.73982000463542e+000

9.71355907516031e+004,-1.86584424000128e+001,-1.76410307698135e+000

9.84915530675926e+004,-1.86584753152204e+001,-1.78872496279359e+000

9.98664439121282e+004,-1.86585091544901e+001,-1.81369038473156e+000

1.01260527517622e+005,-1.86585439437263e+001,-1.83900413108561e+000

1.02674071805032e+005,-1.86585797095577e+001,-1.86467105668067e+000

1.04107348435354e+005,-1.86586164793572e+001,-1.89069608379228e+000

1.05560632861831e+005,-1.86586542812624e+001,-1.91708420307450e+000

1.07034204382888e+005,-1.86586931441973e+001,-1.94384047450136e+000

1.08528346195813e+005,-1.86587330978934e+001,-1.97097002831833e+000

1.10043345451179e+005,-1.86587741729130e+001,-1.99847806600944e+000

1.11579493308032e+005,-1.86588164006713e+001,-2.02636986127639e+000

1.13137084989847e+005,-1.86588598134610e+001,-2.05465076102796e+000

1.14716419841265e+005,-1.86589044444758e+001,-2.08332618638763e+000

1.16317801385624e+005,-1.86589503278358e+001,-2.11240163370985e+000

1.17941537383287e+005,-1.86589974986133e+001,-2.14188267561184e+000

1.19587939890794e+005,-1.86590459928586e+001,-2.17177496202016e+000

1.21257325320831e+005,-1.86590958476277e+001,-2.20208422122824e+000

1.22950014503040e+005,-1.86591471010095e+001,-2.23281626097027e+000

1.24666332745679e+005,-1.86591997921550e+001,-2.26397696950802e+000

1.26406609898139e+005,-1.86592539613063e+001,-2.29557231673217e+000

1.28171180414339e+005,-1.86593096498264e+001,-2.32760835527931e+000

1.29960383416997e+005,-1.86593669002311e+001,-2.36009122165961e+000

1.31774562762811e+005,-1.86594257562197e+001,-2.39302713740590e+000

1.33614067108538e+005,-1.86594862627085e+001,-2.42642241023015e+000

1.35479249978003e+005,-1.86595484658639e+001,-2.46028343520181e+000

1.37370469830040e+005,-1.86596124131371e+001,-2.49461669593575e+000

1.39288090127379e+005,-1.86596781532993e+001,-2.52942876580031e+000

1.41232479406504e+005,-1.86597457364779e+001,-2.56472630913777e+000

1.43204011348474e+005,-1.86598152141942e+001,-2.60051608250203e+000

1.45203064850745e+005,-1.86598866394015e+001,-2.63680493591179e+000

1.47230024099979e+005,-1.86599600665244e+001,-2.67359981412038e+000

1.49285278645888e+005,-1.86600355514993e+001,-2.71090775790086e+000

1.51369223476094e+005,-1.86601131518158e+001,-2.74873590534892e+000

1.53482259092041e+005,-1.86601929265593e+001,-2.78709149320114e+000

1.55624791585964e+005,-1.86602749364548e+001,-2.82598185817080e+000

1.57797232718936e+005,-1.86603592439117e+001,-2.86541443830038e+000

1.59999999999999e+005,-1.86604459130700e+001,-2.90539677433204e+000

1.62233516766403e+005,-1.86605350098477e+001,-2.94593651109322e+000

1.64498212264969e+005,-1.86606266019889e+001,-2.98704139890232e+000

1.66794521734578e+005,-1.86607207591144e+001,-3.02871929499074e+000

1.69122886489819e+005,-1.86608175527722e+001,-3.07097816494250e+000

1.71483754005805e+005,-1.86609170564906e+001,-3.11382608415306e+000

1.73877578004168e+005,-1.86610193458317e+001,-3.15727123930436e+000

1.76304818540256e+005,-1.86611244984471e+001,-3.20132192986059e+000

1.78765942091554e+005,-1.86612325941345e+001,-3.24598656958049e+000

1.81261421647326e+005,-1.86613437148958e+001,-3.29127368804986e+000

1.83791736799524e+005,-1.86614579449977e+001,-3.33719193223105e+000

1.86357373834951e+005,-1.86615753710322e+001,-3.38375006803397e+000

1.88958825828723e+005,-1.86616960819800e+001,-3.43095698190358e+000

1.91596592739027e+005,-1.86618201692755e+001,-3.47882168242925e+000

1.94271181503206e+005,-1.86619477268725e+001,-3.52735330197175e+000

1.96983106135185e+005,-1.86620788513125e+001,-3.57656109831082e+000

1.99732887824256e+005,-1.86622136417947e+001,-3.62645445631272e+000

2.02521055035243e+005,-1.86623522002475e+001,-3.67704288961672e+000

2.05348143610063e+005,-1.86624946314018e+001,-3.72833604234360e+000

2.08214696870707e+005,-1.86626410428669e+001,-3.78034369082240e+000

2.11121265723661e+005,-1.86627915452070e+001,-3.83307574533934e+000

2.14068408765776e+005,-1.86629462520213e+001,-3.88654225190588e+000

2.17056692391625e+005,-1.86631052800249e+001,-3.94075339404920e+000

2.20086690902357e+005,-1.86632687491320e+001,-3.99571949462239e+000

2.23158986616063e+005,-1.86634367825421e+001,-4.05145101763617e+000

2.26274169979693e+005,-1.86636095068268e+001,-4.10795857011156e+000

2.29432839682530e+005,-1.86637870520208e+001,-4.16525290395418e+000

2.32635602771247e+005,-1.86639695517130e+001,-4.22334491785036e+000

2.35883074766574e+005,-1.86641571431416e+001,-4.28224565918442e+000

2.39175879781588e+005,-1.86643499672910e+001,-4.34196632597732e+000

2.42514650641661e+005,-1.86645481689909e+001,-4.40251826884843e+000

2.45900029006080e+005,-1.86647518970183e+001,-4.46391299299866e+000

2.49332665491357e+005,-1.86649613042016e+001,-4.52616216021504e+000

2.52813219796278e+005,-1.86651765475278e+001,-4.58927759089892e+000

2.56342360828676e+005,-1.86653977882519e+001,-4.65327126611645e+000

2.59920766833993e+005,-1.86656251920092e+001,-4.71815532966950e+000

2.63549125525621e+005,-1.86658589289305e+001,-4.78394209019294e+000

2.67228134217075e+005,-1.86660991737596e+001,-4.85064402327080e+000

2.70958499956006e+005,-1.86663461059748e+001,-4.91827377357744e+000

2.74740939660078e+005,-1.86665999099117e+001,-4.98684415704230e+000

2.78576180254757e+005,-1.86668607748905e+001,-5.05636816303503e+000

2.82464958813007e+005,-1.86671288953458e+001,-5.12685895657633e+000

2.86408022696948e+005,-1.86674044709591e+001,-5.19832988057092e+000

2.90406129701488e+005,-1.86676877067953e+001,-5.27079445806362e+000

2.94460048199957e+005,-1.86679788134422e+001,-5.34426639451923e+000

2.98570557291775e+005,-1.86682780071526e+001,-5.41875958012615e+000

3.02738446952187e+005,-1.86685855099911e+001,-5.49428809212221e+000

3.06964518184081e+005,-1.86689015499834e+001,-5.57086619714600e+000

3.11249583171928e+005,-1.86692263612693e+001,-5.64850835360975e+000

3.15594465437872e+005,-1.86695601842595e+001,-5.72722921409847e+000

3.19999999999997e+005,-1.86699032657964e+001,-5.80704362778955e+000

3.24467033532806e+005,-1.86702558593177e+001,-5.88796664289943e+000

3.28996424529938e+005,-1.86706182250246e+001,-5.97001350915231e+000

3.33589043469155e+005,-1.86709906300538e+001,-6.05319968027242e+000

3.38245772979638e+005,-1.86713733486535e+001,-6.13754081650171e+000

3.42967508011610e+005,-1.86717666623626e+001,-6.22305278714030e+000

3.47755156008335e+005,-1.86721708601958e+001,-6.30975167311119e+000

3.52609637080511e+005,-1.86725862388309e+001,-6.39765376954911e+000

3.57531884183106e+005,-1.86730131028021e+001,-6.48677558841293e+000

3.62522843294651e+005,-1.86734517646963e+001,-6.57713386112289e+000

3.67583473599047e+005,-1.86739025453550e+001,-6.66874554122093e+000

3.72714747669902e+005,-1.86743657740797e+001,-6.76162780705504e+000

3.77917651657445e+005,-1.86748417888429e+001,-6.85579806448921e+000

3.83193185478053e+005,-1.86753309365032e+001,-6.95127394963453e+000

3.88542363006410e+005,-1.86758335730250e+001,-7.04807333160701e+000

3.93966212270369e+005,-1.86763500637041e+001,-7.14621431530755e+000

3.99465775648511e+005,-1.86768807833969e+001,-7.24571524422688e+000

4.05042110070485e+005,-1.86774261167559e+001,-7.34659470327347e+000

4.10696287220124e+005,-1.86779864584698e+001,-7.44887152162610e+000

4.16429393741414e+005,-1.86785622135086e+001,-7.55256477560962e+000

4.22242531447321e+005,-1.86791537973746e+001,-7.65769379159512e+000

4.28136817531551e+005,-1.86797616363589e+001,-7.76427814892330e+000

4.34113384783250e+005,-1.86803861678029e+001,-7.87233768285110e+000

4.40173381804713e+005,-1.86810278403659e+001,-7.98189248752360e+000

4.46317973232124e+005,-1.86816871142984e+001,-8.09296291896705e+000

4.52548339959385e+005,-1.86823644617217e+001,-8.20556959810714e+000

4.58865679365059e+005,-1.86830603669122e+001,-8.31973341381039e+000

4.65271205542494e+005,-1.86837753265941e+001,-8.43547552594758e+000

4.71766149533147e+005,-1.86845098502359e+001,-8.55281736848204e+000

4.78351759563174e+005,-1.86852644603548e+001,-8.67178065257966e+000

4.85029301283321e+005,-1.86860396928274e+001,-8.79238736974265e+000

4.91800058012158e+005,-1.86868360972070e+001,-8.91465979496542e+000

4.98665330982714e+005,-1.86876542370470e+001,-9.03862048991384e+000

5.05626439592555e+005,-1.86884946902324e+001,-9.16429230612652e+000

5.12684721657352e+005,-1.86893580493177e+001,-9.29169838823814e+000

5.19841533667984e+005,-1.86902449218718e+001,-9.42086217722599e+000

5.27098251051240e+005,-1.86911559308311e+001,-9.55180741367692e+000

5.34456268434150e+005,-1.86920917148593e+001,-9.68455814107760e+000

5.41916999912011e+005,-1.86930529287159e+001,-9.81913870912480e+000

