Freq.,VOut,OutRef

1.00000000000000e+004,-9.75080370939503e+000,-1.58222483252427e-002

1.01395947979003e+004,-9.75080386208323e+000,-1.60431122122971e-002

1.02811382665607e+004,-9.75080401906370e+000,-1.62670589696545e-002

1.04246576084112e+004,-9.75080418045733e+000,-1.64941316195016e-002

1.05701804056138e+004,-9.75080434638762e+000,-1.67243737890853e-002

1.07177346253629e+004,-9.75080451698284e+000,-1.69578297055401e-002

1.08673486252606e+004,-9.75080469237339e+000,-1.71945442229626e-002

1.10190511587661e+004,-9.75080487269412e+000,-1.74345628151890e-002

1.11728713807222e+004,-9.75080505808447e+000,-1.76779315856010e-002

1.13288388529580e+004,-9.75080524868626e+000,-1.79246972903439e-002

1.14869835499703e+004,-9.75080544464575e+000,-1.81749073347946e-002

1.16473358646846e+004,-9.75080564611348e+000,-1.84286097840855e-002

1.18099266142953e+004,-9.75080585324517e+000,-1.86858533677426e-002

1.19747870461893e+004,-9.75080606619939e+000,-1.89466875044017e-002

1.21419488439505e+004,-9.75080628513961e+000,-1.92111622991571e-002

1.23114441334492e+004,-9.75080651023467e+000,-1.94793285505588e-002

1.24833054890161e+004,-9.75080674165715e+000,-1.97512377725733e-002

1.26575659397028e+004,-9.75080697958425e+000,-2.00269421979016e-002

1.28342589756290e+004,-9.75080722420035e+000,-2.03064947737965e-002

1.30134185544193e+004,-9.75080747569276e+000,-2.05899492004164e-002

1.31950791077289e+004,-9.75080773425410e+000,-2.08773599260316e-002

1.33792755478611e+004,-9.75080800008403e+000,-2.11687821475553e-002

1.35660432744767e+004,-9.75080827338607e+000,-2.14642718426635e-002

1.37554181813974e+004,-9.75080855437051e+000,-2.17638857624528e-002

1.39474366635040e+004,-9.75080884325323e+000,-2.20676814514154e-002

1.41421356237309e+004,-9.75080914025610e+000,-2.23757172564488e-002

1.43395524801583e+004,-9.75080944560792e+000,-2.26880523329980e-002

1.45397251732031e+004,-9.75080975954317e+000,-2.30047466664855e-002

1.47426921729110e+004,-9.75081008230230e+000,-2.33258610816271e-002

1.49484924863494e+004,-9.75081041413414e+000,-2.36514572406414e-002

1.51571656651040e+004,-9.75081075529278e+000,-2.39815976764751e-002

1.53687518128801e+004,-9.75081110604127e+000,-2.43163457811164e-002

1.55832915932100e+004,-9.75081146664904e+000,-2.46557658370549e-002

1.58008262372675e+004,-9.75081183739234e+000,-2.49999230270211e-002

1.60213975517924e+004,-9.75081221855706e+000,-2.53488834295728e-002

1.62450479271247e+004,-9.75081261043557e+000,-2.57027140542757e-002

1.64718203453514e+004,-9.75081301332855e+000,-2.60614828436044e-002

1.67017583885674e+004,-9.75081342754623e+000,-2.64252586790108e-002

1.69349062472505e+004,-9.75081385340604e+000,-2.67941114115258e-002

1.71713087287550e+004,-9.75081429123590e+000,-2.71681118551349e-002

1.74110112659224e+004,-9.75081474137182e+000,-2.75473318170119e-002

1.76540599258131e+004,-9.75081520415976e+000,-2.79318441014470e-002

1.79005014185594e+004,-9.75081567995545e+000,-2.83217225259046e-002

1.81503831063432e+004,-9.75081616912380e+000,-2.87170419413165e-002

1.84037530124975e+004,-9.75081667204081e+000,-2.91178782355001e-002

1.86606598307361e+004,-9.75081718909266e+000,-2.95243083550178e-002

1.89211529345119e+004,-9.75081772067704e+000,-2.99364103140941e-002

1.91852823865052e+004,-9.75081826720186e+000,-3.03542632181798e-002

1.94530989482457e+004,-9.75081882908712e+000,-3.07779472705241e-002

1.97246540898671e+004,-9.75081940676397e+000,-3.12075437949765e-002

1.99999999999999e+004,-9.75082000067676e+000,-3.16431352397524e-002

2.02791895958005e+004,-9.75082061128131e+000,-3.20848052072082e-002

2.05622765331213e+004,-9.75082123904661e+000,-3.25326384607151e-002

2.08493152168224e+004,-9.75082188445443e+000,-3.29867209456795e-002

2.11403608112276e+004,-9.75082254800090e+000,-3.34471397977440e-002

2.14354692507258e+004,-9.75082323019523e+000,-3.39139833705518e-002

2.17346972505211e+004,-9.75082393156166e+000,-3.43873412419439e-002

2.20381023175322e+004,-9.75082465263884e+000,-3.48673042372194e-002

2.23457427614443e+004,-9.75082539398005e+000,-3.53539644490359e-002

2.26576777059159e+004,-9.75082615615492e+000,-3.58474152444482e-002

2.29739670999406e+004,-9.75082693974870e+000,-3.63477512919947e-002

2.32946717293690e+004,-9.75082774536263e+000,-3.68550685787219e-002

2.36198532285905e+004,-9.75082857361521e+000,-3.73694644237001e-002

2.39495740923785e+004,-9.75082942514276e+000,-3.78910374960614e-002

2.42838976879009e+004,-9.75083030059915e+000,-3.84198878378676e-002

2.46228882668982e+004,-9.75083120065596e+000,-3.89561168861342e-002

2.49666109780322e+004,-9.75083212600469e+000,-3.94998274796565e-002

2.53151318794055e+004,-9.75083307735504e+000,-4.00511238946863e-002

2.56685179512580e+004,-9.75083405543781e+000,-4.06101118475902e-002

2.60268371088386e+004,-9.75083506100365e+000,-4.11768985278432e-002

2.63901582154578e+004,-9.75083609482399e+000,-4.17515926150549e-002

2.67585510957221e+004,-9.75083715769269e+000,-4.23343042928485e-002

2.71320865489533e+004,-9.75083825042522e+000,-4.29251452790611e-002

2.75108363627948e+004,-9.75083937386048e+000,-4.35242288383202e-002

2.78948733270080e+004,-9.75084052886066e+000,-4.41316698093337e-002

2.82842712474618e+004,-9.75084171631164e+000,-4.47475846274857e-002

2.86791049603164e+004,-9.75084293712443e+000,-4.53720913410472e-002

2.90794503464061e+004,-9.75084419223644e+000,-4.60053096317371e-002

2.94853843458219e+004,-9.75084548261027e+000,-4.66473608473438e-002

2.98969849726987e+004,-9.75084680923605e+000,-4.72983680149629e-002

3.03143313302078e+004,-9.75084817313106e+000,-4.79584558717820e-002

3.07375036257601e+004,-9.75084957534195e+000,-4.86277508783640e-002

3.11665831864199e+004,-9.75085101694421e+000,-4.93063812512889e-002

3.16016524745350e+004,-9.75085249904320e+000,-4.99944769851186e-002

3.20427951035848e+004,-9.75085402277622e+000,-5.06921698697894e-002

3.24900958542493e+004,-9.75085558931171e+000,-5.13995935247810e-002

3.29436406907028e+004,-9.75085719985076e+000,-5.21168834208687e-002

3.34035167771346e+004,-9.75085885562825e+000,-5.28441769028938e-002

3.38698124945009e+004,-9.75086055791411e+000,-5.35816132145384e-002

3.43426174575100e+004,-9.75086230801317e+000,-5.43293335300537e-002

3.48220225318448e+004,-9.75086410726703e+000,-5.50874809757550e-002

3.53081198516260e+004,-9.75086595705556e+000,-5.58562006526277e-002

3.58010028371187e+004,-9.75086785879578e+000,-5.66356396781825e-002

3.63007662126863e+004,-9.75086981394565e+000,-5.74259471949322e-002

3.68075060249948e+004,-9.75087182400403e+000,-5.82272744063201e-002

3.73213196614721e+004,-9.75087389051058e+000,-5.90397746123175e-002

3.78423058690237e+004,-9.75087601504882e+000,-5.98636032251906e-002

3.83705647730104e+004,-9.75087819924700e+000,-6.06989178003767e-002

3.89061978964912e+004,-9.75088044477810e+000,-6.15458780735149e-002

3.94493081797342e+004,-9.75088275336209e+000,-6.24046459838205e-002

3.99999999999998e+004,-9.75088512676740e+000,-6.32753857014623e-002

4.05583791916010e+004,-9.75088756681170e+000,-6.41582636622980e-002

4.11245530662425e+004,-9.75089007536388e+000,-6.50534485938562e-002

4.16986304336447e+004,-9.75089265434407e+000,-6.59611115557964e-002

4.22807216224550e+004,-9.75089530572764e+000,-6.68814259538643e-002

4.28709385014515e+004,-9.75089803154335e+000,-6.78145675933194e-002

4.34693945010421e+004,-9.75090083387826e+000,-6.87607146892542e-002

4.40762046350642e+004,-9.75090371487696e+000,-6.97200479141091e-002

4.46914855228886e+004,-9.75090667674420e+000,-7.06927504231553e-002

4.53153554118317e+004,-9.75090972174640e+000,-7.16790078900579e-002

4.59479341998812e+004,-9.75091285221260e+000,-7.26790085434234e-002

4.65893434587380e+004,-9.75091607053775e+000,-7.36929431925434e-002

4.72397064571810e+004,-9.75091937918330e+000,-7.47210052681275e-002

4.78991481847569e+004,-9.75092278067961e+000,-7.57633908547889e-002

4.85677953758016e+004,-9.75092627762739e+000,-7.68202987279090e-002

4.92457765337964e+004,-9.75092987269960e+000,-7.78919303902324e-002

4.99332219560642e+004,-9.75093356864502e+000,-7.89784900977120e-002

5.06302637588109e+004,-9.75093736828759e+000,-8.00801849131163e-002

5.13370359025159e+004,-9.75094127453113e+000,-8.11972247264049e-002

5.20536742176771e+004,-9.75094529035960e+000,-8.23298223039495e-002

5.27803164309155e+004,-9.75094941884074e+000,-8.34781933175604e-002

5.35171021914442e+004,-9.75095366312768e+000,-8.46425563862580e-002

5.42641730979066e+004,-9.75095802646106e+000,-8.58231331169741e-002

5.50216727255895e+004,-9.75096251217208e+000,-8.70201481388752e-002

5.57897466540159e+004,-9.75096712368451e+000,-8.82338291462424e-002

5.65685424949235e+004,-9.75097186451745e+000,-8.94644069364403e-002

5.73582099206328e+004,-9.75097673828829e+000,-9.07121154483888e-002

5.81589006928121e+004,-9.75098174871477e+000,-9.19771918063012e-002

5.89707686916437e+004,-9.75098689961768e+000,-9.32598763623958e-002

5.97939699453972e+004,-9.75099219492462e+000,-9.45604127318217e-002

6.06286626604156e+004,-9.75099763867220e+000,-9.58790478389447e-002

6.14750072515201e+004,-9.75100323500894e+000,-9.72160319606180e-002

6.23331663728396e+004,-9.75100898819937e+000,-9.85716187625190e-002

6.32033049490698e+004,-9.75101490262497e+000,-9.99460653559459e-002

6.40855902071694e+004,-9.75102098279081e+000,-1.01339632320259e-001

6.49801917084985e+004,-9.75102723332484e+000,-1.02752583772133e-001

6.58872813814055e+004,-9.75103365898512e+000,-1.04185187386467e-001

6.68070335542691e+004,-9.75104026466113e+000,-1.05637714454318e-001

6.77396249890018e+004,-9.75104705537703e+000,-1.07110439931497e-001

6.86852349150199e+004,-9.75105403629759e+000,-1.08603642468622e-001

6.96440450636895e+004,-9.75106121272943e+000,-1.10117604475033e-001

7.06162397032520e+004,-9.75106859012671e+000,-1.11652612152808e-001

7.16020056742374e+004,-9.75107617409440e+000,-1.13208955548667e-001

7.26015324253724e+004,-9.75108397039215e+000,-1.14786928603008e-001

7.36150120499896e+004,-9.75109198493949e+000,-1.16386829190745e-001

7.46426393229441e+004,-9.75110022381897e+000,-1.18008959177913e-001

7.56846117380472e+004,-9.75110869328132e+000,-1.19653624464361e-001

7.67411295460207e+004,-9.75111739974972e+000,-1.21321135035289e-001

7.78123957929823e+004,-9.75112634982488e+000,-1.23011805008192e-001

7.88986163594682e+004,-9.75113555028926e+000,-1.24725952684414e-001

7.99999999999995e+004,-9.75114500811229e+000,-1.26463900599522e-001

8.11167583832018e+004,-9.75115473045502e+000,-1.28225975573930e-001

8.22491061324848e+004,-9.75116472467649e+000,-1.30012508757642e-001

8.33972608672892e+004,-9.75117499833756e+000,-1.31823835689460e-001

8.45614432449099e+004,-9.75118555920681e+000,-1.33660296345893e-001

8.57418770029029e+004,-9.75119641526712e+000,-1.35522235186607e-001

8.69387890020841e+004,-9.75120757471957e+000,-1.37410001217236e-001

8.81524092701283e+004,-9.75121904599094e+000,-1.39323948031882e-001

8.93829710457770e+004,-9.75123083773897e+000,-1.41264433869777e-001

9.06307108236633e+004,-9.75124295885866e+000,-1.43231821667693e-001

9.18958683997622e+004,-9.75125541848834e+000,-1.45226479114168e-001

9.31786869174758e+004,-9.75126822601675e+000,-1.47248778698914e-001

9.44794129143618e+004,-9.75128139108893e+000,-1.49299097770912e-001

9.57982963695136e+004,-9.75129492361375e+000,-1.51377818587698e-001

9.71355907516031e+004,-9.75130883377039e+000,-1.53485328371678e-001

9.84915530675926e+004,-9.75132313201581e+000,-1.55622019362324e-001

9.98664439121282e+004,-9.75133782909157e+000,-1.57788288873458e-001

1.01260527517622e+005,-9.75135293603211e+000,-1.59984539341960e-001

1.02674071805032e+005,-9.75136846417176e+000,-1.62211178386780e-001

1.04107348435354e+005,-9.75138442515273e+000,-1.64468618861594e-001

1.05560632861831e+005,-9.75140083093394e+000,-1.66757278905095e-001

1.07034204382888e+005,-9.75141769379761e+000,-1.69077582004865e-001

1.08528346195813e+005,-9.75143502635961e+000,-1.71429957040324e-001

1.10043345451179e+005,-9.75145284157688e+000,-1.73814838344042e-001

1.11579493308032e+005,-9.75147115275649e+000,-1.76232665754444e-001

1.13137084989847e+005,-9.75148997356513e+000,-1.78683884667939e-001

1.14716419841265e+005,-9.75150931803813e+000,-1.81168946092451e-001

1.16317801385624e+005,-9.75152920058884e+000,-1.83688306703491e-001

1.17941537383287e+005,-9.75154963601796e+000,-1.86242428898553e-001

1.19587939890794e+005,-9.75157063952496e+000,-1.88831780840554e-001

1.21257325320831e+005,-9.75159222671620e+000,-1.91456836524650e-001

1.22950014503040e+005,-9.75161441361684e+000,-1.94118075819117e-001

1.24666332745679e+005,-9.75163721668089e+000,-1.96815984521576e-001

1.26406609898139e+005,-9.75166065280195e+000,-1.99551054411267e-001

1.28171180414339e+005,-9.75168473932449e+000,-2.02323783297776e-001

1.29960383416997e+005,-9.75170949405543e+000,-2.05134675070257e-001

1.31774562762811e+005,-9.75173493527492e+000,-2.07984239751796e-001

1.33614067108538e+005,-9.75176108174903e+000,-2.10872993542617e-001

1.35479249978003e+005,-9.75178795274135e+000,-2.13801458871774e-001

1.37370469830040e+005,-9.75181556802555e+000,-2.16770164441688e-001

1.39288090127379e+005,-9.75184394789765e+000,-2.19779645277764e-001

1.41232479406504e+005,-9.75187311318909e+000,-2.22830442771148e-001

1.43204011348474e+005,-9.75190308527976e+000,-2.25923104724681e-001

1.45203064850745e+005,-9.75193388611125e+000,-2.29058185395523e-001

1.47230024099979e+005,-9.75196553820098e+000,-2.32236245534736e-001

1.49285278645888e+005,-9.75199806465551e+000,-2.35457852431562e-001

1.51369223476094e+005,-9.75203148918450e+000,-2.38723579953916e-001

1.53482259092041e+005,-9.75206583611581e+000,-2.42034008582086e-001

1.55624791585964e+005,-9.75210113041016e+000,-2.45389725445095e-001

1.57797232718936e+005,-9.75213739767511e+000,-2.48791324361682e-001

1.59999999999999e+005,-9.75217466418141e+000,-2.52239405866548e-001

1.62233516766403e+005,-9.75221295687789e+000,-2.55734577244511e-001

1.64498212264969e+005,-9.75225230340752e+000,-2.59277452558826e-001

1.66794521734578e+005,-9.75229273212288e+000,-2.62868652681057e-001

1.69122886489819e+005,-9.75233427210290e+000,-2.66508805313588e-001

1.71483754005805e+005,-9.75237695316948e+000,-2.70198545011434e-001

1.73877578004168e+005,-9.75242080590382e+000,-2.73938513206467e-001

1.76304818540256e+005,-9.75246586166364e+000,-2.77729358223133e-001

1.78765942091554e+005,-9.75251215260077e+000,-2.81571735292538e-001

1.81261421647326e+005,-9.75255971167819e+000,-2.85466306567947e-001

1.83791736799524e+005,-9.75260857268848e+000,-2.89413741129983e-001

1.86357373834951e+005,-9.75265877027062e+000,-2.93414715000527e-001

1.88958825828723e+005,-9.75271033992945e+000,-2.97469911138907e-001

1.91596592739027e+005,-9.75276331805363e+000,-3.01580019444456e-001

1.94271181503206e+005,-9.75281774193403e+000,-3.05745736754894e-001

1.96983106135185e+005,-9.75287364978301e+000,-3.09967766836993e-001

1.99732887824256e+005,-9.75293108075313e+000,-3.14246820376468e-001

2.02521055035243e+005,-9.75299007495648e+000,-3.18583614963793e-001

2.05348143610063e+005,-9.75305067348372e+000,-3.22978875076854e-001

2.08214696870707e+005,-9.75311291842441e+000,-3.27433332052179e-001

2.11121265723661e+005,-9.75317685288576e+000,-3.31947724063095e-001

2.14068408765776e+005,-9.75324252101260e+000,-3.36522796086726e-001

2.17056692391625e+005,-9.75330996800759e+000,-3.41159299863380e-001

2.20086690902357e+005,-9.75337924015087e+000,-3.45857993857213e-001

2.23158986616063e+005,-9.75345038481987e+000,-3.50619643210033e-001

2.26274169979693e+005,-9.75352345050969e+000,-3.55445019685172e-001

2.29432839682530e+005,-9.75359848685271e+000,-3.60334901613203e-001

2.32635602771247e+005,-9.75367554463899e+000,-3.65290073824505e-001

2.35883074766574e+005,-9.75375467583585e+000,-3.70311327582181e-001

2.39175879781588e+005,-9.75383593360786e+000,-3.75399460504643e-001

2.42514650641661e+005,-9.75391937233690e+000,-3.80555276481968e-001

2.45900029006080e+005,-9.75400504764112e+000,-3.85779585590164e-001

2.49332665491357e+005,-9.75409301639500e+000,-3.91073203992561e-001

2.52813219796278e+005,-9.75418333674788e+000,-3.96436953840309e-001

2.56342360828676e+005,-9.75427606814393e+000,-4.01871663156911e-001

2.59920766833993e+005,-9.75437127133980e+000,-4.07378165726738e-001

2.63549125525621e+005,-9.75446900842297e+000,-4.12957300969876e-001

2.67228134217075e+005,-9.75456934283068e+000,-4.18609913803557e-001

2.70958499956006e+005,-9.75467233936604e+000,-4.24336854509497e-001

2.74740939660078e+005,-9.75477806421566e+000,-4.30138978580675e-001

2.78576180254757e+005,-9.75488658496600e+000,-4.36017146565461e-001

2.82464958813007e+005,-9.75499797061901e+000,-4.41972223901732e-001

2.86408022696948e+005,-9.75511229160675e+000,-4.48005080745439e-001

2.90406129701488e+005,-9.75522961980685e+000,-4.54116591781281e-001

2.94460048199957e+005,-9.75535002855466e+000,-4.60307636037378e-001

2.98570557291775e+005,-9.75547359265638e+000,-4.66579096681575e-001

3.02738446952187e+005,-9.75560038840078e+000,-4.72931860809510e-001

3.06964518184081e+005,-9.75573049356961e+000,-4.79366819225860e-001

3.11249583171928e+005,-9.75586398744679e+000,-4.85884866215138e-001

3.15594465437872e+005,-9.75600095082690e+000,-4.92486899300517e-001

3.19999999999997e+005,-9.75614146602152e+000,-4.99173818998806e-001

3.24467033532806e+005,-9.75628561686521e+000,-5.05946528556424e-001

3.28996424529938e+005,-9.75643348871908e+000,-5.12805933683572e-001

3.33589043469155e+005,-9.75658516847286e+000,-5.19752942276306e-001

3.38245772979638e+005,-9.75674074454575e+000,-5.26788464126332e-001

3.42967508011610e+005,-9.75690030688498e+000,-5.33913410622532e-001

3.47755156008335e+005,-9.75706394696258e+000,-5.41128694442984e-001

3.52609637080511e+005,-9.75723175776981e+000,-5.48435229237434e-001

3.57531884183106e+005,-9.75740383380972e+000,-5.55833929299001e-001

3.62522843294651e+005,-9.75758027108721e+000,-5.63325709226845e-001

3.67583473599047e+005,-9.75776116709669e+000,-5.70911483579128e-001

3.72714747669902e+005,-9.75794662080719e+000,-5.78592166516200e-001

3.77917651657445e+005,-9.75813673264431e+000,-5.86368671438950e-001

3.83193185478053e+005,-9.75833160446986e+000,-5.94241910612149e-001

3.88542363006410e+005,-9.75853133955802e+000,-6.02212794785291e-001

3.93966212270369e+005,-9.75873604256883e+000,-6.10282232800257e-001

3.99465775648511e+005,-9.75894581951773e+000,-6.18451131197214e-001

4.05042110070485e+005,-9.75916077774178e+000,-6.26720393809911e-001

4.10696287220124e+005,-9.75938102586264e+000,-6.35090921354875e-001

4.16429393741414e+005,-9.75960667374538e+000,-6.43563611015603e-001

4.22242531447321e+005,-9.75983783245323e+000,-6.52139356022066e-001

4.28136817531551e+005,-9.76007461419822e+000,-6.60819045226354e-001

4.34113384783250e+005,-9.76031713228793e+000,-6.69603562672485e-001

4.40173381804713e+005,-9.76056550106724e+000,-6.78493787165994e-001

4.46317973232124e+005,-9.76081983585561e+000,-6.87490591840884e-001

4.52548339959385e+005,-9.76108025287979e+000,-6.96594843726775e-001

4.58865679365059e+005,-9.76134686920108e+000,-7.05807403316226e-001

4.65271205542494e+005,-9.76161980263777e+000,-7.15129124134398e-001

4.71766149533147e+005,-9.76189917168260e+000,-7.24560852309351e-001

4.78351759563174e+005,-9.76218509541376e+000,-7.34103426152564e-001

4.85029301283321e+005,-9.76247769340162e+000,-7.43757675737846e-001

4.91800058012158e+005,-9.76277708560829e+000,-7.53524422496496e-001

4.98665330982714e+005,-9.76308339228249e+000,-7.63404478814090e-001

5.05626439592555e+005,-9.76339673384788e+000,-7.73398647641646e-001

5.12684721657352e+005,-9.76371723078450e+000,-7.83507722124341e-001

5.19841533667984e+005,-9.76404500350559e+000,-7.93732485235108e-001

5.27098251051240e+005,-9.76438017222638e+000,-8.04073709434829e-001

5.34456268434150e+005,-9.76472285682705e+000,-8.14532156348713e-001

5.41916999912011e+005,-9.76507317670964e+000,-8.25108576459613e-001

