Freq.,VOut,OutRef

1.00000000000000e+004,-2.81622842537464e+001,-5.17458619440530e-002

1.01395947979003e+004,-2.81622843305422e+001,-5.24682054429138e-002

1.02811382665607e+004,-2.81622844094971e+001,-5.32006324027828e-002

1.04246576084112e+004,-2.81622844906713e+001,-5.39432835838957e-002

1.05701804056138e+004,-2.81622845741278e+001,-5.46963017037855e-002

1.07177346253629e+004,-2.81622846599305e+001,-5.54598314771357e-002

1.08673486252606e+004,-2.81622847481450e+001,-5.62340196397430e-002

1.10190511587661e+004,-2.81622848388396e+001,-5.70190149703129e-002

1.11728713807222e+004,-2.81622849320839e+001,-5.78149683278831e-002

1.13288388529580e+004,-2.81622850279495e+001,-5.86220326777986e-002

1.14869835499703e+004,-2.81622851265100e+001,-5.94403631185061e-002

1.16473358646846e+004,-2.81622852278412e+001,-6.02701169150716e-002

1.18099266142953e+004,-2.81622853320211e+001,-6.11114535262451e-002

1.19747870461893e+004,-2.81622854391299e+001,-6.19645346351120e-002

1.21419488439505e+004,-2.81622855492497e+001,-6.28295241862373e-002

1.23114441334492e+004,-2.81622856624651e+001,-6.37065884097615e-002

1.24833054890161e+004,-2.81622857788631e+001,-6.45958958561159e-002

1.26575659397028e+004,-2.81622858985334e+001,-6.54976174271081e-002

1.28342589756290e+004,-2.81622860215678e+001,-6.64119264128275e-002

1.30134185544193e+004,-2.81622861480611e+001,-6.73389985185520e-002

1.31950791077289e+004,-2.81622862781101e+001,-6.82790119072421e-002

1.33792755478611e+004,-2.81622864118151e+001,-6.92321472234701e-002

1.35660432744767e+004,-2.81622865492789e+001,-7.01985876352538e-002

1.37554181813974e+004,-2.81622866906067e+001,-7.11785188691878e-002

1.39474366635040e+004,-2.81622868359077e+001,-7.21721292398292e-002

1.41421356237309e+004,-2.81622869852934e+001,-7.31796096931170e-002

1.43395524801583e+004,-2.81622871388785e+001,-7.42011538409584e-002

1.45397251732031e+004,-2.81622872967808e+001,-7.52369579964232e-002

1.47426921729110e+004,-2.81622874591222e+001,-7.62872212110367e-002

1.49484924863494e+004,-2.81622876260273e+001,-7.73521453160534e-002

1.51571656651040e+004,-2.81622877976239e+001,-7.84319349625933e-002

1.53687518128801e+004,-2.81622879740446e+001,-7.95267976512934e-002

1.55832915932100e+004,-2.81622881554245e+001,-8.06369437869012e-002

1.58008262372675e+004,-2.81622883419033e+001,-8.17625867036587e-002

1.60213975517924e+004,-2.81622885336241e+001,-8.29039427188646e-002

1.62450479271247e+004,-2.81622887307341e+001,-8.40612311673763e-002

1.64718203453514e+004,-2.81622889333851e+001,-8.52346744428216e-002

1.67017583885674e+004,-2.81622891417328e+001,-8.64244980450436e-002

1.69349062472505e+004,-2.81622893559373e+001,-8.76309306212426e-002

1.71713087287550e+004,-2.81622895761630e+001,-8.88542040107670e-002

1.74110112659224e+004,-2.81622898025795e+001,-9.00945532845705e-002

1.76540599258131e+004,-2.81622900353604e+001,-9.13522167998695e-002

1.79005014185594e+004,-2.81622902746847e+001,-9.26274362371909e-002

1.81503831063432e+004,-2.81622905207366e+001,-9.39204566497228e-002

1.84037530124975e+004,-2.81622907737050e+001,-9.52315265116664e-002

1.86606598307361e+004,-2.81622910337842e+001,-9.65608977669883e-002

1.89211529345119e+004,-2.81622913011741e+001,-9.79088258730875e-002

1.91852823865052e+004,-2.81622915760802e+001,-9.92755698534787e-002

1.94530989482457e+004,-2.81622918587138e+001,-1.00661392345973e-001

1.97246540898671e+004,-2.81622921492919e+001,-1.02066559656208e-001

1.99999999999999e+004,-2.81622924480380e+001,-1.03491341803612e-001

2.02791895958005e+004,-2.81622927551813e+001,-1.04936012578103e-001

2.05622765331213e+004,-2.81622930709582e+001,-1.06400849587751e-001

2.08493152168224e+004,-2.81622933956112e+001,-1.07886134317267e-001

2.11403608112276e+004,-2.81622937293898e+001,-1.09392152178478e-001

2.14354692507258e+004,-2.81622940725502e+001,-1.10919192568105e-001

2.17346972505211e+004,-2.81622944253565e+001,-1.12467548918129e-001

2.20381023175322e+004,-2.81622947880792e+001,-1.14037518759678e-001

2.23457427614443e+004,-2.81622951609974e+001,-1.15629403771795e-001

2.26576777059159e+004,-2.81622955443975e+001,-1.17243509846118e-001

2.29739670999406e+004,-2.81622959385741e+001,-1.18880147141040e-001

2.32946717293690e+004,-2.81622963438300e+001,-1.20539630145075e-001

2.36198532285905e+004,-2.81622967604764e+001,-1.22222277734792e-001

2.39495740923785e+004,-2.81622971888336e+001,-1.23928413235434e-001

2.42838976879009e+004,-2.81622976292306e+001,-1.25658364484127e-001

2.46228882668982e+004,-2.81622980820056e+001,-1.27412463895141e-001

2.49666109780322e+004,-2.81622985475065e+001,-1.29191048517678e-001

2.53151318794055e+004,-2.81622990260909e+001,-1.30994460105908e-001

2.56685179512580e+004,-2.81622995181264e+001,-1.32823045183401e-001

2.60268371088386e+004,-2.81623000239910e+001,-1.34677155107119e-001

2.63901582154578e+004,-2.81623005440733e+001,-1.36557146137538e-001

2.67585510957221e+004,-2.81623010787726e+001,-1.38463379506684e-001

2.71320865489533e+004,-2.81623016284996e+001,-1.40396221487302e-001

2.75108363627948e+004,-2.81623021936768e+001,-1.42356043459441e-001

2.78948733270080e+004,-2.81623027747380e+001,-1.44343221988640e-001

2.82842712474618e+004,-2.81623033721296e+001,-1.46358138892672e-001

2.86791049603164e+004,-2.81623039863103e+001,-1.48401181316427e-001

2.90794503464061e+004,-2.81623046177518e+001,-1.50472741807224e-001

2.94853843458219e+004,-2.81623052669392e+001,-1.52573218387398e-001

2.98969849726987e+004,-2.81623059343708e+001,-1.54703014634053e-001

3.03143313302078e+004,-2.81623066205591e+001,-1.56862539754974e-001

3.07375036257601e+004,-2.81623073260313e+001,-1.59052208664202e-001

3.11665831864199e+004,-2.81623080513289e+001,-1.61272442067014e-001

3.16016524745350e+004,-2.81623087970088e+001,-1.63523666536834e-001

3.20427951035848e+004,-2.81623095636435e+001,-1.65806314598430e-001

3.24900958542493e+004,-2.81623103518217e+001,-1.68120824809064e-001

3.29436406907028e+004,-2.81623111621484e+001,-1.70467641845563e-001

3.34035167771346e+004,-2.81623119952459e+001,-1.72847216585904e-001

3.38698124945009e+004,-2.81623128517537e+001,-1.75260006198648e-001

3.43426174575100e+004,-2.81623137323292e+001,-1.77706474229685e-001

3.48220225318448e+004,-2.81623146376485e+001,-1.80187090690415e-001

3.53081198516260e+004,-2.81623155684065e+001,-1.82702332148054e-001

3.58010028371187e+004,-2.81623165253174e+001,-1.85252681818128e-001

3.63007662126863e+004,-2.81623175091160e+001,-1.87838629653871e-001

3.68075060249948e+004,-2.81623185205572e+001,-1.90460672444159e-001

3.73213196614721e+004,-2.81623195604170e+001,-1.93119313906687e-001

3.78423058690237e+004,-2.81623206294938e+001,-1.95815064782202e-001

3.83705647730104e+004,-2.81623217286079e+001,-1.98548442936804e-001

3.89061978964912e+004,-2.81623228586027e+001,-2.01319973457043e-001

3.94493081797342e+004,-2.81623240203451e+001,-2.04130188755438e-001

3.99999999999998e+004,-2.81623252147265e+001,-2.06979628665146e-001

4.05583791916010e+004,-2.81623264426635e+001,-2.09868840549652e-001

4.11245530662425e+004,-2.81623277050978e+001,-2.12798379405021e-001

4.16986304336447e+004,-2.81623290029981e+001,-2.15768807965475e-001

4.22807216224550e+004,-2.81623303373599e+001,-2.18780696812404e-001

4.28709385014515e+004,-2.81623317092069e+001,-2.21834624483156e-001

4.34693945010421e+004,-2.81623331195910e+001,-2.24931177581768e-001

4.40762046350642e+004,-2.81623345695941e+001,-2.28070950889591e-001

4.46914855228886e+004,-2.81623360603281e+001,-2.31254547481375e-001

4.53153554118317e+004,-2.81623375929363e+001,-2.34482578840327e-001

4.59479341998812e+004,-2.81623391685936e+001,-2.37755664973442e-001

4.65893434587380e+004,-2.81623407885084e+001,-2.41074434530406e-001

4.72397064571810e+004,-2.81623424539224e+001,-2.44439524925191e-001

4.78991481847569e+004,-2.81623441661125e+001,-2.47851582455996e-001

4.85677953758016e+004,-2.81623459263913e+001,-2.51311262429509e-001

4.92457765337964e+004,-2.81623477361077e+001,-2.54819229288545e-001

4.99332219560642e+004,-2.81623495966489e+001,-2.58376156733714e-001

5.06302637588109e+004,-2.81623515094407e+001,-2.61982727856432e-001

5.13370359025159e+004,-2.81623534759489e+001,-2.65639635267312e-001

5.20536742176771e+004,-2.81623554976804e+001,-2.69347581229190e-001

5.27803164309155e+004,-2.81623575761839e+001,-2.73107277792195e-001

5.35171021914442e+004,-2.81623597130520e+001,-2.76919446926236e-001

5.42641730979066e+004,-2.81623619099212e+001,-2.80784820662979e-001

5.50216727255895e+004,-2.81623641684744e+001,-2.84704141231285e-001

5.57897466540159e+004,-2.81623664904411e+001,-2.88678161203813e-001

5.65685424949235e+004,-2.81623688775997e+001,-2.92707643633713e-001

5.73582099206328e+004,-2.81623713317777e+001,-2.96793362208486e-001

5.81589006928121e+004,-2.81623738548541e+001,-3.00936101389355e-001

5.89707686916437e+004,-2.81623764487604e+001,-3.05136656566435e-001

5.97939699453972e+004,-2.81623791154819e+001,-3.09395834207234e-001

6.06286626604156e+004,-2.81623818570595e+001,-3.13714452011553e-001

6.14750072515201e+004,-2.81623846755911e+001,-3.18093339066916e-001

6.23331663728396e+004,-2.81623875732334e+001,-3.22533336006004e-001

6.32033049490698e+004,-2.81623905522029e+001,-3.27035295167806e-001

6.40855902071694e+004,-2.81623936147784e+001,-3.31600080757179e-001

6.49801917084985e+004,-2.81623967633022e+001,-3.36228569012890e-001

6.58872813814055e+004,-2.81624000001820e+001,-3.40921648370811e-001

6.68070335542691e+004,-2.81624033278924e+001,-3.45680219636391e-001

6.77396249890018e+004,-2.81624067489776e+001,-3.50505196151372e-001

6.86852349150199e+004,-2.81624102660523e+001,-3.55397503971720e-001

6.96440450636895e+004,-2.81624138818045e+001,-3.60358082039432e-001

7.06162397032520e+004,-2.81624175989967e+001,-3.65387882365760e-001

7.16020056742374e+004,-2.81624214204690e+001,-3.70487870206064e-001

7.26015324253724e+004,-2.81624253491402e+001,-3.75659024247335e-001

7.36150120499896e+004,-2.81624293880106e+001,-3.80902336792346e-001

7.46426393229441e+004,-2.81624335401641e+001,-3.86218813948331e-001

7.56846117380472e+004,-2.81624378087704e+001,-3.91609475815852e-001

7.67411295460207e+004,-2.81624421970875e+001,-3.97075356684398e-001

7.78123957929823e+004,-2.81624467084641e+001,-4.02617505227695e-001

7.88986163594682e+004,-2.81624513463422e+001,-4.08236984699598e-001

7.99999999999995e+004,-2.81624561142595e+001,-4.13934873139816e-001

8.11167583832018e+004,-2.81624610158518e+001,-4.19712263574478e-001

8.22491061324848e+004,-2.81624660548566e+001,-4.25570264223071e-001

8.33972608672892e+004,-2.81624712351146e+001,-4.31509998709973e-001

8.45614432449099e+004,-2.81624765605737e+001,-4.37532606274123e-001

8.57418770029029e+004,-2.81624820352914e+001,-4.43639241985152e-001

8.69387890020841e+004,-2.81624876634376e+001,-4.49831076962636e-001

8.81524092701283e+004,-2.81624934492984e+001,-4.56109298594164e-001

8.93829710457770e+004,-2.81624993972782e+001,-4.62475110762309e-001

9.06307108236633e+004,-2.81625055119044e+001,-4.68929734068262e-001

9.18958683997622e+004,-2.81625117978291e+001,-4.75474406065254e-001

9.31786869174758e+004,-2.81625182598339e+001,-4.82110381488013e-001

9.44794129143618e+004,-2.81625249028327e+001,-4.88838932491282e-001

9.57982963695136e+004,-2.81625317318754e+001,-4.95661348887352e-001

9.71355907516031e+004,-2.81625387521519e+001,-5.02578938389120e-001

9.84915530675926e+004,-2.81625459689956e+001,-5.09593026856174e-001

9.98664439121282e+004,-2.81625533878874e+001,-5.16704958542064e-001

1.01260527517622e+005,-2.81625610144599e+001,-5.23916096347758e-001

1.02674071805032e+005,-2.81625688545008e+001,-5.31227822077603e-001

1.04107348435354e+005,-2.81625769139585e+001,-5.38641536694527e-001

1.05560632861831e+005,-2.81625851989450e+001,-5.46158660587119e-001

1.07034204382888e+005,-2.81625937157411e+001,-5.53780633831611e-001

1.08528346195813e+005,-2.81626024708008e+001,-5.61508916462906e-001

1.10043345451179e+005,-2.81626114707560e+001,-5.69344988746028e-001

1.11579493308032e+005,-2.81626207224215e+001,-5.77290351452827e-001

1.13137084989847e+005,-2.81626302327992e+001,-5.85346526142634e-001

1.14716419841265e+005,-2.81626400090842e+001,-5.93515055443098e-001

1.16317801385624e+005,-2.81626500586693e+001,-6.01797503340726e-001

1.17941537383287e+005,-2.81626603891503e+001,-6.10195455468766e-001

1.19587939890794e+005,-2.81626710083318e+001,-6.18710519403765e-001

1.21257325320831e+005,-2.81626819242325e+001,-6.27344324963721e-001

1.22950014503040e+005,-2.81626931450910e+001,-6.36098524508795e-001

1.24666332745679e+005,-2.81627046793721e+001,-6.44974793249004e-001

1.26406609898139e+005,-2.81627165357717e+001,-6.53974829554585e-001

1.28171180414339e+005,-2.81627287232244e+001,-6.63100355269123e-001

1.29960383416997e+005,-2.81627412509088e+001,-6.72353116027138e-001

1.31774562762811e+005,-2.81627541282544e+001,-6.81734881578196e-001

1.33614067108538e+005,-2.81627673649482e+001,-6.91247446110970e-001

1.35479249978003e+005,-2.81627809709416e+001,-7.00892628584789e-001

1.37370469830040e+005,-2.81627949564570e+001,-7.10672273065107e-001

1.39288090127379e+005,-2.81628093319955e+001,-7.20588249060492e-001

1.41232479406504e+005,-2.81628241083439e+001,-7.30642451865463e-001

1.43204011348474e+005,-2.81628392965820e+001,-7.40836802911251e-001

1.45203064850745e+005,-2.81628549080910e+001,-7.51173250113599e-001

1.47230024099979e+005,-2.81628709545607e+001,-7.61653768230146e-001

1.49285278645888e+005,-2.81628874479978e+001,-7.72280359223265e-001

1.51369223476094e+005,-2.81629044007343e+001,-7.83055052621388e-001

1.53482259092041e+005,-2.81629218254356e+001,-7.93979905891264e-001

1.55624791585964e+005,-2.81629397351095e+001,-8.05057004812089e-001

1.57797232718936e+005,-2.81629581431149e+001,-8.16288463852550e-001

1.59999999999999e+005,-2.81629770631710e+001,-8.27676426556330e-001

1.62233516766403e+005,-2.81629965093665e+001,-8.39223065927888e-001

1.64498212264969e+005,-2.81630164961689e+001,-8.50930584828308e-001

1.66794521734578e+005,-2.81630370384345e+001,-8.62801216370939e-001

1.69122886489819e+005,-2.81630581514183e+001,-8.74837224323645e-001

1.71483754005805e+005,-2.81630798507839e+001,-8.87040903518411e-001

1.73877578004168e+005,-2.81631021526144e+001,-8.99414580260708e-001

1.76304818540256e+005,-2.81631250734224e+001,-9.11960612749549e-001

1.78765942091554e+005,-2.81631486301613e+001,-9.24681391497542e-001

1.81261421647326e+005,-2.81631728402364e+001,-9.37579339759403e-001

1.83791736799524e+005,-2.81631977215157e+001,-9.50656913964983e-001

1.86357373834951e+005,-2.81632232923425e+001,-9.63916604154143e-001

1.88958825828723e+005,-2.81632495715462e+001,-9.77360934422227e-001

1.91596592739027e+005,-2.81632765784550e+001,-9.90992463367246e-001

1.94271181503206e+005,-2.81633043329081e+001,-1.00481378454183e+000

1.96983106135185e+005,-2.81633328552684e+001,-1.01882752691277e+000

1.99732887824256e+005,-2.81633621664350e+001,-1.03303635532479e+000

2.02521055035243e+005,-2.81633922878569e+001,-1.04744297096981e+000

2.05348143610063e+005,-2.81634232415461e+001,-1.06205011185999e+000

2.08214696870707e+005,-2.81634550500911e+001,-1.07686055331072e+000

2.11121265723661e+005,-2.81634877366711e+001,-1.09187710842325e+000

2.14068408765776e+005,-2.81635213250703e+001,-1.10710262857780e+000

2.17056692391625e+005,-2.81635558396922e+001,-1.12254000392852e+000

2.20086690902357e+005,-2.81635913055743e+001,-1.13819216390789e+000

2.23158986616063e+005,-2.81636277484035e+001,-1.15406207773316e+000

2.26274169979693e+005,-2.81636651945310e+001,-1.17015275492070e+000

2.29432839682530e+005,-2.81637036709882e+001,-1.18646724580586e+000

2.32635602771247e+005,-2.81637432055027e+001,-1.20300864206734e+000

2.35883074766574e+005,-2.81637838265141e+001,-1.21978007725917e+000

2.39175879781588e+005,-2.81638255631907e+001,-1.23678472734733e+000

2.42514650641661e+005,-2.81638684454463e+001,-1.25402581125370e+000

2.45900029006080e+005,-2.81639125039570e+001,-1.27150659140370e+000

2.49332665491357e+005,-2.81639577701789e+001,-1.28923037428219e+000

2.52813219796278e+005,-2.81640042763651e+001,-1.30720051099535e+000

2.56342360828676e+005,-2.81640520555842e+001,-1.32542039783640e+000

2.59920766833993e+005,-2.81641011417381e+001,-1.34389347685990e+000

2.63549125525621e+005,-2.81641515695803e+001,-1.36262323646222e+000

2.67228134217075e+005,-2.81642033747350e+001,-1.38161321196631e+000

2.70958499956006e+005,-2.81642565937156e+001,-1.40086698621508e+000

2.74740939660078e+005,-2.81643112639442e+001,-1.42038819017027e+000

2.78576180254757e+005,-2.81643674237710e+001,-1.44018050351709e+000

2.82464958813007e+005,-2.81644251124942e+001,-1.46024765527712e+000

2.86408022696948e+005,-2.81644843703798e+001,-1.48059342442511e+000

2.90406129701488e+005,-2.81645452386817e+001,-1.50122164051670e+000

2.94460048199957e+005,-2.81646077596624e+001,-1.52213618431812e+000

2.98570557291775e+005,-2.81646719766137e+001,-1.54334098844658e+000

3.02738446952187e+005,-2.81647379338777e+001,-1.56484003801445e+000

3.06964518184081e+005,-2.81648056768674e+001,-1.58663737128375e+000

3.11249583171928e+005,-2.81648752520888e+001,-1.60873708032450e+000

3.15594465437872e+005,-2.81649467071619e+001,-1.63114331168242e+000

3.19999999999997e+005,-2.81650200908424e+001,-1.65386026705343e+000

3.24467033532806e+005,-2.81650954530441e+001,-1.67689220396435e+000

3.28996424529938e+005,-2.81651728448606e+001,-1.70024343646354e+000

3.33589043469155e+005,-2.81652523185872e+001,-1.72391833581653e+000

3.38245772979638e+005,-2.81653339277441e+001,-1.74792133121083e+000

3.42967508011610e+005,-2.81654177270979e+001,-1.77225691046935e+000

3.47755156008335e+005,-2.81655037726850e+001,-1.79692962076997e+000

3.52609637080511e+005,-2.81655921218339e+001,-1.82194406937386e+000

3.57531884183106e+005,-2.81656828331877e+001,-1.84730492436434e+000

3.62522843294651e+005,-2.81657759667274e+001,-1.87301691539059e+000

3.67583473599047e+005,-2.81658715837948e+001,-1.89908483442289e+000

3.72714747669902e+005,-2.81659697471149e+001,-1.92551353651535e+000

3.77917651657445e+005,-2.81660705208194e+001,-1.95230794057899e+000

3.83193185478053e+005,-2.81661739704693e+001,-1.97947303016242e+000

3.88542363006410e+005,-2.81662801630775e+001,-2.00701385424429e+000

3.93966212270369e+005,-2.81663891671324e+001,-2.03493552803269e+000

3.99465775648511e+005,-2.81665010526204e+001,-2.06324323377712e+000

4.05042110070485e+005,-2.81666158910481e+001,-2.09194222159098e+000

4.10696287220124e+005,-2.81667337554657e+001,-2.12103781028097e+000

4.16429393741414e+005,-2.81668547204890e+001,-2.15053538819339e+000

4.22242531447321e+005,-2.81669788623220e+001,-2.18044041406628e+000

4.28136817531551e+005,-2.81671062587792e+001,-2.21075841789527e+000

4.34113384783250e+005,-2.81672369893072e+001,-2.24149500181380e+000

4.40173381804713e+005,-2.81673711350071e+001,-2.27265584098108e+000

4.46317973232124e+005,-2.81675087786558e+001,-2.30424668448725e+000

4.52548339959385e+005,-2.81676500047276e+001,-2.33627335626837e+000

4.58865679365059e+005,-2.81677948994155e+001,-2.36874175603794e+000

4.65271205542494e+005,-2.81679435506516e+001,-2.40165786023073e+000

4.71766149533147e+005,-2.81680960481285e+001,-2.43502772296195e+000

4.78351759563174e+005,-2.81682524833192e+001,-2.46885747700189e+000

4.85029301283321e+005,-2.81684129494973e+001,-2.50315333476610e+000

4.91800058012158e+005,-2.81685775417571e+001,-2.53792158932150e+000

4.98665330982714e+005,-2.81687463570326e+001,-2.57316861541072e+000

5.05626439592555e+005,-2.81689194941173e+001,-2.60890087049320e+000

5.12684721657352e+005,-2.81690970536825e+001,-2.64512489580463e+000

5.19841533667984e+005,-2.81692791382968e+001,-2.68184731743494e+000

5.27098251051240e+005,-2.81694658524434e+001,-2.71907484742773e+000

5.34456268434150e+005,-2.81696573025389e+001,-2.75681428489846e+000

5.41916999912011e+005,-2.81698535969510e+001,-2.79507251717406e+000

