Freq.,VOut,OutRef

1.00000000000000e+004,-2.63896406899456e+001,-3.10609250253532e-001

1.01395947979003e+004,-2.63896421079087e+001,-3.14945170566835e-001

1.02811382665607e+004,-2.63896435657354e+001,-3.19341617085362e-001

1.04246576084112e+004,-2.63896450645466e+001,-3.23799434680592e-001

1.05701804056138e+004,-2.63896466054942e+001,-3.28319480019317e-001

1.07177346253629e+004,-2.63896481897630e+001,-3.32902621720747e-001

1.08673486252606e+004,-2.63896498185708e+001,-3.37549740530869e-001

1.10190511587661e+004,-2.63896514931697e+001,-3.42261729487328e-001

1.11728713807222e+004,-2.63896532148470e+001,-3.47039494091983e-001

1.13288388529580e+004,-2.63896549849262e+001,-3.51883952484528e-001

1.14869835499703e+004,-2.63896568047681e+001,-3.56796035619792e-001

1.16473358646846e+004,-2.63896586757715e+001,-3.61776687445902e-001

1.18099266142953e+004,-2.63896605993747e+001,-3.66826865084737e-001

1.19747870461893e+004,-2.63896625770565e+001,-3.71947539017135e-001

1.21419488439505e+004,-2.63896646103373e+001,-3.77139693267833e-001

1.23114441334492e+004,-2.63896667007798e+001,-3.82404325596890e-001

1.24833054890161e+004,-2.63896688499913e+001,-3.87742447687790e-001

1.26575659397028e+004,-2.63896710596237e+001,-3.93155085344665e-001

1.28342589756290e+004,-2.63896733313755e+001,-3.98643278688586e-001

1.30134185544193e+004,-2.63896756669933e+001,-4.04208082354683e-001

1.31950791077289e+004,-2.63896780682724e+001,-4.09850565699413e-001

1.33792755478611e+004,-2.63896805370586e+001,-4.15571813001345e-001

1.35660432744767e+004,-2.63896830752497e+001,-4.21372923672989e-001

1.37554181813974e+004,-2.63896856847969e+001,-4.27255012467659e-001

1.39474366635040e+004,-2.63896883677061e+001,-4.33219209698852e-001

1.41421356237309e+004,-2.63896911260396e+001,-4.39266661452615e-001

1.43395524801583e+004,-2.63896939619179e+001,-4.45398529809317e-001

1.45397251732031e+004,-2.63896968775208e+001,-4.51615993067459e-001

1.47426921729110e+004,-2.63896998750894e+001,-4.57920245969201e-001

1.49484924863494e+004,-2.63897029569282e+001,-4.64312499927991e-001

1.51571656651040e+004,-2.63897061254058e+001,-4.70793983265730e-001

1.53687518128801e+004,-2.63897093829582e+001,-4.77365941442680e-001

1.55832915932100e+004,-2.63897127320890e+001,-4.84029637301094e-001

1.58008262372675e+004,-2.63897161753729e+001,-4.90786351305141e-001

1.60213975517924e+004,-2.63897197154567e+001,-4.97637381787427e-001

1.62450479271247e+004,-2.63897233550613e+001,-5.04584045199228e-001

1.64718203453514e+004,-2.63897270969847e+001,-5.11627676360091e-001

1.67017583885674e+004,-2.63897309441030e+001,-5.18769628717797e-001

1.69349062472505e+004,-2.63897348993734e+001,-5.26011274605036e-001

1.71713087287550e+004,-2.63897389658362e+001,-5.33354005504589e-001

1.74110112659224e+004,-2.63897431466171e+001,-5.40799232315985e-001

1.76540599258131e+004,-2.63897474449298e+001,-5.48348385624533e-001

1.79005014185594e+004,-2.63897518640781e+001,-5.56002915977887e-001

1.81503831063432e+004,-2.63897564074589e+001,-5.63764294164121e-001

1.84037530124975e+004,-2.63897610785643e+001,-5.71634011492937e-001

1.86606598307361e+004,-2.63897658809850e+001,-5.79613580081806e-001

1.89211529345119e+004,-2.63897708184120e+001,-5.87704533146934e-001

1.91852823865052e+004,-2.63897758946407e+001,-5.95908425295775e-001

1.94530989482457e+004,-2.63897811135726e+001,-6.04226832827794e-001

1.97246540898671e+004,-2.63897864792193e+001,-6.12661354034513e-001

1.99999999999999e+004,-2.63897919957050e+001,-6.21213609505448e-001

2.02791895958005e+004,-2.63897976672697e+001,-6.29885242442365e-001

2.05622765331213e+004,-2.63898034982727e+001,-6.38677918970473e-001

2.08493152168224e+004,-2.63898094931957e+001,-6.47593328460750e-001

2.11403608112276e+004,-2.63898156566467e+001,-6.56633183851294e-001

2.14354692507258e+004,-2.63898219933627e+001,-6.65799221979046e-001

2.17346972505211e+004,-2.63898285082143e+001,-6.75093203908449e-001

2.20381023175322e+004,-2.63898352062085e+001,-6.84516915273633e-001

2.23457427614443e+004,-2.63898420924936e+001,-6.94072166617206e-001

2.26576777059159e+004,-2.63898491723622e+001,-7.03760793738340e-001

2.29739670999406e+004,-2.63898564512557e+001,-7.13584658045264e-001

2.32946717293690e+004,-2.63898639347685e+001,-7.23545646911542e-001

2.36198532285905e+004,-2.63898716286521e+001,-7.33645674037506e-001

2.39495740923785e+004,-2.63898795388199e+001,-7.43886679816838e-001

2.42838976879009e+004,-2.63898876713512e+001,-7.54270631708740e-001

2.46228882668982e+004,-2.63898960324963e+001,-7.64799524614239e-001

2.49666109780322e+004,-2.63899046286811e+001,-7.75475381259640e-001

2.53151318794055e+004,-2.63899134665120e+001,-7.86300252582044e-001

2.56685179512580e+004,-2.63899225527813e+001,-7.97276218124135e-001

2.60268371088386e+004,-2.63899318944720e+001,-8.08405386429948e-001

2.63901582154578e+004,-2.63899414987632e+001,-8.19689895451610e-001

2.67585510957221e+004,-2.63899513730360e+001,-8.31131912955794e-001

2.71320865489533e+004,-2.63899615248788e+001,-8.42733636941150e-001

2.75108363627948e+004,-2.63899719620933e+001,-8.54497296056542e-001

2.78948733270080e+004,-2.63899826927003e+001,-8.66425150030057e-001

2.82842712474618e+004,-2.63899937249460e+001,-8.78519490100304e-001

2.86791049603164e+004,-2.63900050673084e+001,-8.90782639454053e-001

2.90794503464061e+004,-2.63900167285037e+001,-9.03216953672500e-001

2.94853843458219e+004,-2.63900287174929e+001,-9.15824821180119e-001

2.98969849726987e+004,-2.63900410434890e+001,-9.28608663703009e-001

3.03143313302078e+004,-2.63900537159636e+001,-9.41570936731072e-001

3.07375036257601e+004,-2.63900667446547e+001,-9.54714129987654e-001

3.11665831864199e+004,-2.63900801395736e+001,-9.68040767906104e-001

3.16016524745350e+004,-2.63900939110132e+001,-9.81553410111952e-001

3.20427951035848e+004,-2.63901080695553e+001,-9.95254651912076e-001

3.24900958542493e+004,-2.63901226260790e+001,-1.00914712479176e+000

3.29436406907028e+004,-2.63901375917693e+001,-1.02323349691504e+000

3.34035167771346e+004,-2.63901529781254e+001,-1.03751647363690e+000

3.38698124945009e+004,-2.63901687969692e+001,-1.05199879802017e+000

3.43426174575100e+004,-2.63901850604550e+001,-1.06668325135718e+000

3.48220225318448e+004,-2.63902017810784e+001,-1.08157265370232e+000

3.53081198516260e+004,-2.63902189716863e+001,-1.09666986441016e+000

3.58010028371187e+004,-2.63902366454861e+001,-1.11197778268266e+000

3.63007662126863e+004,-2.63902548160565e+001,-1.12749934811917e+000

3.68075060249948e+004,-2.63902734973573e+001,-1.14323754128062e+000

3.73213196614721e+004,-2.63902927037408e+001,-1.15919538425641e+000

3.78423058690237e+004,-2.63903124499622e+001,-1.17537594124112e+000

3.83705647730104e+004,-2.63903327511911e+001,-1.19178231911940e+000

3.89061978964912e+004,-2.63903536230231e+001,-1.20841766805785e+000

3.94493081797342e+004,-2.63903750814922e+001,-1.22528518210451e+000

3.99999999999998e+004,-2.63903971430823e+001,-1.24238809979933e+000

4.05583791916010e+004,-2.63904198247404e+001,-1.25972970478970e+000

4.11245530662425e+004,-2.63904431438897e+001,-1.27731332645685e+000

4.16986304336447e+004,-2.63904671184420e+001,-1.29514234054958e+000

4.22807216224550e+004,-2.63904917668127e+001,-1.31322016982626e+000

4.28709385014515e+004,-2.63905171079343e+001,-1.33155028470667e+000

4.34693945010421e+004,-2.63905431612704e+001,-1.35013620393312e+000

4.40762046350642e+004,-2.63905699468318e+001,-1.36898149523844e+000

4.46914855228886e+004,-2.63905974851906e+001,-1.38808977602519e+000

4.53153554118317e+004,-2.63906257974970e+001,-1.40746471405255e+000

4.59479341998812e+004,-2.63906549054944e+001,-1.42711002813513e+000

4.65893434587380e+004,-2.63906848315372e+001,-1.44702948884717e+000

4.72397064571810e+004,-2.63907155986072e+001,-1.46722691924029e+000

4.78991481847569e+004,-2.63907472303313e+001,-1.48770619556911e+000

4.85677953758016e+004,-2.63907797509995e+001,-1.50847124802590e+000

4.92457765337964e+004,-2.63908131855840e+001,-1.52952606148742e+000

4.99332219560642e+004,-2.63908475597575e+001,-1.55087467627031e+000

5.06302637588109e+004,-2.63908828999137e+001,-1.57252118889696e+000

5.13370359025159e+004,-2.63909192331868e+001,-1.59446975287180e+000

5.20536742176771e+004,-2.63909565874727e+001,-1.61672457946784e+000

5.27803164309155e+004,-2.63909949914499e+001,-1.63928993852563e+000

5.35171021914442e+004,-2.63910344746022e+001,-1.66217015925904e+000

5.42641730979066e+004,-2.63910750672401e+001,-1.68536963107666e+000

5.50216727255895e+004,-2.63911168005250e+001,-1.70889280441023e+000

5.57897466540159e+004,-2.63911597064926e+001,-1.73274419155753e+000

5.65685424949235e+004,-2.63912038180773e+001,-1.75692836753246e+000

5.73582099206328e+004,-2.63912491691375e+001,-1.78144997093264e+000

5.81589006928121e+004,-2.63912957944815e+001,-1.80631370481095e+000

5.89707686916437e+004,-2.63913437298939e+001,-1.83152433756630e+000

5.97939699453972e+004,-2.63913930121631e+001,-1.85708670384086e+000

6.06286626604156e+004,-2.63914436791094e+001,-1.88300570543136e+000

6.14750072515201e+004,-2.63914957696138e+001,-1.90928631221273e+000

6.23331663728396e+004,-2.63915493236476e+001,-1.93593356307440e+000

6.32033049490698e+004,-2.63916043823030e+001,-1.96295256686653e+000

6.40855902071694e+004,-2.63916609878245e+001,-1.99034850336273e+000

6.49801917084985e+004,-2.63917191836410e+001,-2.01812662423166e+000

6.58872813814055e+004,-2.63917790143991e+001,-2.04629225402417e+000

6.68070335542691e+004,-2.63918405259967e+001,-2.07485079117223e+000

6.77396249890018e+004,-2.63919037656187e+001,-2.10380770900211e+000

6.86852349150199e+004,-2.63919687817722e+001,-2.13316855675886e+000

6.96440450636895e+004,-2.63920356243240e+001,-2.16293896064693e+000

7.06162397032520e+004,-2.63921043445385e+001,-2.19312462488162e+000

7.16020056742374e+004,-2.63921749951163e+001,-2.22373133275784e+000

7.26015324253724e+004,-2.63922476302349e+001,-2.25476494772835e+000

7.36150120499896e+004,-2.63923223055895e+001,-2.28623141450095e+000

7.46426393229441e+004,-2.63923990784357e+001,-2.31813676014531e+000

7.56846117380472e+004,-2.63924780076330e+001,-2.35048709521775e+000

7.67411295460207e+004,-2.63925591536892e+001,-2.38328861489949e+000

7.78123957929823e+004,-2.63926425788066e+001,-2.41654760014855e+000

7.88986163594682e+004,-2.63927283469297e+001,-2.45027041886733e+000

7.99999999999995e+004,-2.63928165237931e+001,-2.48446352708626e+000

8.11167583832018e+004,-2.63929071769717e+001,-2.51913347016135e+000

8.22491061324848e+004,-2.63930003759322e+001,-2.55428688398686e+000

8.33972608672892e+004,-2.63930961920856e+001,-2.58993049622458e+000

8.45614432449099e+004,-2.63931946988411e+001,-2.62607112754862e+000

8.57418770029029e+004,-2.63932959716625e+001,-2.66271569290503e+000

8.69387890020841e+004,-2.63934000881246e+001,-2.69987120278882e+000

8.81524092701283e+004,-2.63935071279727e+001,-2.73754476453576e+000

8.93829710457770e+004,-2.63936171731824e+001,-2.77574358363127e+000

9.06307108236633e+004,-2.63937303080219e+001,-2.81447496503640e+000

9.18958683997622e+004,-2.63938466191162e+001,-2.85374631452816e+000

9.31786869174758e+004,-2.63939661955116e+001,-2.89356514006020e+000

9.44794129143618e+004,-2.63940891287440e+001,-2.93393905313631e+000

9.57982963695136e+004,-2.63942155129078e+001,-2.97487577020410e+000

9.71355907516031e+004,-2.63943454447268e+001,-3.01638311406475e+000

9.84915530675926e+004,-2.63944790236272e+001,-3.05846901530012e+000

9.98664439121282e+004,-2.63946163518130e+001,-3.10114151371708e+000

1.01260527517622e+005,-2.63947575343426e+001,-3.14440875981064e+000

1.02674071805032e+005,-2.63949026792085e+001,-3.18827901624379e+000

1.04107348435354e+005,-2.63950518974182e+001,-3.23276065934536e+000

1.05560632861831e+005,-2.63952053030783e+001,-3.27786218062625e+000

1.07034204382888e+005,-2.63953630134796e+001,-3.32359218831477e+000

1.08528346195813e+005,-2.63955251491861e+001,-3.36995940890826e+000

1.10043345451179e+005,-2.63956918341255e+001,-3.41697268874490e+000

1.11579493308032e+005,-2.63958631956817e+001,-3.46464099559386e+000

1.13137084989847e+005,-2.63960393647911e+001,-3.51297342026330e+000

1.14716419841265e+005,-2.63962204760404e+001,-3.56197917822836e+000

1.16317801385624e+005,-2.63964066677677e+001,-3.61166761127745e+000

1.17941537383287e+005,-2.63965980821663e+001,-3.66204818917780e+000

1.19587939890794e+005,-2.63967948653907e+001,-3.71313051135983e+000

1.21257325320831e+005,-2.63969971676664e+001,-3.76492430862162e+000

1.22950014503040e+005,-2.63972051434015e+001,-3.81743944485237e+000

1.24666332745679e+005,-2.63974189513032e+001,-3.87068591877436e+000

1.26406609898139e+005,-2.63976387544949e+001,-3.92467386570631e+000

1.28171180414339e+005,-2.63978647206390e+001,-3.97941355934491e+000

1.29960383416997e+005,-2.63980970220609e+001,-4.03491541356654e+000

1.31774562762811e+005,-2.63983358358779e+001,-4.09118998424937e+000

1.33614067108538e+005,-2.63985813441307e+001,-4.14824797111373e+000

1.35479249978003e+005,-2.63988337339186e+001,-4.20610021958388e+000

1.37370469830040e+005,-2.63990931975384e+001,-4.26475772266928e+000

1.39288090127379e+005,-2.63993599326272e+001,-4.32423162286542e+000

1.41232479406504e+005,-2.63996341423087e+001,-4.38453321407441e+000

1.43204011348474e+005,-2.63999160353435e+001,-4.44567394354713e+000

1.45203064850745e+005,-2.64002058262833e+001,-4.50766541384291e+000

1.47230024099979e+005,-2.64005037356299e+001,-4.57051938481174e+000

1.49285278645888e+005,-2.64008099899970e+001,-4.63424777559440e+000

1.51369223476094e+005,-2.64011248222781e+001,-4.69886266664348e+000

1.53482259092041e+005,-2.64014484718172e+001,-4.76437630176437e+000

1.55624791585964e+005,-2.64017811845850e+001,-4.83080109017591e+000

1.57797232718936e+005,-2.64021232133597e+001,-4.89814960859046e+000

1.59999999999999e+005,-2.64024748179119e+001,-4.96643460331399e+000

1.62233516766403e+005,-2.64028362651952e+001,-5.03566899236604e+000

1.64498212264969e+005,-2.64032078295411e+001,-5.10586586761804e+000

1.66794521734578e+005,-2.64035897928597e+001,-5.17703849695301e+000

1.69122886489819e+005,-2.64039824448448e+001,-5.24920032644174e+000

1.71483754005805e+005,-2.64043860831853e+001,-5.32236498254046e+000

1.73877578004168e+005,-2.64048010137814e+001,-5.39654627430576e+000

1.76304818540256e+005,-2.64052275509666e+001,-5.47175819562890e+000

1.78765942091554e+005,-2.64056660177357e+001,-5.54801492748827e+000

1.81261421647326e+005,-2.64061167459782e+001,-5.62533084022032e+000

1.83791736799524e+005,-2.64065800767187e+001,-5.70372049580758e+000

1.86357373834951e+005,-2.64070563603618e+001,-5.78319865018570e+000

1.88958825828723e+005,-2.64075459569453e+001,-5.86378025556582e+000

1.91596592739027e+005,-2.64080492363984e+001,-5.94548046277607e+000

1.94271181503206e+005,-2.64085665788070e+001,-6.02831462361852e+000

1.96983106135185e+005,-2.64090983746859e+001,-6.11229829324151e+000

1.99732887824256e+005,-2.64096450252577e+001,-6.19744723252981e+000

2.02521055035243e+005,-2.64102069427391e+001,-6.28377741050852e+000

2.05348143610063e+005,-2.64107845506336e+001,-6.37130500676214e+000

2.08214696870707e+005,-2.64113782840328e+001,-6.46004641386879e+000

2.11121265723661e+005,-2.64119885899242e+001,-6.55001823984728e+000

2.14068408765776e+005,-2.64126159275070e+001,-6.64123731061745e+000

2.17056692391625e+005,-2.64132607685165e+001,-6.73372067247450e+000

2.20086690902357e+005,-2.64139235975552e+001,-6.82748559457318e+000

2.23158986616063e+005,-2.64146049124335e+001,-6.92254957142510e+000

2.26274169979693e+005,-2.64153052245176e+001,-7.01893032540606e+000

2.29432839682530e+005,-2.64160250590868e+001,-7.11664580927209e+000

2.32635602771247e+005,-2.64167649556993e+001,-7.21571420868707e+000

2.35883074766574e+005,-2.64175254685668e+001,-7.31615394475566e+000

2.39175879781588e+005,-2.64183071669380e+001,-7.41798367656564e+000

2.42514650641661e+005,-2.64191106354922e+001,-7.52122230373506e+000

2.45900029006080e+005,-2.64199364747412e+001,-7.62588896896668e+000

2.49332665491357e+005,-2.64207853014423e+001,-7.73200306060437e+000

2.52813219796278e+005,-2.64216577490190e+001,-7.83958421519509e+000

2.56342360828676e+005,-2.64225544679945e+001,-7.94865232005109e+000

2.59920766833993e+005,-2.64234761264327e+001,-8.05922751581459e+000

2.63549125525621e+005,-2.64244234103917e+001,-8.17133019902114e+000

2.67228134217075e+005,-2.64253970243865e+001,-8.28498102466209e+000

2.70958499956006e+005,-2.64263976918631e+001,-8.40020090874344e+000

2.74740939660078e+005,-2.64274261556834e+001,-8.51701103084126e+000

2.78576180254757e+005,-2.64284831786216e+001,-8.63543283665045e+000

2.82464958813007e+005,-2.64295695438713e+001,-8.75548804052654e+000

2.86408022696948e+005,-2.64306860555645e+001,-8.87719862801878e+000

2.90406129701488e+005,-2.64318335393025e+001,-9.00058685839208e+000

2.94460048199957e+005,-2.64330128426984e+001,-9.12567526713690e+000

2.98570557291775e+005,-2.64342248359317e+001,-9.25248666846549e+000

3.02738446952187e+005,-2.64354704123155e+001,-9.38104415779089e+000

3.06964518184081e+005,-2.64367504888759e+001,-9.51137111418912e+000

3.11249583171928e+005,-2.64380660069436e+001,-9.64349120284111e+000

3.15594465437872e+005,-2.64394179327598e+001,-9.77742837745198e+000

3.19999999999997e+005,-2.64408072580929e+001,-9.91320688264717e+000

3.24467033532806e+005,-2.64422350008706e+001,-1.00508512563407e+001

3.28996424529938e+005,-2.64437022058237e+001,-1.01903863320757e+001

3.33589043469155e+005,-2.64452099451442e+001,-1.03318372413337e+001

3.38245772979638e+005,-2.64467593191570e+001,-1.04752294158089e+001

3.42967508011610e+005,-2.64483514570050e+001,-1.06205885896478e+001

3.47755156008335e+005,-2.64499875173487e+001,-1.07679408016486e+001

3.52609637080511e+005,-2.64516686890797e+001,-1.09173123974197e+001

3.57531884183106e+005,-2.64533961920482e+001,-1.10687300314927e+001

3.62522843294651e+005,-2.64551712778055e+001,-1.12222206693887e+001

3.67583473599047e+005,-2.64569952303602e+001,-1.13778115896338e+001

3.72714747669902e+005,-2.64588693669498e+001,-1.15355303857201e+001

3.77917651657445e+005,-2.64607950388267e+001,-1.16954049680117e+001

3.83193185478053e+005,-2.64627736320589e+001,-1.18574635655880e+001

3.88542363006410e+005,-2.64648065683459e+001,-1.20217347280254e+001

3.93966212270369e+005,-2.64668953058495e+001,-1.21882473271107e+001

3.99465775648511e+005,-2.64690413400396e+001,-1.23570305584849e+001

4.05042110070485e+005,-2.64712462045554e+001,-1.25281139432105e+001

4.10696287220124e+005,-2.64735114720818e+001,-1.27015273292630e+001

4.16429393741414e+005,-2.64758387552402e+001,-1.28773008929385e+001

4.22242531447321e+005,-2.64782297074962e+001,-1.30554651401762e+001

4.28136817531551e+005,-2.64806860240807e+001,-1.32360509077896e+001

4.34113384783250e+005,-2.64832094429278e+001,-1.34190893646039e+001

4.40173381804713e+005,-2.64858017456270e+001,-1.36046120124949e+001

4.46317973232124e+005,-2.64884647583908e+001,-1.37926506873235e+001

4.52548339959385e+005,-2.64912003530380e+001,-1.39832375597642e+001

4.58865679365059e+005,-2.64940104479909e+001,-1.41764051360194e+001

4.65271205542494e+005,-2.64968970092892e+001,-1.43721862584175e+001

4.71766149533147e+005,-2.64998620516169e+001,-1.45706141058899e+001

4.78351759563174e+005,-2.65029076393452e+001,-1.47717221943194e+001

4.85029301283321e+005,-2.65060358875895e+001,-1.49755443767582e+001

4.91800058012158e+005,-2.65092489632814e+001,-1.51821148435085e+001

4.98665330982714e+005,-2.65125490862540e+001,-1.53914681220600e+001

5.05626439592555e+005,-2.65159385303419e+001,-1.56036390768811e+001

5.12684721657352e+005,-2.65194196244948e+001,-1.58186629090565e+001

5.19841533667984e+005,-2.65229947539045e+001,-1.60365751557661e+001

5.27098251051240e+005,-2.65266663611456e+001,-1.62574116895995e+001

5.34456268434150e+005,-2.65304369473279e+001,-1.64812087177019e+001

5.41916999912011e+005,-2.65343090732629e+001,-1.67080027807420e+001

