Freq.,VOut,OutRef

1.00000000000000e+004,-2.29014088592432e+001,-2.15681964754280e-001

1.01395947979003e+004,-2.29014095630610e+001,-2.18692761096566e-001

1.02811382665607e+004,-2.29014102866654e+001,-2.21745586093816e-001

1.04246576084112e+004,-2.29014110306127e+001,-2.24841026421540e-001

1.05701804056138e+004,-2.29014117954746e+001,-2.27979676947882e-001

1.07177346253629e+004,-2.29014125818392e+001,-2.31162140840017e-001

1.08673486252606e+004,-2.29014133903109e+001,-2.34389029687002e-001

1.10190511587661e+004,-2.29014142215114e+001,-2.37660963611973e-001

1.11728713807222e+004,-2.29014150760795e+001,-2.40978571396105e-001

1.13288388529580e+004,-2.29014159546720e+001,-2.44342490595608e-001

1.14869835499703e+004,-2.29014168579644e+001,-2.47753367664855e-001

1.16473358646846e+004,-2.29014177866512e+001,-2.51211858081506e-001

1.18099266142953e+004,-2.29014187414462e+001,-2.54718626473294e-001

1.19747870461893e+004,-2.29014197230833e+001,-2.58274346743675e-001

1.21419488439505e+004,-2.29014207323170e+001,-2.61879702202460e-001

1.23114441334492e+004,-2.29014217699233e+001,-2.65535385695426e-001

1.24833054890161e+004,-2.29014228366997e+001,-2.69242099739974e-001

1.26575659397028e+004,-2.29014239334663e+001,-2.73000556658088e-001

1.28342589756290e+004,-2.29014250610661e+001,-2.76811478715173e-001

1.30134185544193e+004,-2.29014262203660e+001,-2.80675598254455e-001

1.31950791077289e+004,-2.29014274122570e+001,-2.84593657843779e-001

1.33792755478611e+004,-2.29014286376553e+001,-2.88566410413238e-001

1.35660432744767e+004,-2.29014298975029e+001,-2.92594619402493e-001

1.37554181813974e+004,-2.29014311927683e+001,-2.96679058904875e-001

1.39474366635040e+004,-2.29014325244471e+001,-3.00820513818899e-001

1.41421356237309e+004,-2.29014338935628e+001,-3.05019779998289e-001

1.43395524801583e+004,-2.29014353011679e+001,-3.09277664402588e-001

1.45397251732031e+004,-2.29014367483446e+001,-3.13594985253963e-001

1.47426921729110e+004,-2.29014382362049e+001,-3.17972572196343e-001

1.49484924863494e+004,-2.29014397658928e+001,-3.22411266449846e-001

1.51571656651040e+004,-2.29014413385840e+001,-3.26911920976312e-001

1.53687518128801e+004,-2.29014429554872e+001,-3.31475400641560e-001

1.55832915932100e+004,-2.29014446178455e+001,-3.36102582381105e-001

1.58008262372675e+004,-2.29014463269367e+001,-3.40794355369235e-001

1.60213975517924e+004,-2.29014480840744e+001,-3.45551621189560e-001

1.62450479271247e+004,-2.29014498906091e+001,-3.50375294009264e-001

1.64718203453514e+004,-2.29014517479295e+001,-3.55266300751694e-001

1.67017583885674e+004,-2.29014536574633e+001,-3.60225581276737e-001

1.69349062472505e+004,-2.29014556206782e+001,-3.65254088560312e-001

1.71713087287550e+004,-2.29014576390831e+001,-3.70352788878834e-001

1.74110112659224e+004,-2.29014597142294e+001,-3.75522661991473e-001

1.76540599258131e+004,-2.29014618477122e+001,-3.80764701331501e-001

1.79005014185594e+004,-2.29014640411713e+001,-3.86079914195041e-001

1.81503831063432e+004,-2.29014662962927e+001,-3.91469321935262e-001

1.84037530124975e+004,-2.29014686148096e+001,-3.96933960158174e-001

1.86606598307361e+004,-2.29014709985042e+001,-4.02474878921167e-001

1.89211529345119e+004,-2.29014734492085e+001,-4.08093142935600e-001

1.91852823865052e+004,-2.29014759688061e+001,-4.13789831769066e-001

1.94530989482457e+004,-2.29014785592336e+001,-4.19566040054001e-001

1.97246540898671e+004,-2.29014812224819e+001,-4.25422877699014e-001

1.99999999999999e+004,-2.29014839605982e+001,-4.31361470098167e-001

2.02791895958005e+004,-2.29014867756866e+001,-4.37382958351157e-001

2.05622765331213e+004,-2.29014896699108e+001,-4.43488499479149e-001

2.08493152168224e+004,-2.29014926454953e+001,-4.49679266647450e-001

2.11403608112276e+004,-2.29014957047271e+001,-4.55956449391702e-001

2.14354692507258e+004,-2.29014988499572e+001,-4.62321253846065e-001

2.17346972505211e+004,-2.29015020836030e+001,-4.68774902972456e-001

2.20381023175322e+004,-2.29015054081496e+001,-4.75318636797847e-001

2.23457427614443e+004,-2.29015088261521e+001,-4.81953712649626e-001

2.26576777059159e+004,-2.29015123402375e+001,-4.88681405398773e-001

2.29739670999406e+004,-2.29015159531061e+001,-4.95503007704543e-001

2.32946717293690e+004,-2.29015196675348e+001,-5.02419830259276e-001

2.36198532285905e+004,-2.29015234863779e+001,-5.09433202044121e-001

2.39495740923785e+004,-2.29015274125704e+001,-5.16544470580445e-001

2.42838976879009e+004,-2.29015314491295e+001,-5.23755002189559e-001

2.46228882668982e+004,-2.29015355991573e+001,-5.31066182254985e-001

2.49666109780322e+004,-2.29015398658428e+001,-5.38479415487804e-001

2.53151318794055e+004,-2.29015442524651e+001,-5.45996126194728e-001

2.56685179512580e+004,-2.29015487623949e+001,-5.53617758554455e-001

2.60268371088386e+004,-2.29015533990981e+001,-5.61345776890222e-001

2.63901582154578e+004,-2.29015581661377e+001,-5.69181665952713e-001

2.67585510957221e+004,-2.29015630671767e+001,-5.77126931206558e-001

2.71320865489533e+004,-2.29015681059814e+001,-5.85183099113777e-001

2.75108363627948e+004,-2.29015732864235e+001,-5.93351717432229e-001

2.78948733270080e+004,-2.29015786124839e+001,-6.01634355506330e-001

2.82842712474618e+004,-2.29015840882549e+001,-6.10032604573615e-001

2.86791049603164e+004,-2.29015897179442e+001,-6.18548078063288e-001

2.90794503464061e+004,-2.29015955058774e+001,-6.27182411911905e-001

2.94853843458219e+004,-2.29016014565018e+001,-6.35937264871344e-001

2.98969849726987e+004,-2.29016075743895e+001,-6.44814318828889e-001

3.03143313302078e+004,-2.29016138642412e+001,-6.53815279129719e-001

3.07375036257601e+004,-2.29016203308895e+001,-6.62941874902271e-001

3.11665831864199e+004,-2.29016269793029e+001,-6.72195859389563e-001

3.16016524745350e+004,-2.29016338145893e+001,-6.81579010286101e-001

3.20427951035848e+004,-2.29016408420002e+001,-6.91093130076320e-001

3.24900958542493e+004,-2.29016480669347e+001,-7.00740046380454e-001

3.29436406907028e+004,-2.29016554949433e+001,-7.10521612304616e-001

3.34035167771346e+004,-2.29016631317326e+001,-7.20439706795318e-001

3.38698124945009e+004,-2.29016709831694e+001,-7.30496234998839e-001

3.43426174575100e+004,-2.29016790552853e+001,-7.40693128624965e-001

3.48220225318448e+004,-2.29016873542815e+001,-7.51032346317429e-001

3.53081198516260e+004,-2.29016958865329e+001,-7.61515874029942e-001

3.58010028371187e+004,-2.29017046585938e+001,-7.72145725402277e-001

3.63007662126863e+004,-2.29017136772027e+001,-7.82923942147906e-001

3.68075060249948e+004,-2.29017229492867e+001,-7.93852594445047e-001

3.73213196614721e+004,-2.29017324819682e+001,-8.04933781329710e-001

3.78423058690237e+004,-2.29017422825690e+001,-8.16169631099825e-001

3.83705647730104e+004,-2.29017523586169e+001,-8.27562301719640e-001

3.89061978964912e+004,-2.29017627178508e+001,-8.39113981233064e-001

3.94493081797342e+004,-2.29017733682270e+001,-8.50826888181779e-001

3.99999999999998e+004,-2.29017843179252e+001,-8.62703272029387e-001

4.05583791916010e+004,-2.29017955753549e+001,-8.74745413588891e-001

4.11245530662425e+004,-2.29018071491613e+001,-8.86955625461633e-001

4.16986304336447e+004,-2.29018190482327e+001,-8.99336252475436e-001

4.22807216224550e+004,-2.29018312817067e+001,-9.11889672134828e-001

4.28709385014515e+004,-2.29018438589775e+001,-9.24618295072093e-001

4.34693945010421e+004,-2.29018567897030e+001,-9.37524565510138e-001

4.40762046350642e+004,-2.29018700838121e+001,-9.50610961726769e-001

4.46914855228886e+004,-2.29018837515124e+001,-9.63879996528076e-001

4.53153554118317e+004,-2.29018978032981e+001,-9.77334217726845e-001

4.59479341998812e+004,-2.29019122499579e+001,-9.90976208628832e-001

4.65893434587380e+004,-2.29019271025832e+001,-1.00480858852668e+000

4.72397064571810e+004,-2.29019423725766e+001,-1.01883401319531e+000

4.78991481847569e+004,-2.29019580716608e+001,-1.03305517540156e+000

4.85677953758016e+004,-2.29019742118875e+001,-1.04747480541425e+000

4.92457765337964e+004,-2.29019908056463e+001,-1.06209567152691e+000

4.99332219560642e+004,-2.29020078656746e+001,-1.07692058058145e+000

5.06302637588109e+004,-2.29020254050670e+001,-1.09195237850537e+000

5.13370359025159e+004,-2.29020434372857e+001,-1.10719395085096e+000

5.20536742176771e+004,-2.29020619761702e+001,-1.12264822334556e+000

5.27803164309155e+004,-2.29020810359486e+001,-1.13831816244691e+000

5.35171021914442e+004,-2.29021006312476e+001,-1.15420677590826e+000

5.42641730979066e+004,-2.29021207771046e+001,-1.17031711334839e+000

5.50216727255895e+004,-2.29021414889782e+001,-1.18665226683250e+000

5.57897466540159e+004,-2.29021627827611e+001,-1.20321537145770e+000

5.65685424949235e+004,-2.29021846747911e+001,-1.22000960595045e+000

5.73582099206328e+004,-2.29022071818643e+001,-1.23703819326756e+000

5.81589006928121e+004,-2.29022303212478e+001,-1.25430440120889e+000

5.89707686916437e+004,-2.29022541106926e+001,-1.27181154303711e+000

5.97939699453972e+004,-2.29022785684474e+001,-1.28956297810505e+000

6.06286626604156e+004,-2.29023037132723e+001,-1.30756211249335e+000

6.14750072515201e+004,-2.29023295644534e+001,-1.32581239965456e+000

6.23331663728396e+004,-2.29023561418169e+001,-1.34431734106808e+000

6.32033049490698e+004,-2.29023834657450e+001,-1.36308048690199e+000

6.40855902071694e+004,-2.29024115571908e+001,-1.38210543668544e+000

6.49801917084985e+004,-2.29024404376944e+001,-1.40139583998875e+000

6.58872813814055e+004,-2.29024701293995e+001,-1.42095539711420e+000

6.68070335542691e+004,-2.29025006550698e+001,-1.44078785979421e+000

6.77396249890018e+004,-2.29025320381070e+001,-1.46089703189945e+000

6.86852349150199e+004,-2.29025643025677e+001,-1.48128677015884e+000

6.96440450636895e+004,-2.29025974731826e+001,-1.50196098488489e+000

7.06162397032520e+004,-2.29026315753746e+001,-1.52292364071198e+000

7.16020056742374e+004,-2.29026666352782e+001,-1.54417875734431e+000

7.26015324253724e+004,-2.29027026797600e+001,-1.56573041031177e+000

7.36150120499896e+004,-2.29027397364381e+001,-1.58758273173714e+000

7.46426393229441e+004,-2.29027778337037e+001,-1.60973991111526e+000

7.56846117380472e+004,-2.29028170007425e+001,-1.63220619609885e+000

7.67411295460207e+004,-2.29028572675570e+001,-1.65498589329659e+000

7.78123957929823e+004,-2.29028986649884e+001,-1.67808336908454e+000

7.88986163594682e+004,-2.29029412247412e+001,-1.70150305042222e+000

7.99999999999995e+004,-2.29029849794064e+001,-1.72524942568510e+000

8.11167583832018e+004,-2.29030299624862e+001,-1.74932704550485e+000

8.22491061324848e+004,-2.29030762084199e+001,-1.77374052362232e+000

8.33972608672892e+004,-2.29031237526091e+001,-1.79849453774996e+000

8.45614432449099e+004,-2.29031726314451e+001,-1.82359383044813e+000

8.57418770029029e+004,-2.29032228823362e+001,-1.84904321001000e+000

8.69387890020841e+004,-2.29032745437360e+001,-1.87484755136017e+000

8.81524092701283e+004,-2.29033276551722e+001,-1.90101179696365e+000

8.93829710457770e+004,-2.29033822572767e+001,-1.92754095774801e+000

9.06307108236633e+004,-2.29034383918161e+001,-1.95444011403596e+000

9.18958683997622e+004,-2.29034961017231e+001,-1.98171441649159e+000

9.31786869174758e+004,-2.29035554311291e+001,-2.00936908707685e+000

9.44794129143618e+004,-2.29036164253970e+001,-2.03740942002322e+000

9.57982963695136e+004,-2.29036791311558e+001,-2.06584078281323e+000

9.71355907516031e+004,-2.29037435963351e+001,-2.09466861717556e+000

9.84915530675926e+004,-2.29038098702018e+001,-2.12389844009326e+000

9.98664439121282e+004,-2.29038780033963e+001,-2.15353584482464e+000

1.01260527517622e+005,-2.29039480479712e+001,-2.18358650193684e+000

1.02674071805032e+005,-2.29040200574300e+001,-2.21405616035329e+000

1.04107348435354e+005,-2.29040940867670e+001,-2.24495064841310e+000

1.05560632861831e+005,-2.29041701925089e+001,-2.27627587494569e+000

1.07034204382888e+005,-2.29042484327568e+001,-2.30803783035757e+000

1.08528346195813e+005,-2.29043288672299e+001,-2.34024258773272e+000

1.10043345451179e+005,-2.29044115573098e+001,-2.37289630394839e+000

1.11579493308032e+005,-2.29044965660863e+001,-2.40600522080270e+000

1.13137084989847e+005,-2.29045839584049e+001,-2.43957566615813e+000

1.14716419841265e+005,-2.29046738009147e+001,-2.47361405509797e+000

1.16317801385624e+005,-2.29047661621182e+001,-2.50812689109744e+000

1.17941537383287e+005,-2.29048611124222e+001,-2.54312076720947e+000

1.19587939890794e+005,-2.29049587241903e+001,-2.57860236726484e+000

1.21257325320831e+005,-2.29050590717961e+001,-2.61457846708749e+000

1.22950014503040e+005,-2.29051622316792e+001,-2.65105593572372e+000

1.24666332745679e+005,-2.29052682824011e+001,-2.68804173668700e+000

1.26406609898139e+005,-2.29053773047039e+001,-2.72554292921786e+000

1.28171180414339e+005,-2.29054893815696e+001,-2.76356666955843e+000

1.29960383416997e+005,-2.29056045982817e+001,-2.80212021224304e+000

1.31774562762811e+005,-2.29057230424879e+001,-2.84121091140348e+000

1.33614067108538e+005,-2.29058448042651e+001,-2.88084622209031e+000

1.35479249978003e+005,-2.29059699761851e+001,-2.92103370160945e+000

1.37370469830040e+005,-2.29060986533832e+001,-2.96178101087444e+000

1.39288090127379e+005,-2.29062309336281e+001,-3.00309591577533e+000

1.41232479406504e+005,-2.29063669173931e+001,-3.04498628856247e+000

1.43204011348474e+005,-2.29065067079301e+001,-3.08746010924680e+000

1.45203064850745e+005,-2.29066504113453e+001,-3.13052546701611e+000

1.47230024099979e+005,-2.29067981366764e+001,-3.17419056166835e+000

1.49285278645888e+005,-2.29069499959720e+001,-3.21846370505979e+000

1.51369223476094e+005,-2.29071061043739e+001,-3.26335332257083e+000

1.53482259092041e+005,-2.29072665802002e+001,-3.30886795458800e+000

1.55624791585964e+005,-2.29074315450318e+001,-3.35501625800122e+000

1.57797232718936e+005,-2.29076011237999e+001,-3.40180700772051e+000

1.59999999999999e+005,-2.29077754448771e+001,-3.44924909820645e+000

1.62233516766403e+005,-2.29079546401699e+001,-3.49735154501952e+000

1.64498212264969e+005,-2.29081388452141e+001,-3.54612348638408e+000

1.66794521734578e+005,-2.29083281992722e+001,-3.59557418477212e+000

1.69122886489819e+005,-2.29085228454336e+001,-3.64571302850147e+000

1.71483754005805e+005,-2.29087229307175e+001,-3.69654953335201e+000

1.73877578004168e+005,-2.29089286061781e+001,-3.74809334419907e+000

1.76304818540256e+005,-2.29091400270127e+001,-3.80035423666250e+000

1.78765942091554e+005,-2.29093573526723e+001,-3.85334211877505e+000

1.81261421647326e+005,-2.29095807469756e+001,-3.90706703266588e+000

1.83791736799524e+005,-2.29098103782248e+001,-3.96153915626179e+000

1.86357373834951e+005,-2.29100464193257e+001,-4.01676880500600e+000

1.88958825828723e+005,-2.29102890479095e+001,-4.07276643359296e+000

1.91596592739027e+005,-2.29105384464585e+001,-4.12954263772150e+000

1.94271181503206e+005,-2.29107948024348e+001,-4.18710815586364e+000

1.96983106135185e+005,-2.29110583084117e+001,-4.24547387105146e+000

1.99732887824256e+005,-2.29113291622091e+001,-4.30465081268068e+000

2.02521055035243e+005,-2.29116075670317e+001,-4.36465015833043e+000

2.05348143610063e+005,-2.29118937316109e+001,-4.42548323560133e+000

2.08214696870707e+005,-2.29121878703497e+001,-4.48716152396859e+000

2.11121265723661e+005,-2.29124902034718e+001,-4.54969665665360e+000

2.14068408765776e+005,-2.29128009571744e+001,-4.61310042251039e+000

2.17056692391625e+005,-2.29131203637833e+001,-4.67738476793014e+000

2.20086690902357e+005,-2.29134486619137e+001,-4.74256179876104e+000

2.23158986616063e+005,-2.29137860966336e+001,-4.80864378224527e+000

2.26274169979693e+005,-2.29141329196314e+001,-4.87564314897081e+000

2.29432839682530e+005,-2.29144893893876e+001,-4.94357249484130e+000

2.32635602771247e+005,-2.29148557713504e+001,-5.01244458305985e+000

2.35883074766574e+005,-2.29152323381160e+001,-5.08227234612931e+000

2.39175879781588e+005,-2.29156193696119e+001,-5.15306888786847e+000

2.42514650641661e+005,-2.29160171532861e+001,-5.22484748544263e+000

2.45900029006080e+005,-2.29164259842994e+001,-5.29762159141023e+000

2.49332665491357e+005,-2.29168461657227e+001,-5.37140483578371e+000

2.52813219796278e+005,-2.29172780087390e+001,-5.44621102810528e+000

2.56342360828676e+005,-2.29177218328497e+001,-5.52205415953692e+000

2.59920766833993e+005,-2.29181779660854e+001,-5.59894840496497e+000

2.63549125525621e+005,-2.29186467452222e+001,-5.67690812511824e+000

2.67228134217075e+005,-2.29191285160025e+001,-5.75594786869974e+000

2.70958499956006e+005,-2.29196236333602e+001,-5.83608237453181e+000

2.74740939660078e+005,-2.29201324616518e+001,-5.91732657371431e+000

2.78576180254757e+005,-2.29206553748924e+001,-5.99969559179462e+000

2.82464958813007e+005,-2.29211927569962e+001,-6.08320475095199e+000

2.86408022696948e+005,-2.29217450020230e+001,-6.16786957219169e+000

2.90406129701488e+005,-2.29223125144300e+001,-6.25370577755124e+000

2.94460048199957e+005,-2.29228957093286e+001,-6.34072929231954e+000

2.98570557291775e+005,-2.29234950127469e+001,-6.42895624726390e+000

3.02738446952187e+005,-2.29241108618981e+001,-6.51840298087026e+000

3.06964518184081e+005,-2.29247437054540e+001,-6.60908604159124e+000

3.11249583171928e+005,-2.29253940038245e+001,-6.70102219010588e+000

3.15594465437872e+005,-2.29260622294432e+001,-6.79422840158563e+000

3.19999999999997e+005,-2.29267488670583e+001,-6.88872186797202e+000

3.24467033532806e+005,-2.29274544140299e+001,-6.98452000026025e+000

3.28996424529938e+005,-2.29281793806332e+001,-7.08164043079182e+000

3.33589043469155e+005,-2.29289242903677e+001,-7.18010101555298e+000

3.38245772979638e+005,-2.29296896802731e+001,-7.27991983648148e+000

3.42967508011610e+005,-2.29304761012505e+001,-7.38111520377816e+000

3.47755156008335e+005,-2.29312841183910e+001,-7.48370565822481e+000

3.52609637080511e+005,-2.29321143113095e+001,-7.58770997350699e+000

3.57531884183106e+005,-2.29329672744867e+001,-7.69314715854099e+000

3.62522843294651e+005,-2.29338436176156e+001,-7.80003645980603e+000

3.67583473599047e+005,-2.29347439659561e+001,-7.90839736367818e+000

3.72714747669902e+005,-2.29356689606958e+001,-8.01824959876832e+000

3.77917651657445e+005,-2.29366192593171e+001,-8.12961313826263e+000

3.83193185478053e+005,-2.29375955359721e+001,-8.24250820226359e+000

3.88542363006410e+005,-2.29385984818632e+001,-8.35695526013329e+000

3.93966212270369e+005,-2.29396288056319e+001,-8.47297503283701e+000

3.99465775648511e+005,-2.29406872337533e+001,-8.59058849528695e+000

4.05042110070485e+005,-2.29417745109386e+001,-8.70981687868430e+000

4.10696287220124e+005,-2.29428914005443e+001,-8.83068167286265e+000

4.16429393741414e+005,-2.29440386849890e+001,-8.95320462862685e+000

4.22242531447321e+005,-2.29452171661770e+001,-9.07740776009138e+000

4.28136817531551e+005,-2.29464276659291e+001,-9.20331334701554e+000

4.34113384783250e+005,-2.29476710264219e+001,-9.33094393713506e+000

4.40173381804713e+005,-2.29489481106330e+001,-9.46032234848943e+000

4.46317973232124e+005,-2.29502598027951e+001,-9.59147167174529e+000

4.52548339959385e+005,-2.29516070088565e+001,-9.72441527251486e+000

4.58865679365059e+005,-2.29529906569509e+001,-9.85917679366735e+000

4.65271205542494e+005,-2.29544116978727e+001,-9.99578015763634e+000

4.71766149533147e+005,-2.29558711055628e+001,-1.01342495687186e+001

4.78351759563174e+005,-2.29573698775996e+001,-1.02746095153667e+001

4.85029301283321e+005,-2.29589090357008e+001,-1.04168847724733e+001

4.91800058012158e+005,-2.29604896262305e+001,-1.05611004036478e+001

4.98665330982714e+005,-2.29621127207172e+001,-1.07072817634834e+001

5.05626439592555e+005,-2.29637794163777e+001,-1.08554544998157e+001

5.12684721657352e+005,-2.29654908366515e+001,-1.10056445559705e+001

5.19841533667984e+005,-2.29672481317425e+001,-1.11578781730022e+001

5.27098251051240e+005,-2.29690524791697e+001,-1.13121818919204e+001

5.34456268434150e+005,-2.29709050843269e+001,-1.14685825559060e+001

5.41916999912011e+005,-2.29728071810512e+001,-1.16271073125147e+001

