Freq.,VOut,OutRef

1.00000000000000e+004,-1.46751135971790e+001,-1.49218642232064e-001

1.01395947979003e+004,-1.46751137238620e+001,-1.51301654258713e-001

1.02811382665607e+004,-1.46751138541062e+001,-1.53413743940303e-001

1.04246576084112e+004,-1.46751139880122e+001,-1.55555317179658e-001

1.05701804056138e+004,-1.46751141256825e+001,-1.57726785547842e-001

1.07177346253629e+004,-1.46751142672231e+001,-1.59928566360269e-001

1.08673486252606e+004,-1.46751144127429e+001,-1.62161082756626e-001

1.10190511587661e+004,-1.46751145623535e+001,-1.64424763785820e-001

1.11728713807222e+004,-1.46751147161701e+001,-1.66720044482979e-001

1.13288388529580e+004,-1.46751148743109e+001,-1.69047365957258e-001

1.14869835499703e+004,-1.46751150368974e+001,-1.71407175475061e-001

1.16473358646846e+004,-1.46751152040547e+001,-1.73799926546100e-001

1.18099266142953e+004,-1.46751153759112e+001,-1.76226079010204e-001

1.19747870461893e+004,-1.46751155525989e+001,-1.78686099127146e-001

1.21419488439505e+004,-1.46751157342538e+001,-1.81180459662980e-001

1.23114441334492e+004,-1.46751159210155e+001,-1.83709639985392e-001

1.24833054890161e+004,-1.46751161130275e+001,-1.86274126152420e-001

1.26575659397028e+004,-1.46751163104372e+001,-1.88874411007541e-001

1.28342589756290e+004,-1.46751165133968e+001,-1.91510994270810e-001

1.30134185544193e+004,-1.46751167220618e+001,-1.94184382643198e-001

1.31950791077289e+004,-1.46751169365930e+001,-1.96895089892363e-001

1.33792755478611e+004,-1.46751171571550e+001,-1.99643636962985e-001

1.35660432744767e+004,-1.46751173839176e+001,-2.02430552067122e-001

1.37554181813974e+004,-1.46751176170549e+001,-2.05256370792526e-001

1.39474366635040e+004,-1.46751178567461e+001,-2.08121636203228e-001

1.41421356237309e+004,-1.46751181031755e+001,-2.11026898941300e-001

1.43395524801583e+004,-1.46751183565325e+001,-2.13972717336907e-001

1.45397251732031e+004,-1.46751186170118e+001,-2.16959657513965e-001

1.47426921729110e+004,-1.46751188848137e+001,-2.19988293496647e-001

1.49484924863494e+004,-1.46751191601439e+001,-2.23059207324356e-001

1.51571656651040e+004,-1.46751194432141e+001,-2.26172989158501e-001

1.53687518128801e+004,-1.46751197342420e+001,-2.29330237398600e-001

1.55832915932100e+004,-1.46751200334510e+001,-2.32531558799293e-001

1.58008262372675e+004,-1.46751203410711e+001,-2.35777568581449e-001

1.60213975517924e+004,-1.46751206573389e+001,-2.39068890554853e-001

1.62450479271247e+004,-1.46751209824975e+001,-2.42406157236234e-001

1.64718203453514e+004,-1.46751213167965e+001,-2.45790009972271e-001

1.67017583885674e+004,-1.46751216604932e+001,-2.49221099059646e-001

1.69349062472505e+004,-1.46751220138516e+001,-2.52700083873110e-001

1.71713087287550e+004,-1.46751223771433e+001,-2.56227632992235e-001

1.74110112659224e+004,-1.46751227506472e+001,-2.59804424328082e-001

1.76540599258131e+004,-1.46751231346509e+001,-2.63431145251973e-001

1.79005014185594e+004,-1.46751235294491e+001,-2.67108492732123e-001

1.81503831063432e+004,-1.46751239353455e+001,-2.70837173463788e-001

1.84037530124975e+004,-1.46751243526517e+001,-2.74617904008623e-001

1.86606598307361e+004,-1.46751247816887e+001,-2.78451410925853e-001

1.89211529345119e+004,-1.46751252227861e+001,-2.82338430919244e-001

1.91852823865052e+004,-1.46751256762828e+001,-2.86279710974943e-001

1.94530989482457e+004,-1.46751261425275e+001,-2.90276008502952e-001

1.97246540898671e+004,-1.46751266218783e+001,-2.94328091488912e-001

1.99999999999999e+004,-1.46751271147037e+001,-2.98436738635090e-001

2.02791895958005e+004,-1.46751276213824e+001,-3.02602739512530e-001

2.05622765331213e+004,-1.46751281423037e+001,-3.06826894714871e-001

2.08493152168224e+004,-1.46751286778680e+001,-3.11110016007719e-001

2.11403608112276e+004,-1.46751292284867e+001,-3.15452926489090e-001

2.14354692507258e+004,-1.46751297945830e+001,-3.19856460743702e-001

2.17346972505211e+004,-1.46751303765920e+001,-3.24321465005430e-001

2.20381023175322e+004,-1.46751309749607e+001,-3.28848797319870e-001

2.23457427614443e+004,-1.46751315901490e+001,-3.33439327707869e-001

2.26576777059159e+004,-1.46751322226295e+001,-3.38093938334400e-001

2.29739670999406e+004,-1.46751328728884e+001,-3.42813523675074e-001

2.32946717293690e+004,-1.46751335414251e+001,-3.47598990692090e-001

2.36198532285905e+004,-1.46751342287535e+001,-3.52451259003370e-001

2.39495740923785e+004,-1.46751349354015e+001,-3.57371261065468e-001

2.42838976879009e+004,-1.46751356619121e+001,-3.62359942346391e-001

2.46228882668982e+004,-1.46751364088434e+001,-3.67418261511297e-001

2.49666109780322e+004,-1.46751371767695e+001,-3.72547190603345e-001

2.53151318794055e+004,-1.46751379662803e+001,-3.77747715234488e-001

2.56685179512580e+004,-1.46751387779822e+001,-3.83020834771475e-001

2.60268371088386e+004,-1.46751396124988e+001,-3.88367562529132e-001

2.63901582154578e+004,-1.46751404704715e+001,-3.93788925962651e-001

2.67585510957221e+004,-1.46751413525592e+001,-3.99285966869218e-001

2.71320865489533e+004,-1.46751422594395e+001,-4.04859741585113e-001

2.75108363627948e+004,-1.46751431918092e+001,-4.10511321187712e-001

2.78948733270080e+004,-1.46751441503845e+001,-4.16241791703263e-001

2.82842712474618e+004,-1.46751451359016e+001,-4.22052254315441e-001

2.86791049603164e+004,-1.46751461491177e+001,-4.27943825573968e-001

2.90794503464061e+004,-1.46751471908110e+001,-4.33917637613057e-001

2.94853843458219e+004,-1.46751482617818e+001,-4.39974838364076e-001

2.98969849726987e+004,-1.46751493628524e+001,-4.46116591781756e-001

3.03143313302078e+004,-1.46751504948686e+001,-4.52344078061714e-001

3.07375036257601e+004,-1.46751516587000e+001,-4.58658493870072e-001

3.11665831864199e+004,-1.46751528552405e+001,-4.65061052573239e-001

3.16016524745350e+004,-1.46751540854088e+001,-4.71552984470223e-001

3.20427951035848e+004,-1.46751553501499e+001,-4.78135537028678e-001

3.24900958542493e+004,-1.46751566504350e+001,-4.84809975124328e-001

3.29436406907028e+004,-1.46751579872625e+001,-4.91577581285258e-001

3.34035167771346e+004,-1.46751593616592e+001,-4.98439655934278e-001

3.38698124945009e+004,-1.46751607746805e+001,-5.05397517642902e-001

3.43426174575100e+004,-1.46751622274113e+001,-5.12452503381323e-001

3.48220225318448e+004,-1.46751637209671e+001,-5.19605968777630e-001

3.53081198516260e+004,-1.46751652564948e+001,-5.26859288374038e-001

3.58010028371187e+004,-1.46751668351733e+001,-5.34213855895012e-001

3.63007662126863e+004,-1.46751684582147e+001,-5.41671084511385e-001

3.68075060249948e+004,-1.46751701268650e+001,-5.49232407113597e-001

3.73213196614721e+004,-1.46751718424053e+001,-5.56899276585906e-001

3.78423058690237e+004,-1.46751736061526e+001,-5.64673166083673e-001

3.83705647730104e+004,-1.46751754194609e+001,-5.72555569318627e-001

3.89061978964912e+004,-1.46751772837222e+001,-5.80548000843201e-001

3.94493081797342e+004,-1.46751792003672e+001,-5.88651996343374e-001

3.99999999999998e+004,-1.46751811708674e+001,-5.96869112929696e-001

4.05583791916010e+004,-1.46751831967348e+001,-6.05200929439816e-001

4.11245530662425e+004,-1.46751852795246e+001,-6.13649046738387e-001

4.16986304336447e+004,-1.46751874208352e+001,-6.22215088025135e-001

4.22807216224550e+004,-1.46751896223096e+001,-6.30900699147272e-001

4.28709385014515e+004,-1.46751918856374e+001,-6.39707548913236e-001

4.34693945010421e+004,-1.46751942125553e+001,-6.48637329412988e-001

4.40762046350642e+004,-1.46751966048488e+001,-6.57691756343787e-001

4.46914855228886e+004,-1.46751990643533e+001,-6.66872569337267e-001

4.53153554118317e+004,-1.46752015929558e+001,-6.76181532295128e-001

4.59479341998812e+004,-1.46752041925961e+001,-6.85620433725182e-001

4.65893434587380e+004,-1.46752068652686e+001,-6.95191087084309e-001

4.72397064571810e+004,-1.46752096130233e+001,-7.04895331128355e-001

4.78991481847569e+004,-1.46752124379680e+001,-7.14735030261336e-001

4.85677953758016e+004,-1.46752153422692e+001,-7.24712074895120e-001

4.92457765337964e+004,-1.46752183281544e+001,-7.34828381811080e-001

4.99332219560642e+004,-1.46752213979135e+001,-7.45085894525809e-001

5.06302637588109e+004,-1.46752245539002e+001,-7.55486583666167e-001

5.13370359025159e+004,-1.46752277985348e+001,-7.66032447343879e-001

5.20536742176771e+004,-1.46752311343048e+001,-7.76725511541534e-001

5.27803164309155e+004,-1.46752345637676e+001,-7.87567830497236e-001

5.35171021914442e+004,-1.46752380895523e+001,-7.98561487100622e-001

5.42641730979066e+004,-1.46752417143616e+001,-8.09708593290198e-001

5.50216727255895e+004,-1.46752454409737e+001,-8.21011290458662e-001

5.57897466540159e+004,-1.46752492722449e+001,-8.32471749861910e-001

5.65685424949235e+004,-1.46752532111111e+001,-8.44092173036749e-001

5.73582099206328e+004,-1.46752572605907e+001,-8.55874792218959e-001

5.81589006928121e+004,-1.46752614237863e+001,-8.67821870773801e-001

5.89707686916437e+004,-1.46752657038877e+001,-8.79935703626891e-001

5.97939699453972e+004,-1.46752701041737e+001,-8.92218617705016e-001

6.06286626604156e+004,-1.46752746280147e+001,-9.04672972380443e-001

6.14750072515201e+004,-1.46752792788757e+001,-9.17301159921725e-001

6.23331663728396e+004,-1.46752840603183e+001,-9.30105605953160e-001

6.32033049490698e+004,-1.46752889760041e+001,-9.43088769916318e-001

6.40855902071694e+004,-1.46752940296969e+001,-9.56253145542298e-001

6.49801917084985e+004,-1.46752992252653e+001,-9.69601261328285e-001

6.58872813814055e+004,-1.46753045666868e+001,-9.83135681019285e-001

6.68070335542691e+004,-1.46753100580497e+001,-9.96859004100099e-001

6.77396249890018e+004,-1.46753157035563e+001,-1.01077386629153e+000

6.86852349150199e+004,-1.46753215075268e+001,-1.02488294005385e+000

6.96440450636895e+004,-1.46753274744016e+001,-1.03918893509750e+000

7.06162397032520e+004,-1.46753336087456e+001,-1.05369459890033e+000

7.16020056742374e+004,-1.46753399152508e+001,-1.06840271723358e+000

7.26015324253724e+004,-1.46753463987404e+001,-1.08331611469224e+000

7.36150120499896e+004,-1.46753530641721e+001,-1.09843765523538e+000

7.46426393229441e+004,-1.46753599166421e+001,-1.11377024273367e+000

7.56846117380472e+004,-1.46753669613887e+001,-1.12931682152142e+000

7.67411295460207e+004,-1.46753742037962e+001,-1.14508037696030e+000

7.78123957929823e+004,-1.46753816493996e+001,-1.16106393600779e+000

7.88986163594682e+004,-1.46753893038875e+001,-1.17727056779550e+000

7.99999999999995e+004,-1.46753971731078e+001,-1.19370338421405e+000

8.11167583832018e+004,-1.46754052630707e+001,-1.21036554050688e+000

8.22491061324848e+004,-1.46754135799545e+001,-1.22726023586977e+000

8.33972608672892e+004,-1.46754221301092e+001,-1.24439071406401e+000

8.45614432449099e+004,-1.46754309200618e+001,-1.26176026403183e+000

8.57418770029029e+004,-1.46754399565212e+001,-1.27937222052291e+000

8.69387890020841e+004,-1.46754492463826e+001,-1.29722996473229e+000

8.81524092701283e+004,-1.46754587967336e+001,-1.31533692494000e+000

8.93829710457770e+004,-1.46754686148586e+001,-1.33369657716722e+000

9.06307108236633e+004,-1.46754787082448e+001,-1.35231244583602e+000

9.18958683997622e+004,-1.46754890845874e+001,-1.37118810444111e+000

9.31786869174758e+004,-1.46754997517956e+001,-1.39032717622802e+000

9.44794129143618e+004,-1.46755107179985e+001,-1.40973333488269e+000

9.57982963695136e+004,-1.46755219915508e+001,-1.42941030523118e+000

9.71355907516031e+004,-1.46755335810392e+001,-1.44936186394524e+000

9.84915530675926e+004,-1.46755454952887e+001,-1.46959184026188e+000

9.98664439121282e+004,-1.46755577433695e+001,-1.49010411670911e+000

1.01260527517622e+005,-1.46755703346032e+001,-1.51090262984411e+000

1.02674071805032e+005,-1.46755832785695e+001,-1.53199137100046e+000

1.04107348435354e+005,-1.46755965851143e+001,-1.55337438704423e+000

1.05560632861831e+005,-1.46756102643558e+001,-1.57505578114325e+000

1.07034204382888e+005,-1.46756243266925e+001,-1.59703971354422e+000

1.08528346195813e+005,-1.46756387828109e+001,-1.61933040236094e+000

1.10043345451179e+005,-1.46756536436932e+001,-1.64193212437410e+000

1.11579493308032e+005,-1.46756689206251e+001,-1.66484921584127e+000

1.13137084989847e+005,-1.46756846252047e+001,-1.68808607331735e+000

1.14716419841265e+005,-1.46757007693504e+001,-1.71164715448778e+000

1.16317801385624e+005,-1.46757173653095e+001,-1.73553697901035e+000

1.17941537383287e+005,-1.46757344256680e+001,-1.75976012937035e+000

1.19587939890794e+005,-1.46757519633587e+001,-1.78432125174766e+000

1.21257325320831e+005,-1.46757699916713e+001,-1.80922505689312e+000

1.22950014503040e+005,-1.46757885242616e+001,-1.83447632101880e+000

1.24666332745679e+005,-1.46758075751618e+001,-1.86007988670019e+000

1.26406609898139e+005,-1.46758271587903e+001,-1.88604066378826e+000

1.28171180414339e+005,-1.46758472899623e+001,-1.91236363033640e+000

1.29960383416997e+005,-1.46758679839006e+001,-1.93905383353894e+000

1.31774562762811e+005,-1.46758892562459e+001,-1.96611639068114e+000

1.33614067108538e+005,-1.46759111230690e+001,-1.99355649010339e+000

1.35479249978003e+005,-1.46759336008814e+001,-2.02137939217653e+000

1.37370469830040e+005,-1.46759567066478e+001,-2.04959043029312e+000

1.39288090127379e+005,-1.46759804577977e+001,-2.07819501186747e+000

1.41232479406504e+005,-1.46760048722382e+001,-2.10719861935407e+000

1.43204011348474e+005,-1.46760299683665e+001,-2.13660681127522e+000

1.45203064850745e+005,-1.46760557650829e+001,-2.16642522326461e+000

1.47230024099979e+005,-1.46760822818043e+001,-2.19665956912425e+000

1.49285278645888e+005,-1.46761095384779e+001,-2.22731564189532e+000

1.51369223476094e+005,-1.46761375555952e+001,-2.25839931494313e+000

1.53482259092041e+005,-1.46761663542064e+001,-2.28991654305614e+000

1.55624791585964e+005,-1.46761959559350e+001,-2.32187336356028e+000

1.57797232718936e+005,-1.46762263829932e+001,-2.35427589744677e+000

1.59999999999999e+005,-1.46762576581974e+001,-2.38713035051608e+000

1.62233516766403e+005,-1.46762898049833e+001,-2.42044301453578e+000

1.64498212264969e+005,-1.46763228474233e+001,-2.45422026841438e+000

1.66794521734578e+005,-1.46763568102424e+001,-2.48846857938948e+000

1.69122886489819e+005,-1.46763917188351e+001,-2.52319450423333e+000

1.71483754005805e+005,-1.46764275992834e+001,-2.55840469047174e+000

1.73877578004168e+005,-1.46764644783743e+001,-2.59410587762096e+000

1.76304818540256e+005,-1.46765023836182e+001,-2.63030489843887e+000

1.78765942091554e+005,-1.46765413432675e+001,-2.66700868019470e+000

1.81261421647326e+005,-1.46765813863358e+001,-2.70422424595254e+000

1.83791736799524e+005,-1.46766225426175e+001,-2.74195871587334e+000

1.86357373834951e+005,-1.46766648427080e+001,-2.78021930853320e+000

1.88958825828723e+005,-1.46767083180238e+001,-2.81901334225880e+000

1.91596592739027e+005,-1.46767530008240e+001,-2.85834823647982e+000

1.94271181503206e+005,-1.46767989242313e+001,-2.89823151309834e+000

1.96983106135185e+005,-1.46768461222544e+001,-2.93867079787761e+000

1.99732887824256e+005,-1.46768946298099e+001,-2.97967382184625e+000

2.02521055035243e+005,-1.46769444827458e+001,-3.02124842272199e+000

2.05348143610063e+005,-1.46769957178645e+001,-3.06340254635305e+000

2.08214696870707e+005,-1.46770483729471e+001,-3.10614424817859e+000

2.11121265723661e+005,-1.46771024867777e+001,-3.14948169470655e+000

2.14068408765776e+005,-1.46771580991684e+001,-3.19342316501178e+000

2.17056692391625e+005,-1.46772152509851e+001,-3.23797705225136e+000

2.20086690902357e+005,-1.46772739841732e+001,-3.28315186520123e+000

2.23158986616063e+005,-1.46773343417846e+001,-3.32895622981094e+000

2.26274169979693e+005,-1.46773963680051e+001,-3.37539889077769e+000

2.29432839682530e+005,-1.46774601081813e+001,-3.42248871314212e+000

2.32635602771247e+005,-1.46775256088501e+001,-3.47023468390153e+000

2.35883074766574e+005,-1.46775929177668e+001,-3.51864591364615e+000

2.39175879781588e+005,-1.46776620839351e+001,-3.56773163821387e+000

2.42514650641661e+005,-1.46777331576368e+001,-3.61750122036709e+000

2.45900029006080e+005,-1.46778061904628e+001,-3.66796415148938e+000

2.49332665491357e+005,-1.46778812353444e+001,-3.71913005330438e+000

2.52813219796278e+005,-1.46779583465852e+001,-3.77100867961533e+000

2.56342360828676e+005,-1.46780375798931e+001,-3.82360991806776e+000

2.59920766833993e+005,-1.46781189924145e+001,-3.87694379193171e+000

2.63549125525621e+005,-1.46782026427669e+001,-3.93102046190893e+000

2.67228134217075e+005,-1.46782885910741e+001,-3.98585022795967e+000

2.70958499956006e+005,-1.46783768990007e+001,-4.04144353115495e+000

2.74740939660078e+005,-1.46784676297878e+001,-4.09781095555000e+000

2.78576180254757e+005,-1.46785608482896e+001,-4.15496323008131e+000

2.82464958813007e+005,-1.46786566210096e+001,-4.21291123048670e+000

2.86408022696948e+005,-1.46787550161389e+001,-4.27166598125123e+000

2.90406129701488e+005,-1.46788561035935e+001,-4.33123865757413e+000

2.94460048199957e+005,-1.46789599550537e+001,-4.39164058736254e+000

2.98570557291775e+005,-1.46790666440031e+001,-4.45288325324863e+000

3.02738446952187e+005,-1.46791762457687e+001,-4.51497829463206e+000

3.06964518184081e+005,-1.46792888375617e+001,-4.57793750974722e+000

3.11249583171928e+005,-1.46794044985186e+001,-4.64177285775710e+000

3.15594465437872e+005,-1.46795233097429e+001,-4.70649646087193e+000

3.19999999999997e+005,-1.46796453543480e+001,-4.77212060649410e+000

3.24467033532806e+005,-1.46797707174999e+001,-4.83865774939090e+000

3.28996424529938e+005,-1.46798994864611e+001,-4.90612051389278e+000

3.33589043469155e+005,-1.46800317506351e+001,-4.97452169611903e+000

3.38245772979638e+005,-1.46801676016106e+001,-5.04387426623224e+000

3.42967508011610e+005,-1.46803071332079e+001,-5.11419137071942e+000

3.47755156008335e+005,-1.46804504415246e+001,-5.18548633470241e+000

3.52609637080511e+005,-1.46805976249816e+001,-5.25777266427721e+000

3.57531884183106e+005,-1.46807487843714e+001,-5.33106404888143e+000

3.62522843294651e+005,-1.46809040229052e+001,-5.40537436369347e+000

3.67583473599047e+005,-1.46810634462614e+001,-5.48071767205965e+000

3.72714747669902e+005,-1.46812271626342e+001,-5.55710822795374e+000

3.77917651657445e+005,-1.46813952827832e+001,-5.63456047846695e+000

3.83193185478053e+005,-1.46815679200836e+001,-5.71308906632883e+000

3.88542363006410e+005,-1.46817451905757e+001,-5.79270883246229e+000

3.93966212270369e+005,-1.46819272130167e+001,-5.87343481856925e+000

3.99465775648511e+005,-1.46821141089317e+001,-5.95528226975076e+000

4.05042110070485e+005,-1.46823060026654e+001,-6.03826663716059e+000

4.10696287220124e+005,-1.46825030214348e+001,-6.12240358069407e+000

4.16429393741414e+005,-1.46827052953814e+001,-6.20770897171075e+000

4.22242531447321e+005,-1.46829129576252e+001,-6.29419889579366e+000

4.28136817531551e+005,-1.46831261443176e+001,-6.38188965554562e+000

4.34113384783250e+005,-1.46833449946961e+001,-6.47079777342108e+000

4.40173381804713e+005,-1.46835696511383e+001,-6.56093999459811e+000

4.46317973232124e+005,-1.46838002592171e+001,-6.65233328988669e+000

4.52548339959385e+005,-1.46840369677562e+001,-6.74499485867863e+000

4.58865679365059e+005,-1.46842799288855e+001,-6.83894213193658e+000

4.65271205542494e+005,-1.46845292980974e+001,-6.93419277522459e+000

4.71766149533147e+005,-1.46847852343035e+001,-7.03076469178108e+000

4.78351759563174e+005,-1.46850478998916e+001,-7.12867602563402e+000

4.85029301283321e+005,-1.46853174607828e+001,-7.22794516476095e+000

4.91800058012158e+005,-1.46855940864899e+001,-7.32859074429385e+000

4.98665330982714e+005,-1.46858779501754e+001,-7.43063164976903e+000

5.05626439592555e+005,-1.46861692287100e+001,-7.53408702042558e+000

5.12684721657352e+005,-1.46864681027326e+001,-7.63897625255132e+000

5.19841533667984e+005,-1.46867747567096e+001,-7.74531900287693e+000

5.27098251051240e+005,-1.46870893789952e+001,-7.85313519202315e+000

5.34456268434150e+005,-1.46874121618928e+001,-7.96244500799650e+000

5.41916999912011e+005,-1.46877433017160e+001,-8.07326890974070e+000

