Freq.,VOut,OutRef

1.00000000000000e+004,-2.25192507304708e+001,-3.53058264104445e-001

1.01395947979003e+004,-2.25192523989555e+001,-3.57986742643478e-001

1.02811382665607e+004,-2.25192541143465e+001,-3.62984018856035e-001

1.04246576084112e+004,-2.25192558779627e+001,-3.68051053065178e-001

1.05701804056138e+004,-2.25192576911597e+001,-3.73188818998167e-001

1.07177346253629e+004,-2.25192595553315e+001,-3.78398303971372e-001

1.08673486252606e+004,-2.25192614719109e+001,-3.83680509082250e-001

1.10190511587661e+004,-2.25192634423714e+001,-3.89036449399234e-001

1.11728713807222e+004,-2.25192654682277e+001,-3.94467154158405e-001

1.13288388529580e+004,-2.25192675510370e+001,-3.99973666960117e-001

1.14869835499703e+004,-2.25192696924004e+001,-4.05557045971223e-001

1.16473358646846e+004,-2.25192718939641e+001,-4.11218364123940e-001

1.18099266142953e+004,-2.25192741574205e+001,-4.16958709327211e-001

1.19747870461893e+004,-2.25192764845093e+001,-4.22779184672651e-001

1.21419488439505e+004,-2.25192788770196e+001,-4.28680908646407e-001

1.23114441334492e+004,-2.25192813367904e+001,-4.34665015343933e-001

1.24833054890161e+004,-2.25192838657124e+001,-4.40732654690166e-001

1.26575659397028e+004,-2.25192864657298e+001,-4.46884992655247e-001

1.28342589756290e+004,-2.25192891388412e+001,-4.53123211483632e-001

1.30134185544193e+004,-2.25192918871015e+001,-4.59448509917470e-001

1.31950791077289e+004,-2.25192947126230e+001,-4.65862103430224e-001

1.33792755478611e+004,-2.25192976175778e+001,-4.72365224455687e-001

1.35660432744767e+004,-2.25193006041989e+001,-4.78959122627700e-001

1.37554181813974e+004,-2.25193036747821e+001,-4.85645065018616e-001

1.39474366635040e+004,-2.25193068316877e+001,-4.92424336383366e-001

1.41421356237309e+004,-2.25193100773423e+001,-4.99298239406110e-001

1.43395524801583e+004,-2.25193134142408e+001,-5.06268094948280e-001

1.45397251732031e+004,-2.25193168449482e+001,-5.13335242305837e-001

1.47426921729110e+004,-2.25193203721017e+001,-5.20501039462256e-001

1.49484924863494e+004,-2.25193239984123e+001,-5.27766863352045e-001

1.51571656651040e+004,-2.25193277266676e+001,-5.35134110123131e-001

1.53687518128801e+004,-2.25193315597333e+001,-5.42604195407055e-001

1.55832915932100e+004,-2.25193355005558e+001,-5.50178554587265e-001

1.58008262372675e+004,-2.25193395521641e+001,-5.57858643078201e-001

1.60213975517924e+004,-2.25193437176727e+001,-5.65645936601915e-001

1.62450479271247e+004,-2.25193480002833e+001,-5.73541931472042e-001

1.64718203453514e+004,-2.25193524032878e+001,-5.81548144881061e-001

1.67017583885674e+004,-2.25193569300704e+001,-5.89666115192347e-001

1.69349062472505e+004,-2.25193615841107e+001,-5.97897402231832e-001

1.71713087287550e+004,-2.25193663689859e+001,-6.06243587592205e-001

1.74110112659224e+004,-2.25193712883739e+001,-6.14706274931792e-001

1.76540599258131e+004,-2.25193763460559e+001,-6.23287090285059e-001

1.79005014185594e+004,-2.25193815459192e+001,-6.31987682373068e-001

1.81503831063432e+004,-2.25193868919607e+001,-6.40809722920154e-001

1.84037530124975e+004,-2.25193923882894e+001,-6.49754906974394e-001

1.86606598307361e+004,-2.25193980391298e+001,-6.58824953233236e-001

1.89211529345119e+004,-2.25194038488254e+001,-6.68021604371584e-001

1.91852823865052e+004,-2.25194098218413e+001,-6.77346627378102e-001

1.94530989482457e+004,-2.25194159627684e+001,-6.86801813892119e-001

1.97246540898671e+004,-2.25194222763267e+001,-6.96388980547213e-001

1.99999999999999e+004,-2.25194287673686e+001,-7.06109969322159e-001

2.02791895958005e+004,-2.25194354408831e+001,-7.15966647889384e-001

2.05622765331213e+004,-2.25194423019993e+001,-7.25960909976784e-001

2.08493152168224e+004,-2.25194493559905e+001,-7.36094675729714e-001

2.11403608112276e+004,-2.25194566082781e+001,-7.46369892078162e-001

2.14354692507258e+004,-2.25194640644360e+001,-7.56788533110838e-001

2.17346972505211e+004,-2.25194717301946e+001,-7.67352600452169e-001

2.20381023175322e+004,-2.25194796114455e+001,-7.78064123646910e-001

2.23457427614443e+004,-2.25194877142458e+001,-7.88925160548765e-001

2.26576777059159e+004,-2.25194960448226e+001,-7.99937797715075e-001

2.29739670999406e+004,-2.25195046095784e+001,-8.11104150805140e-001

2.32946717293690e+004,-2.25195134150955e+001,-8.22426364986327e-001

2.36198532285905e+004,-2.25195224681408e+001,-8.33906615345793e-001

2.39495740923785e+004,-2.25195317756718e+001,-8.45547107304168e-001

2.42838976879009e+004,-2.25195413448414e+001,-8.57350077041634e-001

2.46228882668982e+004,-2.25195511830034e+001,-8.69317791922469e-001

2.49666109780322e+004,-2.25195612977182e+001,-8.81452550932933e-001

2.53151318794055e+004,-2.25195716967589e+001,-8.93756685116519e-001

2.56685179512580e+004,-2.25195823881168e+001,-9.06232558024918e-001

2.60268371088386e+004,-2.25195933800078e+001,-9.18882566166632e-001

2.63901582154578e+004,-2.25196046808785e+001,-9.31709139468413e-001

2.67585510957221e+004,-2.25196162994131e+001,-9.44714741738138e-001

2.71320865489533e+004,-2.25196282445397e+001,-9.57901871136831e-001

2.75108363627948e+004,-2.25196405254372e+001,-9.71273060656116e-001

2.78948733270080e+004,-2.25196531515425e+001,-9.84830878604152e-001

2.82842712474618e+004,-2.25196661325574e+001,-9.98577929094587e-001

2.86791049603164e+004,-2.25196794784566e+001,-1.01251685254628e+000

2.90794503464061e+004,-2.25196931994947e+001,-1.02665032618721e+000

2.94853843458219e+004,-2.25197073062147e+001,-1.04098106456591e+000

2.98969849726987e+004,-2.25197218094556e+001,-1.05551182007095e+000

3.03143313302078e+004,-2.25197367203610e+001,-1.07024538345661e+000

3.07375036257601e+004,-2.25197520503875e+001,-1.08518458437638e+000

3.11665831864199e+004,-2.25197678113135e+001,-1.10033229192236e+000

3.16016524745350e+004,-2.25197840152484e+001,-1.11569141517434e+000

3.20427951035848e+004,-2.25198006746416e+001,-1.13126490375553e+000

3.24900958542493e+004,-2.25198178022923e+001,-1.14705574839463e+000

3.29436406907028e+004,-2.25198354113594e+001,-1.16306698149671e+000

3.34035167771346e+004,-2.25198535153710e+001,-1.17930167772358e+000

3.38698124945009e+004,-2.25198721282355e+001,-1.19576295457871e+000

3.43426174575100e+004,-2.25198912642518e+001,-1.21245397300293e+000

3.48220225318448e+004,-2.25199109381205e+001,-1.22937793797609e+000

3.53081198516260e+004,-2.25199311649551e+001,-1.24653809913017e+000

3.58010028371187e+004,-2.25199519602934e+001,-1.26393775136708e+000

3.63007662126863e+004,-2.25199733401097e+001,-1.28158023548834e+000

3.68075060249948e+004,-2.25199953208269e+001,-1.29946893882916e+000

3.73213196614721e+004,-2.25200179193290e+001,-1.31760729590683e+000

3.78423058690237e+004,-2.25200411529743e+001,-1.33599878907256e+000

3.83705647730104e+004,-2.25200650396084e+001,-1.35464694917632e+000

3.89061978964912e+004,-2.25200895975781e+001,-1.37355535623717e+000

3.94493081797342e+004,-2.25201148457451e+001,-1.39272764012634e+000

3.99999999999998e+004,-2.25201408035011e+001,-1.41216748125676e+000

4.05583791916010e+004,-2.25201674907819e+001,-1.43187861128390e+000

4.11245530662425e+004,-2.25201949280832e+001,-1.45186481381422e+000

4.16986304336447e+004,-2.25202231364762e+001,-1.47212992512642e+000

4.22807216224550e+004,-2.25202521376233e+001,-1.49267783489806e+000

4.28709385014515e+004,-2.25202819537955e+001,-1.51351248694688e+000

4.34693945010421e+004,-2.25203126078884e+001,-1.53463787997836e+000

4.40762046350642e+004,-2.25203441234408e+001,-1.55605806834477e+000

4.46914855228886e+004,-2.25203765246519e+001,-1.57777716281630e+000

4.53153554118317e+004,-2.25204098364003e+001,-1.59979933135883e+000

4.59479341998812e+004,-2.25204440842628e+001,-1.62212879992577e+000

4.65893434587380e+004,-2.25204792945338e+001,-1.64476985325940e+000

4.72397064571810e+004,-2.25205154942459e+001,-1.66772683570203e+000

4.78991481847569e+004,-2.25205527111902e+001,-1.69100415201976e+000

4.85677953758016e+004,-2.25205909739377e+001,-1.71460626823599e+000

4.92457765337964e+004,-2.25206303118609e+001,-1.73853771247662e+000

4.99332219560642e+004,-2.25206707551565e+001,-1.76280307582848e+000

5.06302637588109e+004,-2.25207123348686e+001,-1.78740701320480e+000

5.13370359025159e+004,-2.25207550829119e+001,-1.81235424422757e+000

5.20536742176771e+004,-2.25207990320968e+001,-1.83764955411835e+000

5.27803164309155e+004,-2.25208442161536e+001,-1.86329779460199e+000

5.35171021914442e+004,-2.25208906697591e+001,-1.88930388482224e+000

5.42641730979066e+004,-2.25209384285626e+001,-1.91567281227004e+000

5.50216727255895e+004,-2.25209875292131e+001,-1.94240963372462e+000

5.57897466540159e+004,-2.25210380093875e+001,-1.96951947620547e+000

5.65685424949235e+004,-2.25210899078192e+001,-1.99700753793885e+000

5.73582099206328e+004,-2.25211432643275e+001,-2.02487908933592e+000

5.81589006928121e+004,-2.25211981198487e+001,-2.05313947398423e+000

5.89707686916437e+004,-2.25212545164660e+001,-2.08179410965374e+000

5.97939699453972e+004,-2.25213124974429e+001,-2.11084848931318e+000

6.06286626604156e+004,-2.25213721072556e+001,-2.14030818216277e+000

6.14750072515201e+004,-2.25214333916266e+001,-2.17017883467902e+000

6.23331663728396e+004,-2.25214963975600e+001,-2.20046617167379e+000

6.32033049490698e+004,-2.25215611733774e+001,-2.23117599736703e+000

6.40855902071694e+004,-2.25216277687541e+001,-2.26231419647450e+000

6.49801917084985e+004,-2.25216962347574e+001,-2.29388673530815e+000

6.58872813814055e+004,-2.25217666238853e+001,-2.32589966289250e+000

6.68070335542691e+004,-2.25218389901065e+001,-2.35835911209481e+000

6.77396249890018e+004,-2.25219133889013e+001,-2.39127130077033e+000

6.86852349150199e+004,-2.25219898773041e+001,-2.42464253292235e+000

6.96440450636895e+004,-2.25220685139463e+001,-2.45847919987659e+000

7.06162397032520e+004,-2.25221493591013e+001,-2.49278778147286e+000

7.16020056742374e+004,-2.25222324747299e+001,-2.52757484726956e+000

7.26015324253724e+004,-2.25223179245277e+001,-2.56284705776570e+000

7.36150120499896e+004,-2.25224057739731e+001,-2.59861116563843e+000

7.46426393229441e+004,-2.25224960903774e+001,-2.63487401699431e+000

7.56846117380472e+004,-2.25225889429355e+001,-2.67164255264047e+000

7.67411295460207e+004,-2.25226844027784e+001,-2.70892380936866e+000

7.78123957929823e+004,-2.25227825430274e+001,-2.74672492125719e+000

7.88986163594682e+004,-2.25228834388492e+001,-2.78505312098906e+000

7.99999999999995e+004,-2.25229871675130e+001,-2.82391574118754e+000

8.11167583832018e+004,-2.25230938084488e+001,-2.86332021576744e+000

8.22491061324848e+004,-2.25232034433080e+001,-2.90327408130422e+000

8.33972608672892e+004,-2.25233161560244e+001,-2.94378497842022e+000

8.45614432449099e+004,-2.25234320328783e+001,-2.98486065318867e+000

8.57418770029029e+004,-2.25235511625613e+001,-3.02650895855354e+000

8.69387890020841e+004,-2.25236736362436e+001,-3.06873785576956e+000

8.81524092701283e+004,-2.25237995476427e+001,-3.11155541585847e+000

8.93829710457770e+004,-2.25239289930939e+001,-3.15496982108322e+000

9.06307108236633e+004,-2.25240620716235e+001,-3.19898936644163e+000

9.18958683997622e+004,-2.25241988850226e+001,-3.24362246117688e+000

9.31786869174758e+004,-2.25243395379248e+001,-3.28887763030761e+000

9.44794129143618e+004,-2.25244841378841e+001,-3.33476351617584e+000

9.57982963695136e+004,-2.25246327954562e+001,-3.38128888001439e+000

9.71355907516031e+004,-2.25247856242819e+001,-3.42846260353226e+000

9.84915530675926e+004,-2.25249427411720e+001,-3.47629369052017e+000

9.98664439121282e+004,-2.25251042661953e+001,-3.52479126847494e+000

1.01260527517622e+005,-2.25252703227688e+001,-3.57396459024219e+000

1.02674071805032e+005,-2.25254410377500e+001,-3.62382303568049e+000

1.04107348435354e+005,-2.25256165415323e+001,-3.67437611334281e+000

1.05560632861831e+005,-2.25257969681424e+001,-3.72563346217999e+000

1.07034204382888e+005,-2.25259824553409e+001,-3.77760485326215e+000

1.08528346195813e+005,-2.25261731447250e+001,-3.83030019152106e+000

1.10043345451179e+005,-2.25263691818345e+001,-3.88372951751236e+000

1.11579493308032e+005,-2.25265707162608e+001,-3.93790300919807e+000

1.13137084989847e+005,-2.25267779017576e+001,-3.99283098374907e+000

1.14716419841265e+005,-2.25269908963567e+001,-4.04852389936814e+000

1.16317801385624e+005,-2.25272098624849e+001,-4.10499235713361e+000

1.17941537383287e+005,-2.25274349670849e+001,-4.16224710286306e+000

1.19587939890794e+005,-2.25276663817402e+001,-4.22029902899816e+000

1.21257325320831e+005,-2.25279042828014e+001,-4.27915917651019e+000

1.22950014503040e+005,-2.25281488515180e+001,-4.33883873682588e+000

1.24666332745679e+005,-2.25284002741725e+001,-4.39934905377384e+000

1.26406609898139e+005,-2.25286587422182e+001,-4.46070162555324e+000

1.28171180414339e+005,-2.25289244524209e+001,-4.52290810672140e+000

1.29960383416997e+005,-2.25291976070048e+001,-4.58598031020355e+000

1.31774562762811e+005,-2.25294784138008e+001,-4.64993020932354e+000

1.33614067108538e+005,-2.25297670864009e+001,-4.71476993985450e+000

1.35479249978003e+005,-2.25300638443147e+001,-4.78051180209139e+000

1.37370469830040e+005,-2.25303689131313e+001,-4.84716826294382e+000

1.39288090127379e+005,-2.25306825246848e+001,-4.91475195805028e+000

1.41232479406504e+005,-2.25310049172247e+001,-4.98327569391235e+000

1.43204011348474e+005,-2.25313363355901e+001,-5.05275245005056e+000

1.45203064850745e+005,-2.25316770313896e+001,-5.12319538118001e+000

1.47230024099979e+005,-2.25320272631844e+001,-5.19461781940762e+000

1.49285278645888e+005,-2.25323872966775e+001,-5.26703327644917e+000

1.51369223476094e+005,-2.25327574049072e+001,-5.34045544586654e+000

1.53482259092041e+005,-2.25331378684460e+001,-5.41489820532552e+000

1.55624791585964e+005,-2.25335289756041e+001,-5.49037561887398e+000

1.57797232718936e+005,-2.25339310226387e+001,-5.56690193923953e+000

1.59999999999999e+005,-2.25343443139688e+001,-5.64449161014670e+000

1.62233516766403e+005,-2.25347691623948e+001,-5.72315926865413e+000

1.64498212264969e+005,-2.25352058893251e+001,-5.80291974751054e+000

1.66794521734578e+005,-2.25356548250067e+001,-5.88378807753037e+000

1.69122886489819e+005,-2.25361163087636e+001,-5.96577948998702e+000

1.71483754005805e+005,-2.25365906892398e+001,-6.04890941902615e+000

1.73877578004168e+005,-2.25370783246495e+001,-6.13319350409515e+000

1.76304818540256e+005,-2.25375795830329e+001,-6.21864759239208e+000

1.78765942091554e+005,-2.25380948425194e+001,-6.30528774133094e+000

1.81261421647326e+005,-2.25386244915964e+001,-6.39313022102415e+000

1.83791736799524e+005,-2.25391689293854e+001,-6.48219151678190e+000

1.86357373834951e+005,-2.25397285659255e+001,-6.57248833162663e+000

1.88958825828723e+005,-2.25403038224631e+001,-6.66403758882475e+000

1.91596592739027e+005,-2.25408951317491e+001,-6.75685643443090e+000

1.94271181503206e+005,-2.25415029383442e+001,-6.85096223984956e+000

1.96983106135185e+005,-2.25421276989308e+001,-6.94637260440796e+000

1.99732887824256e+005,-2.25427698826330e+001,-7.04310535794383e+000

2.02521055035243e+005,-2.25434299713445e+001,-7.14117856340497e+000

2.05348143610063e+005,-2.25441084600645e+001,-7.24061051946126e+000

2.08214696870707e+005,-2.25448058572420e+001,-7.34141976312667e+000

2.11121265723661e+005,-2.25455226851278e+001,-7.44362507239310e+000

2.14068408765776e+005,-2.25462594801359e+001,-7.54724546887207e+000

2.17056692391625e+005,-2.25470167932128e+001,-7.65230022044646e+000

2.20086690902357e+005,-2.25477951902163e+001,-7.75880884392852e+000

2.23158986616063e+005,-2.25485952523029e+001,-7.86679110772599e+000

2.26274169979693e+005,-2.25494175763243e+001,-7.97626703451263e+000

2.29432839682530e+005,-2.25502627752341e+001,-8.08725690390394e+000

2.32635602771247e+005,-2.25511314785027e+001,-8.19978125513638e+000

2.35883074766574e+005,-2.25520243325433e+001,-8.31386088974862e+000

2.39175879781588e+005,-2.25529420011465e+001,-8.42951687426431e+000

2.42514650641661e+005,-2.25538851659263e+001,-8.54677054287358e+000

2.45900029006080e+005,-2.25548545267750e+001,-8.66564350011440e+000

2.49332665491357e+005,-2.25558508023290e+001,-8.78615762355000e+000

2.52813219796278e+005,-2.25568747304460e+001,-8.90833506644167e+000

2.56342360828676e+005,-2.25579270686913e+001,-9.03219826041693e+000

2.59920766833993e+005,-2.25590085948367e+001,-9.15776991812792e+000

2.63549125525621e+005,-2.25601201073687e+001,-9.28507303590288e+000

2.67228134217075e+005,-2.25612624260098e+001,-9.41413089638501e+000

2.70958499956006e+005,-2.25624363922495e+001,-9.54496707115968e+000

2.74740939660078e+005,-2.25636428698882e+001,-9.67760542336600e+000

2.78576180254757e+005,-2.25648827455917e+001,-9.81207011029274e+000

2.82464958813007e+005,-2.25661569294585e+001,-9.94838558595524e+000

2.86408022696948e+005,-2.25674663555980e+001,-1.00865766036520e+001

2.90406129701488e+005,-2.25688119827225e+001,-1.02266682184978e+001

2.94460048199957e+005,-2.25701947947494e+001,-1.03686857899323e+001

2.98570557291775e+005,-2.25716158014178e+001,-1.05126549842016e+001

3.02738446952187e+005,-2.25730760389163e+001,-1.06586017768092e+001

3.06964518184081e+005,-2.25745765705239e+001,-1.08065524549353e+001

3.11249583171928e+005,-2.25761184872643e+001,-1.09565336198212e+001

3.15594465437872e+005,-2.25777029085719e+001,-1.11085721891160e+001

3.19999999999997e+005,-2.25793309829719e+001,-1.12626953991834e+001

3.24467033532806e+005,-2.25810038887728e+001,-1.14189308073656e+001

3.28996424529938e+005,-2.25827228347726e+001,-1.15773062942008e+001

3.33589043469155e+005,-2.25844890609780e+001,-1.17378500655925e+001

3.38245772979638e+005,-2.25863038393370e+001,-1.19005906549262e+001

3.42967508011610e+005,-2.25881684744847e+001,-1.20655569251311e+001

3.47755156008335e+005,-2.25900843045029e+001,-1.22327780706835e+001

3.52609637080511e+005,-2.25920527016933e+001,-1.24022836195493e+001

3.57531884183106e+005,-2.25940750733632e+001,-1.25741034350592e+001

3.62522843294651e+005,-2.25961528626262e+001,-1.27482677177174e+001

3.67583473599047e+005,-2.25982875492153e+001,-1.29248070069368e+001

3.72714747669902e+005,-2.26004806503097e+001,-1.31037521826986e+001

3.77917651657445e+005,-2.26027337213757e+001,-1.32851344671316e+001

3.83193185478053e+005,-2.26050483570200e+001,-1.34689854260082e+001

3.88542363006410e+005,-2.26074261918573e+001,-1.36553369701535e+001

3.93966212270369e+005,-2.26098689013904e+001,-1.38442213567604e+001

3.99465775648511e+005,-2.26123782029040e+001,-1.40356711906116e+001

4.05042110070485e+005,-2.26149558563713e+001,-1.42297194251992e+001

4.10696287220124e+005,-2.26176036653734e+001,-1.44263993637419e+001

4.16429393741414e+005,-2.26203234780320e+001,-1.46257446600914e+001

4.22242531447321e+005,-2.26231171879535e+001,-1.48277893195272e+001

4.28136817531551e+005,-2.26259867351870e+001,-1.50325676994326e+001

4.34113384783250e+005,-2.26289341071929e+001,-1.52401145098486e+001

4.40173381804713e+005,-2.26319613398246e+001,-1.54504648139012e+001

4.46317973232124e+005,-2.26350705183209e+001,-1.56636540280955e+001

4.52548339959385e+005,-2.26382637783103e+001,-1.58797179224742e+001

4.58865679365059e+005,-2.26415433068256e+001,-1.60986926206340e+001

4.65271205542494e+005,-2.26449113433299e+001,-1.63206145995959e+001

4.71766149533147e+005,-2.26483701807524e+001,-1.65455206895231e+001

4.78351759563174e+005,-2.26519221665335e+001,-1.67734480732824e+001

4.85029301283321e+005,-2.26555697036803e+001,-1.70044342858447e+001

4.91800058012158e+005,-2.26593152518298e+001,-1.72385172135175e+001

4.98665330982714e+005,-2.26631613283218e+001,-1.74757350930054e+001

5.05626439592555e+005,-2.26671105092781e+001,-1.77161265102935e+001

5.12684721657352e+005,-2.26711654306902e+001,-1.79597303993477e+001

5.19841533667984e+005,-2.26753287895129e+001,-1.82065860406276e+001

5.27098251051240e+005,-2.26796033447641e+001,-1.84567330594050e+001

5.34456268434150e+005,-2.26839919186299e+001,-1.87102114238842e+001

5.41916999912011e+005,-2.26884973975745e+001,-1.89670614431189e+001

