Freq.,VOut,OutRef

1.00000000000000e+004,-1.76216714666325e+001,-1.69682278180630e-001

1.01395947979003e+004,-1.76216717890483e+001,-1.72050948620911e-001

1.02811382665607e+004,-1.76216721205283e+001,-1.74452684217375e-001

1.04246576084112e+004,-1.76216724613271e+001,-1.76887946532662e-001

1.05701804056138e+004,-1.76216728117068e+001,-1.79357203570601e-001

1.07177346253629e+004,-1.76216731719367e+001,-1.81860929869463e-001

1.08673486252606e+004,-1.76216735422938e+001,-1.84399606588899e-001

1.10190511587661e+004,-1.76216739230625e+001,-1.86973721607425e-001

1.11728713807222e+004,-1.76216743145359e+001,-1.89583769610293e-001

1.13288388529580e+004,-1.76216747170147e+001,-1.92230252191498e-001

1.14869835499703e+004,-1.76216751308081e+001,-1.94913677944290e-001

1.16473358646846e+004,-1.76216755562346e+001,-1.97634562559773e-001

1.18099266142953e+004,-1.76216759936211e+001,-2.00393428929479e-001

1.19747870461893e+004,-1.76216764433035e+001,-2.03190807244157e-001

1.21419488439505e+004,-1.76216769056279e+001,-2.06027235092182e-001

1.23114441334492e+004,-1.76216773809493e+001,-2.08903257567959e-001

1.24833054890161e+004,-1.76216778696333e+001,-2.11819427373347e-001

1.26575659397028e+004,-1.76216783720556e+001,-2.14776304924504e-001

1.28342589756290e+004,-1.76216788886021e+001,-2.17774458462148e-001

1.30134185544193e+004,-1.76216794196702e+001,-2.20814464155714e-001

1.31950791077289e+004,-1.76216799656678e+001,-2.23896906218460e-001

1.33792755478611e+004,-1.76216805270149e+001,-2.27022377017093e-001

1.35660432744767e+004,-1.76216811041426e+001,-2.30191477188119e-001

1.37554181813974e+004,-1.76216816974949e+001,-2.33404815749222e-001

1.39474366635040e+004,-1.76216823075277e+001,-2.36663010220051e-001

1.41421356237309e+004,-1.76216829347100e+001,-2.39966686739006e-001

1.43395524801583e+004,-1.76216835795238e+001,-2.43316480185259e-001

1.45397251732031e+004,-1.76216842424646e+001,-2.46713034297975e-001

1.47426921729110e+004,-1.76216849240422e+001,-2.50157001800955e-001

1.49484924863494e+004,-1.76216856247804e+001,-2.53649044529680e-001

1.51571656651040e+004,-1.76216863452178e+001,-2.57189833556401e-001

1.53687518128801e+004,-1.76216870859082e+001,-2.60780049320566e-001

1.55832915932100e+004,-1.76216878474208e+001,-2.64420381757471e-001

1.58008262372675e+004,-1.76216886303409e+001,-2.68111530433807e-001

1.60213975517924e+004,-1.76216894352705e+001,-2.71854204677856e-001

1.62450479271247e+004,-1.76216902628281e+001,-2.75649123720856e-001

1.64718203453514e+004,-1.76216911136499e+001,-2.79497016829472e-001

1.67017583885674e+004,-1.76216919883896e+001,-2.83398623452519e-001

1.69349062472505e+004,-1.76216928877197e+001,-2.87354693355867e-001

1.71713087287550e+004,-1.76216938123314e+001,-2.91365986771483e-001

1.74110112659224e+004,-1.76216947629354e+001,-2.95433274541367e-001

1.76540599258131e+004,-1.76216957402622e+001,-2.99557338265618e-001

1.79005014185594e+004,-1.76216967450630e+001,-3.03738970454163e-001

1.81503831063432e+004,-1.76216977781101e+001,-3.07978974675509e-001

1.84037530124975e+004,-1.76216988401975e+001,-3.12278165715332e-001

1.86606598307361e+004,-1.76216999321414e+001,-3.16637369729320e-001

1.89211529345119e+004,-1.76217010547810e+001,-3.21057424404299e-001

1.91852823865052e+004,-1.76217022089792e+001,-3.25539179117241e-001

1.94530989482457e+004,-1.76217033956230e+001,-3.30083495100031e-001

1.97246540898671e+004,-1.76217046156243e+001,-3.34691245603484e-001

1.99999999999999e+004,-1.76217058699209e+001,-3.39363316064692e-001

2.02791895958005e+004,-1.76217071594766e+001,-3.44100604279987e-001

2.05622765331213e+004,-1.76217084852825e+001,-3.48904020572472e-001

2.08493152168224e+004,-1.76217098483575e+001,-3.53774487971370e-001

2.11403608112276e+004,-1.76217112497491e+001,-3.58712942386588e-001

2.14354692507258e+004,-1.76217126905343e+001,-3.63720332788931e-001

2.17346972505211e+004,-1.76217141718203e+001,-3.68797621393379e-001

2.20381023175322e+004,-1.76217156947455e+001,-3.73945783841078e-001

2.23457427614443e+004,-1.76217172604801e+001,-3.79165809390767e-001

2.26576777059159e+004,-1.76217188702275e+001,-3.84458701103119e-001

2.29739670999406e+004,-1.76217205252244e+001,-3.89825476039925e-001

2.32946717293690e+004,-1.76217222267429e+001,-3.95267165453170e-001

2.36198532285905e+004,-1.76217239760903e+001,-4.00784814987230e-001

2.39495740923785e+004,-1.76217257746109e+001,-4.06379484876153e-001

2.42838976879009e+004,-1.76217276236869e+001,-4.12052250149770e-001

2.46228882668982e+004,-1.76217295247388e+001,-4.17804200840298e-001

2.49666109780322e+004,-1.76217314792275e+001,-4.23636442188322e-001

2.53151318794055e+004,-1.76217334886550e+001,-4.29550094857392e-001

2.56685179512580e+004,-1.76217355545650e+001,-4.35546295149065e-001

2.60268371088386e+004,-1.76217376785451e+001,-4.41626195219827e-001

2.63901582154578e+004,-1.76217398622270e+001,-4.47790963302981e-001

2.67585510957221e+004,-1.76217421072888e+001,-4.54041783931796e-001

2.71320865489533e+004,-1.76217444154553e+001,-4.60379858168841e-001

2.75108363627948e+004,-1.76217467884998e+001,-4.66806403833407e-001

2.78948733270080e+004,-1.76217492282457e+001,-4.73322655737259e-001

2.82842712474618e+004,-1.76217517365673e+001,-4.79929865920938e-001

2.86791049603164e+004,-1.76217543153918e+001,-4.86629303893271e-001

2.90794503464061e+004,-1.76217569667003e+001,-4.93422256876215e-001

2.94853843458219e+004,-1.76217596925296e+001,-5.00310030050862e-001

2.98969849726987e+004,-1.76217624949740e+001,-5.07293946806746e-001

3.03143313302078e+004,-1.76217653761862e+001,-5.14375348997556e-001

3.07375036257601e+004,-1.76217683383796e+001,-5.21555597197613e-001

3.11665831864199e+004,-1.76217713838297e+001,-5.28836070961442e-001

3.16016524745350e+004,-1.76217745148759e+001,-5.36218169090813e-001

3.20427951035848e+004,-1.76217777339235e+001,-5.43703309900338e-001

3.24900958542493e+004,-1.76217810434448e+001,-5.51292931491612e-001

3.29436406907028e+004,-1.76217844459822e+001,-5.58988492026901e-001

3.34035167771346e+004,-1.76217879441491e+001,-5.66791470009442e-001

3.38698124945009e+004,-1.76217915406323e+001,-5.74703364567678e-001

3.43426174575100e+004,-1.76217952381941e+001,-5.82725695740765e-001

3.48220225318448e+004,-1.76217990396746e+001,-5.90860004770419e-001

3.53081198516260e+004,-1.76218029479931e+001,-5.99107854398350e-001

3.58010028371187e+004,-1.76218069661513e+001,-6.07470829161460e-001

3.63007662126863e+004,-1.76218110972351e+001,-6.15950535699965e-001

3.68075060249948e+004,-1.76218153444169e+001,-6.24548603061304e-001

3.73213196614721e+004,-1.76218197109582e+001,-6.33266683014801e-001

3.78423058690237e+004,-1.76218242002122e+001,-6.42106450366359e-001

3.83705647730104e+004,-1.76218288156261e+001,-6.51069603279770e-001

3.89061978964912e+004,-1.76218335607439e+001,-6.60157863602130e-001

3.94493081797342e+004,-1.76218384392088e+001,-6.69372977194087e-001

3.99999999999998e+004,-1.76218434547668e+001,-6.78716714261634e-001

4.05583791916010e+004,-1.76218486112687e+001,-6.88190869697305e-001

4.11245530662425e+004,-1.76218539126732e+001,-6.97797263423666e-001

4.16986304336447e+004,-1.76218593630504e+001,-7.07537740739467e-001

4.22807216224550e+004,-1.76218649665846e+001,-7.17414172675169e-001

4.28709385014515e+004,-1.76218707275773e+001,-7.27428456349010e-001

4.34693945010421e+004,-1.76218766504508e+001,-7.37582515332125e-001

4.40762046350642e+004,-1.76218827397516e+001,-7.47878300013776e-001

4.46914855228886e+004,-1.76218890001535e+001,-7.58317787976158e-001

4.53153554118317e+004,-1.76218954364615e+001,-7.68902984372889e-001

4.59479341998812e+004,-1.76219020536155e+001,-7.79635922310131e-001

4.65893434587380e+004,-1.76219088566940e+001,-7.90518663238089e-001

4.72397064571810e+004,-1.76219158509177e+001,-8.01553297342978e-001

4.78991481847569e+004,-1.76219230416539e+001,-8.12741943947159e-001

4.85677953758016e+004,-1.76219304344204e+001,-8.24086751914531e-001

4.92457765337964e+004,-1.76219380348896e+001,-8.35589900060638e-001

4.99332219560642e+004,-1.76219458488932e+001,-8.47253597568345e-001

5.06302637588109e+004,-1.76219538824262e+001,-8.59080084410582e-001

5.13370359025159e+004,-1.76219621416518e+001,-8.71071631778040e-001

5.20536742176771e+004,-1.76219706329058e+001,-8.83230542512697e-001

5.27803164309155e+004,-1.76219793627019e+001,-8.95559151546302e-001

5.35171021914442e+004,-1.76219883377362e+001,-9.08059826347879e-001

5.42641730979066e+004,-1.76219975648924e+001,-9.20734967373433e-001

5.50216727255895e+004,-1.76220070512471e+001,-9.33587008526487e-001

5.57897466540159e+004,-1.76220168040755e+001,-9.46618417619824e-001

5.65685424949235e+004,-1.76220268308563e+001,-9.59831696846226e-001

5.73582099206328e+004,-1.76220371392779e+001,-9.73229383258171e-001

5.81589006928121e+004,-1.76220477372440e+001,-9.86814049247848e-001

5.89707686916437e+004,-1.76220586328799e+001,-1.00058830304023e+000

5.97939699453972e+004,-1.76220698345381e+001,-1.01455478918822e+000

6.06286626604156e+004,-1.76220813508054e+001,-1.02871618907681e+000

6.14750072515201e+004,-1.76220931905089e+001,-1.04307522143431e+000

6.23331663728396e+004,-1.76221053627228e+001,-1.05763464284926e+000

6.32033049490698e+004,-1.76221178767753e+001,-1.07239724829510e+000

6.40855902071694e+004,-1.76221307422559e+001,-1.08736587166279e+000

6.49801917084985e+004,-1.76221439690224e+001,-1.10254338629842e+000

6.58872813814055e+004,-1.76221575672086e+001,-1.11793270555066e+000

6.68070335542691e+004,-1.76221715472315e+001,-1.13353678332505e+000

6.77396249890018e+004,-1.76221859198001e+001,-1.14935861464357e+000

6.86852349150199e+004,-1.76222006959226e+001,-1.16540123621575e+000

6.96440450636895e+004,-1.76222158869151e+001,-1.18166772701470e+000

7.06162397032520e+004,-1.76222315044104e+001,-1.19816120886109e+000

7.16020056742374e+004,-1.76222475603665e+001,-1.21488484701600e+000

7.26015324253724e+004,-1.76222640670757e+001,-1.23184185078224e+000

7.36150120499896e+004,-1.76222810371739e+001,-1.24903547411265e+000

7.46426393229441e+004,-1.76222984836502e+001,-1.26646901622608e+000

7.56846117380472e+004,-1.76223164198568e+001,-1.28414582223426e+000

7.67411295460207e+004,-1.76223348595188e+001,-1.30206928377508e+000

7.78123957929823e+004,-1.76223538167448e+001,-1.32024283965396e+000

7.88986163594682e+004,-1.76223733060376e+001,-1.33866997649616e+000

7.99999999999995e+004,-1.76223933423046e+001,-1.35735422940635e+000

8.11167583832018e+004,-1.76224139408699e+001,-1.37629918263632e+000

8.22491061324848e+004,-1.76224351174851e+001,-1.39550847026363e+000

8.33972608672892e+004,-1.76224568883416e+001,-1.41498577687806e+000

8.45614432449099e+004,-1.76224792700824e+001,-1.43473483827706e+000

8.57418770029029e+004,-1.76225022798149e+001,-1.45475944217278e+000

8.69387890020841e+004,-1.76225259351237e+001,-1.47506342890478e+000

8.81524092701283e+004,-1.76225502540838e+001,-1.49565069216545e+000

8.93829710457770e+004,-1.76225752552740e+001,-1.51652517973417e+000

9.06307108236633e+004,-1.76226009577912e+001,-1.53769089422041e+000

9.18958683997622e+004,-1.76226273812641e+001,-1.55915189381874e+000

9.31786869174758e+004,-1.76226545458685e+001,-1.58091229307137e+000

9.44794129143618e+004,-1.76226824723421e+001,-1.60297626364246e+000

9.57982963695136e+004,-1.76227111820001e+001,-1.62534803510281e+000

9.71355907516031e+004,-1.76227406967509e+001,-1.64803189572446e+000

9.84915530675926e+004,-1.76227710391128e+001,-1.67103219328515e+000

9.98664439121282e+004,-1.76228022322306e+001,-1.69435333588468e+000

1.01260527517622e+005,-1.76228342998929e+001,-1.71799979277154e+000

1.02674071805032e+005,-1.76228672665495e+001,-1.74197609518055e+000

1.04107348435354e+005,-1.76229011573300e+001,-1.76628683718138e+000

1.05560632861831e+005,-1.76229359980626e+001,-1.79093667653725e+000

1.07034204382888e+005,-1.76229718152926e+001,-1.81593033557704e+000

1.08528346195813e+005,-1.76230086363025e+001,-1.84127260207840e+000

1.10043345451179e+005,-1.76230464891326e+001,-1.86696833015896e+000

1.11579493308032e+005,-1.76230854026010e+001,-1.89302244118488e+000

1.13137084989847e+005,-1.76231254063253e+001,-1.91943992468688e+000

1.14716419841265e+005,-1.76231665307444e+001,-1.94622583928899e+000

1.16317801385624e+005,-1.76232088071413e+001,-1.97338531365185e+000

1.17941537383287e+005,-1.76232522676653e+001,-2.00092354742407e+000

1.19587939890794e+005,-1.76232969453568e+001,-2.02884581221028e+000

1.21257325320831e+005,-1.76233428741705e+001,-2.05715745254803e+000

1.22950014503040e+005,-1.76233900890009e+001,-2.08586388690013e+000

1.24666332745679e+005,-1.76234386257083e+001,-2.11497060865632e+000

1.26406609898139e+005,-1.76234885211437e+001,-2.14448318715310e+000

1.28171180414339e+005,-1.76235398131774e+001,-2.17440726869973e+000

1.29960383416997e+005,-1.76235925407254e+001,-2.20474857762446e+000

1.31774562762811e+005,-1.76236467437784e+001,-2.23551291732749e+000

1.33614067108538e+005,-1.76237024634308e+001,-2.26670617135308e+000

1.35479249978003e+005,-1.76237597419105e+001,-2.29833430447090e+000

1.37370469830040e+005,-1.76238186226095e+001,-2.33040336377322e+000

1.39288090127379e+005,-1.76238791501157e+001,-2.36291947978546e+000

1.41232479406504e+005,-1.76239413702447e+001,-2.39588886759112e+000

1.43204011348474e+005,-1.76240053300732e+001,-2.42931782796947e+000

1.45203064850745e+005,-1.76240710779727e+001,-2.46321274854894e+000

1.47230024099979e+005,-1.76241386636447e+001,-2.49758010497457e+000

1.49285278645888e+005,-1.76242081381562e+001,-2.53242646208848e+000

1.51369223476094e+005,-1.76242795539761e+001,-2.56775847512768e+000

1.53482259092041e+005,-1.76243529650131e+001,-2.60358289093442e+000

1.55624791585964e+005,-1.76244284266542e+001,-2.63990654918180e+000

1.57797232718936e+005,-1.76245059958040e+001,-2.67673638361555e+000

1.59999999999999e+005,-1.76245857309253e+001,-2.71407942330984e+000

1.62233516766403e+005,-1.76246676920804e+001,-2.75194279393862e+000

1.64498212264969e+005,-1.76247519409740e+001,-2.79033371906311e+000

1.66794521734578e+005,-1.76248385409968e+001,-2.82925952143324e+000

1.69122886489819e+005,-1.76249275572698e+001,-2.86872762430696e+000

1.71483754005805e+005,-1.76250190566903e+001,-2.90874555278394e+000

1.73877578004168e+005,-1.76251131079793e+001,-2.94932093515465e+000

1.76304818540256e+005,-1.76252097817290e+001,-2.99046150426751e+000

1.78765942091554e+005,-1.76253091504522e+001,-3.03217509891081e+000

1.81261421647326e+005,-1.76254112886331e+001,-3.07446966521122e+000

1.83791736799524e+005,-1.76255162727788e+001,-3.11735325804802e+000

1.86357373834951e+005,-1.76256241814724e+001,-3.16083404248627e+000

1.88958825828723e+005,-1.76257350954270e+001,-3.20492029522388e+000

1.91596592739027e+005,-1.76258490975419e+001,-3.24962040605679e+000

1.94271181503206e+005,-1.76259662729587e+001,-3.29494287936174e+000

1.96983106135185e+005,-1.76260867091202e+001,-3.34089633559442e+000

1.99732887824256e+005,-1.76262104958299e+001,-3.38748951280621e+000

2.02521055035243e+005,-1.76263377253129e+001,-3.43473126817805e+000

2.05348143610063e+005,-1.76264684922785e+001,-3.48263057957032e+000

2.08214696870707e+005,-1.76266028939843e+001,-3.53119654709201e+000

2.11121265723661e+005,-1.76267410303015e+001,-3.58043839468678e+000

2.14068408765776e+005,-1.76268830037822e+001,-3.63036547173583e+000

2.17056692391625e+005,-1.76270289197273e+001,-3.68098725468048e+000

2.20086690902357e+005,-1.76271788862572e+001,-3.73231334866099e+000

2.23158986616063e+005,-1.76273330143832e+001,-3.78435348917376e+000

2.26274169979693e+005,-1.76274914180810e+001,-3.83711754374808e+000

2.29432839682530e+005,-1.76276542143655e+001,-3.89061551363828e+000

2.32635602771247e+005,-1.76278215233675e+001,-3.94485753553716e+000

2.35883074766574e+005,-1.76279934684121e+001,-3.99985388330608e+000

2.39175879781588e+005,-1.76281701760988e+001,-4.05561496972354e+000

2.42514650641661e+005,-1.76283517763831e+001,-4.11215134825349e+000

2.45900029006080e+005,-1.76285384026605e+001,-4.16947371483112e+000

2.49332665491357e+005,-1.76287301918517e+001,-4.22759290966826e+000

2.52813219796278e+005,-1.76289272844899e+001,-4.28651991907687e+000

2.56342360828676e+005,-1.76291298248098e+001,-4.34626587731248e+000

2.59920766833993e+005,-1.76293379608390e+001,-4.40684206843562e+000

2.63549125525621e+005,-1.76295518444904e+001,-4.46825992819281e+000

2.67228134217075e+005,-1.76297716316573e+001,-4.53053104591760e+000

2.70958499956006e+005,-1.76299974823103e+001,-4.59366716644895e+000

2.74740939660078e+005,-1.76302295605958e+001,-4.65768019207082e+000

2.78576180254757e+005,-1.76304680349369e+001,-4.72258218447050e+000

2.82464958813007e+005,-1.76307130781364e+001,-4.78838536671653e+000

2.86408022696948e+005,-1.76309648674814e+001,-4.85510212525601e+000

2.90406129701488e+005,-1.76312235848501e+001,-4.92274501193238e+000

2.94460048199957e+005,-1.76314894168210e+001,-4.99132674602232e+000

2.98570557291775e+005,-1.76317625547841e+001,-5.06086021629241e+000

3.02738446952187e+005,-1.76320431950537e+001,-5.13135848307705e+000

3.06964518184081e+005,-1.76323315389843e+001,-5.20283478037517e+000

3.11249583171928e+005,-1.76326277930875e+001,-5.27530251796789e+000

3.15594465437872e+005,-1.76329321691522e+001,-5.34877528355628e+000

3.19999999999997e+005,-1.76332448843662e+001,-5.42326684491950e+000

3.24467033532806e+005,-1.76335661614404e+001,-5.49879115209400e+000

3.28996424529938e+005,-1.76338962287350e+001,-5.57536233957299e+000

3.33589043469155e+005,-1.76342353203881e+001,-5.65299472852684e+000

3.38245772979638e+005,-1.76345836764465e+001,-5.73170282904465e+000

3.42967508011610e+005,-1.76349415429987e+001,-5.81150134239702e+000

3.47755156008335e+005,-1.76353091723101e+001,-5.89240516331985e+000

3.52609637080511e+005,-1.76356868229608e+001,-5.97442938232012e+000

3.57531884183106e+005,-1.76360747599852e+001,-6.05758928800292e+000

3.62522843294651e+005,-1.76364732550146e+001,-6.14190036942106e+000

3.67583473599047e+005,-1.76368825864210e+001,-6.22737831844582e+000

3.72714747669902e+005,-1.76373030394646e+001,-6.31403903216107e+000

3.77917651657445e+005,-1.76377349064424e+001,-6.40189861527958e+000

3.83193185478053e+005,-1.76381784868400e+001,-6.49097338258231e+000

3.88542363006410e+005,-1.76386340874851e+001,-6.58127986138100e+000

3.93966212270369e+005,-1.76391020227038e+001,-6.67283479400407e+000

3.99465775648511e+005,-1.76395826144791e+001,-6.76565514030652e+000

4.05042110070485e+005,-1.76400761926116e+001,-6.85975808020445e+000

4.10696287220124e+005,-1.76405830948830e+001,-6.95516101623337e+000

4.16429393741414e+005,-1.76411036672215e+001,-7.05188157613186e+000

4.22242531447321e+005,-1.76416382638697e+001,-7.14993761545170e+000

4.28136817531551e+005,-1.76421872475554e+001,-7.24934722019233e+000

4.34113384783250e+005,-1.76427509896643e+001,-7.35012870946226e+000

4.40173381804713e+005,-1.76433298704151e+001,-7.45230063816845e+000

4.46317973232124e+005,-1.76439242790374e+001,-7.55588179973190e+000

4.52548339959385e+005,-1.76445346139520e+001,-7.66089122883226e+000

4.58865679365059e+005,-1.76451612829534e+001,-7.76734820418060e+000

4.65271205542494e+005,-1.76458047033957e+001,-7.87527225132146e+000

4.71766149533147e+005,-1.76464653023795e+001,-7.98468314546651e+000

4.78351759563174e+005,-1.76471435169432e+001,-8.09560091435666e+000

4.85029301283321e+005,-1.76478397942557e+001,-8.20804584115820e+000

4.91800058012158e+005,-1.76485545918124e+001,-8.32203846738951e+000

4.98665330982714e+005,-1.76492883776338e+001,-8.43759959588238e+000

5.05626439592555e+005,-1.76500416304667e+001,-8.55475029377675e+000

5.12684721657352e+005,-1.76508148399886e+001,-8.67351189555071e+000

5.19841533667984e+005,-1.76516085070153e+001,-8.79390600608700e+000

5.27098251051240e+005,-1.76524231437106e+001,-8.91595450377605e+000

5.34456268434150e+005,-1.76532592738005e+001,-9.03967954365730e+000

5.41916999912011e+005,-1.76541174327894e+001,-9.16510356059940e+000

