Freq.,VOut,OutRef

1.00000000000000e+004,-2.27647001862422e+001,-2.34756137932046e-001

1.01395947979003e+004,-2.27647009256872e+001,-2.38033201661697e-001

1.02811382665607e+004,-2.27647016859203e+001,-2.41356011079528e-001

1.04246576084112e+004,-2.27647024675262e+001,-2.44725204753129e-001

1.05701804056138e+004,-2.27647032711059e+001,-2.48141430163265e-001

1.07177346253629e+004,-2.27647040972769e+001,-2.51605343829855e-001

1.08673486252606e+004,-2.27647049466743e+001,-2.55117611436772e-001

1.10190511587661e+004,-2.27647058199512e+001,-2.58678907957988e-001

1.11728713807222e+004,-2.27647067177789e+001,-2.62289917790229e-001

1.13288388529580e+004,-2.27647076408476e+001,-2.65951334882120e-001

1.14869835499703e+004,-2.27647085898668e+001,-2.69663862870506e-001

1.16473358646846e+004,-2.27647095655661e+001,-2.73428215210593e-001

1.18099266142953e+004,-2.27647105686956e+001,-2.77245115317811e-001

1.19747870461893e+004,-2.27647116000264e+001,-2.81115296705806e-001

1.21419488439505e+004,-2.27647126603513e+001,-2.85039503124975e-001

1.23114441334492e+004,-2.27647137504854e+001,-2.89018488707055e-001

1.24833054890161e+004,-2.27647148712668e+001,-2.93053018110652e-001

1.26575659397028e+004,-2.27647160235570e+001,-2.97143866666679e-001

1.28342589756290e+004,-2.27647172082419e+001,-3.01291820527937e-001

1.30134185544193e+004,-2.27647184262320e+001,-3.05497676820938e-001

1.31950791077289e+004,-2.27647196784637e+001,-3.09762243797471e-001

1.33792755478611e+004,-2.27647209658998e+001,-3.14086340989315e-001

1.35660432744767e+004,-2.27647222895298e+001,-3.18470799369981e-001

1.37554181813974e+004,-2.27647236503711e+001,-3.22916461509101e-001

1.39474366635040e+004,-2.27647250494699e+001,-3.27424181736080e-001

1.41421356237309e+004,-2.27647264879019e+001,-3.31994826305580e-001

1.43395524801583e+004,-2.27647279667725e+001,-3.36629273563589e-001

1.45397251732031e+004,-2.27647294872189e+001,-3.41328414112531e-001

1.47426921729110e+004,-2.27647310504096e+001,-3.46093150988666e-001

1.49484924863494e+004,-2.27647326575463e+001,-3.50924399829331e-001

1.51571656651040e+004,-2.27647343098646e+001,-3.55823089052037e-001

1.53687518128801e+004,-2.27647360086344e+001,-3.60790160034231e-001

1.55832915932100e+004,-2.27647377551617e+001,-3.65826567289089e-001

1.58008262372675e+004,-2.27647395507892e+001,-3.70933278653037e-001

1.60213975517924e+004,-2.27647413968968e+001,-3.76111275472244e-001

1.62450479271247e+004,-2.27647432949039e+001,-3.81361552785507e-001

1.64718203453514e+004,-2.27647452462695e+001,-3.86685119521512e-001

1.67017583885674e+004,-2.27647472524935e+001,-3.92082998690323e-001

1.69349062472505e+004,-2.27647493151181e+001,-3.97556227578585e-001

1.71713087287550e+004,-2.27647514357289e+001,-4.03105857949463e-001

1.74110112659224e+004,-2.27647536159558e+001,-4.08732956245585e-001

1.76540599258131e+004,-2.27647558574750e+001,-4.14438603792577e-001

1.79005014185594e+004,-2.27647581620092e+001,-4.20223897008068e-001

1.81503831063432e+004,-2.27647605313301e+001,-4.26089947609624e-001

1.84037530124975e+004,-2.27647629672588e+001,-4.32037882831599e-001

1.86606598307361e+004,-2.27647654716679e+001,-4.38068845638435e-001

1.89211529345119e+004,-2.27647680464823e+001,-4.44183994946427e-001

1.91852823865052e+004,-2.27647706936813e+001,-4.50384505844258e-001

1.94530989482457e+004,-2.27647734152996e+001,-4.56671569821358e-001

1.97246540898671e+004,-2.27647762134294e+001,-4.63046394991819e-001

1.99999999999999e+004,-2.27647790902212e+001,-4.69510206333123e-001

2.02791895958005e+004,-2.27647820478866e+001,-4.76064245913296e-001

2.05622765331213e+004,-2.27647850886990e+001,-4.82709773137295e-001

2.08493152168224e+004,-2.27647882149955e+001,-4.89448064982175e-001

2.11403608112276e+004,-2.27647914291792e+001,-4.96280416246784e-001

2.14354692507258e+004,-2.27647947337208e+001,-5.03208139796592e-001

2.17346972505211e+004,-2.27647981311603e+001,-5.10232566819103e-001

2.20381023175322e+004,-2.27648016241089e+001,-5.17355047077249e-001

2.23457427614443e+004,-2.27648052152515e+001,-5.24576949168487e-001

2.26576777059159e+004,-2.27648089073485e+001,-5.31899660787034e-001

2.29739670999406e+004,-2.27648127032376e+001,-5.39324588992287e-001

2.32946717293690e+004,-2.27648166058364e+001,-5.46853160477539e-001

2.36198532285905e+004,-2.27648206181445e+001,-5.54486821841713e-001

2.39495740923785e+004,-2.27648247432459e+001,-5.62227039870598e-001

2.42838976879009e+004,-2.27648289843111e+001,-5.70075301815915e-001

2.46228882668982e+004,-2.27648333446000e+001,-5.78033115680229e-001

2.49666109780322e+004,-2.27648378274636e+001,-5.86102010508922e-001

2.53151318794055e+004,-2.27648424363476e+001,-5.94283536679387e-001

2.56685179512580e+004,-2.27648471747943e+001,-6.02579266203278e-001

2.60268371088386e+004,-2.27648520464455e+001,-6.10990793023582e-001

2.63901582154578e+004,-2.27648570550457e+001,-6.19519733322432e-001

2.67585510957221e+004,-2.27648622044442e+001,-6.28167725831435e-001

2.71320865489533e+004,-2.27648674985986e+001,-6.36936432145416e-001

2.75108363627948e+004,-2.27648729415779e+001,-6.45827537040513e-001

2.78948733270080e+004,-2.27648785375653e+001,-6.54842748797266e-001

2.82842712474618e+004,-2.27648842908615e+001,-6.63983799529534e-001

2.86791049603164e+004,-2.27648902058884e+001,-6.73252445514039e-001

2.90794503464061e+004,-2.27648962871917e+001,-6.82650467530780e-001

2.94853843458219e+004,-2.27649025394452e+001,-6.92179671199792e-001

2.98969849726987e+004,-2.27649089674538e+001,-7.01841887331272e-001

3.03143313302078e+004,-2.27649155761575e+001,-7.11638972274220e-001

3.07375036257601e+004,-2.27649223706354e+001,-7.21572808272424e-001

3.11665831864199e+004,-2.27649293561088e+001,-7.31645303826612e-001

3.16016524745350e+004,-2.27649365379460e+001,-7.41858394058593e-001

3.20427951035848e+004,-2.27649439216663e+001,-7.52214041081420e-001

3.24900958542493e+004,-2.27649515129440e+001,-7.62714234377681e-001

3.29436406907028e+004,-2.27649593176124e+001,-7.73360991179703e-001

3.34035167771346e+004,-2.27649673416695e+001,-7.84156356854322e-001

3.38698124945009e+004,-2.27649755912811e+001,-7.95102405296802e-001

3.43426174575100e+004,-2.27649840727867e+001,-8.06201239326070e-001

3.48220225318448e+004,-2.27649927927038e+001,-8.17454991090105e-001

3.53081198516260e+004,-2.27650017577330e+001,-8.28865822471177e-001

3.58010028371187e+004,-2.27650109747631e+001,-8.40435925501292e-001

3.63007662126863e+004,-2.27650204508765e+001,-8.52167522782042e-001

3.68075060249948e+004,-2.27650301933547e+001,-8.64062867909255e-001

3.73213196614721e+004,-2.27650402096835e+001,-8.76124245905291e-001

3.78423058690237e+004,-2.27650505075594e+001,-8.88353973655065e-001

3.83705647730104e+004,-2.27650610948947e+001,-9.00754400350378e-001

3.89061978964912e+004,-2.27650719798243e+001,-9.13327907939434e-001

3.94493081797342e+004,-2.27650831707114e+001,-9.26076911581039e-001

3.99999999999998e+004,-2.27650946761543e+001,-9.39003860108721e-001

4.05583791916010e+004,-2.27651065049927e+001,-9.52111236497294e-001

4.11245530662425e+004,-2.27651186663150e+001,-9.65401558338490e-001

4.16986304336447e+004,-2.27651311694642e+001,-9.78877378322975e-001

4.22807216224550e+004,-2.27651440240464e+001,-9.92541284726214e-001

4.28709385014515e+004,-2.27651572399372e+001,-1.00639590190611e+000

4.34693945010421e+004,-2.27651708272895e+001,-1.02044389080137e+000

4.40762046350642e+004,-2.27651847965418e+001,-1.03468794944217e+000

4.46914855228886e+004,-2.27651991584251e+001,-1.04913081346616e+000

4.53153554118317e+004,-2.27652139239725e+001,-1.06377525663799e+000

4.59479341998812e+004,-2.27652291045266e+001,-1.07862409138205e+000

4.65893434587380e+004,-2.27652447117485e+001,-1.09368016931839e+000

4.72397064571810e+004,-2.27652607576268e+001,-1.10894638180712e+000

4.78991481847569e+004,-2.27652772544871e+001,-1.12442566049965e+000

4.85677953758016e+004,-2.27652942150007e+001,-1.14012097790001e+000

4.92457765337964e+004,-2.27653116521949e+001,-1.15603534793004e+000

4.99332219560642e+004,-2.27653295794628e+001,-1.17217182650631e+000

5.06302637588109e+004,-2.27653480105737e+001,-1.18853351212019e+000

5.13370359025159e+004,-2.27653669596831e+001,-1.20512354643195e+000

5.20536742176771e+004,-2.27653864413445e+001,-1.22194511486782e+000

5.27803164309155e+004,-2.27654064705194e+001,-1.23900144722721e+000

5.35171021914442e+004,-2.27654270625900e+001,-1.25629581829829e+000

5.42641730979066e+004,-2.27654482333697e+001,-1.27383154848306e+000

5.50216727255895e+004,-2.27654699991163e+001,-1.29161200442745e+000

5.57897466540159e+004,-2.27654923765438e+001,-1.30964059966464e+000

5.65685424949235e+004,-2.27655153828352e+001,-1.32792079526405e+000

5.73582099206328e+004,-2.27655390356561e+001,-1.34645610048968e+000

5.81589006928121e+004,-2.27655633531678e+001,-1.36525007346809e+000

5.89707686916437e+004,-2.27655883540413e+001,-1.38430632186589e+000

5.97939699453972e+004,-2.27656140574716e+001,-1.40362850357422e+000

6.06286626604156e+004,-2.27656404831925e+001,-1.42322032740545e+000

6.14750072515201e+004,-2.27656676514913e+001,-1.44308555379857e+000

6.23331663728396e+004,-2.27656955832251e+001,-1.46322799553082e+000

6.32033049490698e+004,-2.27657242998357e+001,-1.48365151844509e+000

6.40855902071694e+004,-2.27657538233667e+001,-1.50436004218220e+000

6.49801917084985e+004,-2.27657841764803e+001,-1.52535754092519e+000

6.58872813814055e+004,-2.27658153824743e+001,-1.54664804415259e+000

6.68070335542691e+004,-2.27658474653002e+001,-1.56823563740453e+000

6.77396249890018e+004,-2.27658804495813e+001,-1.59012446305491e+000

6.86852349150199e+004,-2.27659143606316e+001,-1.61231872109838e+000

6.96440450636895e+004,-2.27659492244750e+001,-1.63482266994551e+000

7.06162397032520e+004,-2.27659850678656e+001,-1.65764062722800e+000

7.16020056742374e+004,-2.27660219183074e+001,-1.68077697061805e+000

7.26015324253724e+004,-2.27660598040759e+001,-1.70423613865470e+000

7.36150120499896e+004,-2.27660987542393e+001,-1.72802263158508e+000

7.46426393229441e+004,-2.27661387986811e+001,-1.75214101221249e+000

7.56846117380472e+004,-2.27661799681222e+001,-1.77659590676231e+000

7.67411295460207e+004,-2.27662222941451e+001,-1.80139200575208e+000

7.78123957929823e+004,-2.27662658092173e+001,-1.82653406487896e+000

7.88986163594682e+004,-2.27663105467168e+001,-1.85202690591653e+000

7.99999999999995e+004,-2.27663565409565e+001,-1.87787541762435e+000

8.11167583832018e+004,-2.27664038272112e+001,-1.90408455666861e+000

8.22491061324848e+004,-2.27664524417443e+001,-1.93065934855668e+000

8.33972608672892e+004,-2.27665024218352e+001,-1.95760488858236e+000

8.45614432449099e+004,-2.27665538058075e+001,-1.98492634278576e+000

8.57418770029029e+004,-2.27666066330588e+001,-2.01262894892355e+000

8.69387890020841e+004,-2.27666609440899e+001,-2.04071801745462e+000

8.81524092701283e+004,-2.27667167805362e+001,-2.06919893253569e+000

8.93829710457770e+004,-2.27667741851992e+001,-2.09807715303359e+000

9.06307108236633e+004,-2.27668332020787e+001,-2.12735821354814e+000

9.18958683997622e+004,-2.27668938764067e+001,-2.15704772544992e+000

9.31786869174758e+004,-2.27669562546814e+001,-2.18715137793144e+000

9.44794129143618e+004,-2.27670203847026e+001,-2.21767493907135e+000

9.57982963695136e+004,-2.27670863156082e+001,-2.24862425691466e+000

9.71355907516031e+004,-2.27671540979110e+001,-2.28000526056353e+000

9.84915530675926e+004,-2.27672237835376e+001,-2.31182396128646e+000

9.98664439121282e+004,-2.27672954258672e+001,-2.34408645363897e+000

1.01260527517622e+005,-2.27673690797725e+001,-2.37679891660067e+000

1.02674071805032e+005,-2.27674448016608e+001,-2.40996761472465e+000

1.04107348435354e+005,-2.27675226495172e+001,-2.44359889930534e+000

1.05560632861831e+005,-2.27676026829483e+001,-2.47769920955807e+000

1.07034204382888e+005,-2.27676849632272e+001,-2.51227507381638e+000

1.08528346195813e+005,-2.27677695533397e+001,-2.54733311074301e+000

1.10043345451179e+005,-2.27678565180323e+001,-2.58288003055719e+000

1.11579493308032e+005,-2.27679459238610e+001,-2.61892263627769e+000

1.13137084989847e+005,-2.27680378392412e+001,-2.65546782498219e+000

1.14716419841265e+005,-2.27681323344998e+001,-2.69252258908082e+000

1.16317801385624e+005,-2.27682294819280e+001,-2.73009401760864e+000

1.17941537383287e+005,-2.27683293558358e+001,-2.76818929753187e+000

1.19587939890794e+005,-2.27684320326083e+001,-2.80681571507337e+000

1.21257325320831e+005,-2.27685375907626e+001,-2.84598065705152e+000

1.22950014503040e+005,-2.27686461110076e+001,-2.88569161223925e+000

1.24666332745679e+005,-2.27687576763042e+001,-2.92595617273784e+000

1.26406609898139e+005,-2.27688723719281e+001,-2.96678203536873e+000

1.28171180414339e+005,-2.27689902855333e+001,-3.00817700308228e+000

1.29960383416997e+005,-2.27691115072187e+001,-3.05014898638499e+000

1.31774562762811e+005,-2.27692361295948e+001,-3.09270600478269e+000

1.33614067108538e+005,-2.27693642478540e+001,-3.13585618824322e+000

1.35479249978003e+005,-2.27694959598413e+001,-3.17960777867619e+000

1.37370469830040e+005,-2.27696313661280e+001,-3.22396913143010e+000

1.39288090127379e+005,-2.27697705700865e+001,-3.26894871681004e+000

1.41232479406504e+005,-2.27699136779683e+001,-3.31455512161060e+000

1.43204011348474e+005,-2.27700607989826e+001,-3.36079705067010e+000

1.45203064850745e+005,-2.27702120453782e+001,-3.40768332844192e+000

1.47230024099979e+005,-2.27703675325276e+001,-3.45522290058493e+000

1.49285278645888e+005,-2.27705273790122e+001,-3.50342483557392e+000

1.51369223476094e+005,-2.27706917067112e+001,-3.55229832632655e+000

1.53482259092041e+005,-2.27708606408923e+001,-3.60185269185249e+000

1.55624791585964e+005,-2.27710343103044e+001,-3.65209737892023e+000

1.57797232718936e+005,-2.27712128472735e+001,-3.70304196374379e+000

1.59999999999999e+005,-2.27713963878011e+001,-3.75469615368791e+000

1.62233516766403e+005,-2.27715850716646e+001,-3.80706978899547e+000

1.64498212264969e+005,-2.27717790425210e+001,-3.86017284453230e+000

1.66794521734578e+005,-2.27719784480133e+001,-3.91401543155218e+000

1.69122886489819e+005,-2.27721834398796e+001,-3.96860779948363e+000

1.71483754005805e+005,-2.27723941740648e+001,-4.02396033773472e+000

1.73877578004168e+005,-2.27726108108360e+001,-4.08008357751941e+000

1.76304818540256e+005,-2.27728335149002e+001,-4.13698819370362e+000

1.78765942091554e+005,-2.27730624555261e+001,-4.19468500667120e+000

1.81261421647326e+005,-2.27732978066676e+001,-4.25318498421151e+000

1.83791736799524e+005,-2.27735397470922e+001,-4.31249924342686e+000

1.86357373834951e+005,-2.27737884605118e+001,-4.37263905265984e+000

1.88958825828723e+005,-2.27740441357171e+001,-4.43361583344234e+000

1.91596592739027e+005,-2.27743069667160e+001,-4.49544116246480e+000

1.94271181503206e+005,-2.27745771528746e+001,-4.55812677356601e+000

1.96983106135185e+005,-2.27748548990633e+001,-4.62168455974322e+000

1.99732887824256e+005,-2.27751404158054e+001,-4.68612657518421e+000

2.02521055035243e+005,-2.27754339194307e+001,-4.75146503731847e+000

2.05348143610063e+005,-2.27757356322320e+001,-4.81771232889059e+000

2.08214696870707e+005,-2.27760457826266e+001,-4.88488100005286e+000

2.11121265723661e+005,-2.27763646053213e+001,-4.95298377048026e+000

2.14068408765776e+005,-2.27766923414824e+001,-5.02203353150388e+000

2.17056692391625e+005,-2.27770292389095e+001,-5.09204334826753e+000

2.20086690902357e+005,-2.27773755522134e+001,-5.16302646190248e+000

2.23158986616063e+005,-2.27777315430002e+001,-5.23499629172393e+000

2.26274169979693e+005,-2.27780974800580e+001,-5.30796643744791e+000

2.29432839682530e+005,-2.27784736395501e+001,-5.38195068142718e+000

2.32635602771247e+005,-2.27788603052121e+001,-5.45696299090893e+000

2.35883074766574e+005,-2.27792577685545e+001,-5.53301752031133e+000

2.39175879781588e+005,-2.27796663290700e+001,-5.61012861352017e+000

2.42514650641661e+005,-2.27800862944469e+001,-5.68831080620534e+000

2.45900029006080e+005,-2.27805179807870e+001,-5.76757882815659e+000

2.49332665491357e+005,-2.27809617128291e+001,-5.84794760563889e+000

2.52813219796278e+005,-2.27814178241787e+001,-5.92943226376625e+000

2.56342360828676e+005,-2.27818866575430e+001,-6.01204812889491e+000

2.59920766833993e+005,-2.27823685649717e+001,-6.09581073103527e+000

2.63549125525621e+005,-2.27828639081040e+001,-6.18073580628095e+000

2.67228134217075e+005,-2.27833730584216e+001,-6.26683929925769e+000

2.70958499956006e+005,-2.27838963975080e+001,-6.35413736558797e+000

2.74740939660078e+005,-2.27844343173143e+001,-6.44264637437394e+000

2.78576180254757e+005,-2.27849872204313e+001,-6.53238291069772e+000

2.82464958813007e+005,-2.27855555203684e+001,-6.62336377813728e+000

2.86408022696948e+005,-2.27861396418392e+001,-6.71560600129881e+000

2.90406129701488e+005,-2.27867400210540e+001,-6.80912682836514e+000

2.94460048199957e+005,-2.27873571060197e+001,-6.90394373365881e+000

2.98570557291775e+005,-2.27879913568467e+001,-7.00007442022025e+000

3.02738446952187e+005,-2.27886432460629e+001,-7.09753682240002e+000

3.06964518184081e+005,-2.27893132589357e+001,-7.19634910846468e+000

3.11249583171928e+005,-2.27900018938012e+001,-7.29652968321575e+000

3.15594465437872e+005,-2.27907096624017e+001,-7.39809719062115e+000

3.19999999999997e+005,-2.27914370902309e+001,-7.50107051645792e+000

3.24467033532806e+005,-2.27921847168869e+001,-7.60546879096736e+000

3.28996424529938e+005,-2.27929530964343e+001,-7.71131139151864e+000

3.33589043469155e+005,-2.27937427977738e+001,-7.81861794528376e+000

3.38245772979638e+005,-2.27945544050209e+001,-7.92740833192091e+000

3.42967508011610e+005,-2.27953885178935e+001,-8.03770268626494e+000

3.47755156008335e+005,-2.27962457521078e+001,-8.14952140102646e+000

3.52609637080511e+005,-2.27971267397838e+001,-8.26288512949614e+000

3.57531884183106e+005,-2.27980321298599e+001,-8.37781478825512e+000

3.62522843294651e+005,-2.27989625885166e+001,-8.49433155988903e+000

3.67583473599047e+005,-2.27999187996103e+001,-8.61245689570629e+000

3.72714747669902e+005,-2.28009014651160e+001,-8.73221251845796e+000

3.77917651657445e+005,-2.28019113055808e+001,-8.85362042505909e+000

3.83193185478053e+005,-2.28029490605868e+001,-8.97670288931065e+000

3.88542363006410e+005,-2.28040154892244e+001,-9.10148246461936e+000

3.93966212270369e+005,-2.28051113705760e+001,-9.22798198671581e+000

3.99465775648511e+005,-2.28062375042104e+001,-9.35622457636896e+000

4.05042110070485e+005,-2.28073947106874e+001,-9.48623364209546e+000

4.10696287220124e+005,-2.28085838320739e+001,-9.61803288286263e+000

4.16429393741414e+005,-2.28098057324707e+001,-9.75164629078423e+000

4.22242531447321e+005,-2.28110612985505e+001,-9.88709815380546e+000

4.28136817531551e+005,-2.28123514401074e+001,-1.00244130583794e+001

4.34113384783250e+005,-2.28136770906181e+001,-1.01636158921287e+001

4.40173381804713e+005,-2.28150392078141e+001,-1.03047318464950e+001

4.46317973232124e+005,-2.28164387742673e+001,-1.04477864193718e+001

4.52548339959385e+005,-2.28178767979856e+001,-1.05928054177194e+001

4.58865679365059e+005,-2.28193543130226e+001,-1.07398149601613e+001

4.65271205542494e+005,-2.28208723800986e+001,-1.08888414795590e+001

4.71766149533147e+005,-2.28224320872343e+001,-1.10399117255630e+001

4.78351759563174e+005,-2.28240345503981e+001,-1.11930527671394e+001

4.85029301283321e+005,-2.28256809141646e+001,-1.13482919950681e+001

4.91800058012158e+005,-2.28273723523880e+001,-1.15056571244124e+001

4.98665330982714e+005,-2.28291100688875e+001,-1.16651761969559e+001

5.05626439592555e+005,-2.28308952981465e+001,-1.18268775836057e+001

5.12684721657352e+005,-2.28327293060252e+001,-1.19907899867588e+001

5.19841533667984e+005,-2.28346133904875e+001,-1.21569424426296e+001

5.27098251051240e+005,-2.28365488823406e+001,-1.23253643235352e+001

5.34456268434150e+005,-2.28385371459898e+001,-1.24960853401365e+001

5.41916999912011e+005,-2.28405795802071e+001,-1.26691355436326e+001

