Freq.,VOut,OutRef

1.00000000000000e+004,-1.59281763450492e+001,-2.42328958296632e-001

1.01395947979003e+004,-1.59281767367124e+001,-2.45711738469143e-001

1.02811382665607e+004,-1.59281771393866e+001,-2.49141740237864e-001

1.04246576084112e+004,-1.59281775533813e+001,-2.52619622779976e-001

1.05701804056138e+004,-1.59281779790147e+001,-2.56146054475257e-001

1.07177346253629e+004,-1.59281784166139e+001,-2.59721713033426e-001

1.08673486252606e+004,-1.59281788665156e+001,-2.63347285622039e-001

1.10190511587661e+004,-1.59281793290653e+001,-2.67023469003762e-001

1.11728713807222e+004,-1.59281798046190e+001,-2.70750969664189e-001

1.13288388529580e+004,-1.59281802935418e+001,-2.74530503953324e-001

1.14869835499703e+004,-1.59281807962098e+001,-2.78362798217824e-001

1.16473358646846e+004,-1.59281813130095e+001,-2.82248588944428e-001

1.18099266142953e+004,-1.59281818443378e+001,-2.86188622901473e-001

1.19747870461893e+004,-1.59281823906035e+001,-2.90183657278215e-001

1.21419488439505e+004,-1.59281829522265e+001,-2.94234459835283e-001

1.23114441334492e+004,-1.59281835296383e+001,-2.98341809049495e-001

1.24833054890161e+004,-1.59281841232830e+001,-3.02506494264156e-001

1.26575659397028e+004,-1.59281847336169e+001,-3.06729315840697e-001

1.28342589756290e+004,-1.59281853611089e+001,-3.11011085312927e-001

1.30134185544193e+004,-1.59281860062416e+001,-3.15352625540377e-001

1.31950791077289e+004,-1.59281866695109e+001,-3.19754770870214e-001

1.33792755478611e+004,-1.59281873514267e+001,-3.24218367294981e-001

1.35660432744767e+004,-1.59281880525130e+001,-3.28744272616897e-001

1.37554181813974e+004,-1.59281887733089e+001,-3.33333356609284e-001

1.39474366635040e+004,-1.59281895143684e+001,-3.37986501189017e-001

1.41421356237309e+004,-1.59281902762611e+001,-3.42704600580925e-001

1.43395524801583e+004,-1.59281910595728e+001,-3.47488561491698e-001

1.45397251732031e+004,-1.59281918649054e+001,-3.52339303285228e-001

1.47426921729110e+004,-1.59281926928783e+001,-3.57257758155935e-001

1.49484924863494e+004,-1.59281935441275e+001,-3.62244871312676e-001

1.51571656651040e+004,-1.59281944193077e+001,-3.67301601155110e-001

1.53687518128801e+004,-1.59281953190915e+001,-3.72428919460981e-001

1.55832915932100e+004,-1.59281962441704e+001,-3.77627811573025e-001

1.58008262372675e+004,-1.59281971952557e+001,-3.82899276586069e-001

1.60213975517924e+004,-1.59281981730785e+001,-3.88244327540212e-001

1.62450479271247e+004,-1.59281991783902e+001,-3.93663991616561e-001

1.64718203453514e+004,-1.59282002119636e+001,-3.99159310332901e-001

1.67017583885674e+004,-1.59282012745933e+001,-4.04731339742380e-001

1.69349062472505e+004,-1.59282023670960e+001,-4.10381150641860e-001

1.71713087287550e+004,-1.59282034903114e+001,-4.16109828770610e-001

1.74110112659224e+004,-1.59282046451030e+001,-4.21918475024112e-001

1.76540599258131e+004,-1.59282058323583e+001,-4.27808205662628e-001

1.79005014185594e+004,-1.59282070529900e+001,-4.33780152526902e-001

1.81503831063432e+004,-1.59282083079362e+001,-4.39835463256414e-001

1.84037530124975e+004,-1.59282095981616e+001,-4.45975301506135e-001

1.86606598307361e+004,-1.59282109246578e+001,-4.52200847175549e-001

1.89211529345119e+004,-1.59282122884445e+001,-4.58513296629533e-001

1.91852823865052e+004,-1.59282136905697e+001,-4.64913862932866e-001

1.94530989482457e+004,-1.59282151321114e+001,-4.71403776079683e-001

1.97246540898671e+004,-1.59282166141775e+001,-4.77984283231987e-001

1.99999999999999e+004,-1.59282181379070e+001,-4.84656648958851e-001

2.02791895958005e+004,-1.59282197044713e+001,-4.91422155477309e-001

2.05622765331213e+004,-1.59282213150740e+001,-4.98282102902644e-001

2.08493152168224e+004,-1.59282229709535e+001,-5.05237809492406e-001

2.11403608112276e+004,-1.59282246733823e+001,-5.12290611904460e-001

2.14354692507258e+004,-1.59282264236688e+001,-5.19441865452165e-001

2.17346972505211e+004,-1.59282282231583e+001,-5.26692944363216e-001

2.20381023175322e+004,-1.59282300732338e+001,-5.34045242045814e-001

2.23457427614443e+004,-1.59282319753172e+001,-5.41500171353837e-001

2.26576777059159e+004,-1.59282339308705e+001,-5.49059164860117e-001

2.29739670999406e+004,-1.59282359413965e+001,-5.56723675130877e-001

2.32946717293690e+004,-1.59282380084405e+001,-5.64495175003272e-001

2.36198532285905e+004,-1.59282401335910e+001,-5.72375157870944e-001

2.39495740923785e+004,-1.59282423184813e+001,-5.80365137968564e-001

2.42838976879009e+004,-1.59282445647906e+001,-5.88466650663051e-001

2.46228882668982e+004,-1.59282468742454e+001,-5.96681252747216e-001

2.49666109780322e+004,-1.59282492486202e+001,-6.05010522742339e-001

2.53151318794055e+004,-1.59282516897399e+001,-6.13456061197289e-001

2.56685179512580e+004,-1.59282541994805e+001,-6.22019490996737e-001

2.60268371088386e+004,-1.59282567797709e+001,-6.30702457673675e-001

2.63901582154578e+004,-1.59282594325937e+001,-6.39506629725043e-001

2.67585510957221e+004,-1.59282621599878e+001,-6.48433698930553e-001

2.71320865489533e+004,-1.59282649640490e+001,-6.57485380680186e-001

2.75108363627948e+004,-1.59282678469321e+001,-6.66663414300027e-001

2.78948733270080e+004,-1.59282708108526e+001,-6.75969563388457e-001

2.82842712474618e+004,-1.59282738580880e+001,-6.85405616154702e-001

2.86791049603164e+004,-1.59282769909798e+001,-6.94973385760600e-001

2.90794503464061e+004,-1.59282802119356e+001,-7.04674710668227e-001

2.94853843458219e+004,-1.59282835234303e+001,-7.14511454995514e-001

2.98969849726987e+004,-1.59282869280085e+001,-7.24485508870820e-001

3.03143313302078e+004,-1.59282904282864e+001,-7.34598788797049e-001

3.07375036257601e+004,-1.59282940269533e+001,-7.44853238019505e-001

3.11665831864199e+004,-1.59282977267746e+001,-7.55250826898352e-001

3.16016524745350e+004,-1.59283015305929e+001,-7.65793553286257e-001

3.20427951035848e+004,-1.59283054413310e+001,-7.76483442912382e-001

3.24900958542493e+004,-1.59283094619935e+001,-7.87322549770699e-001

3.29436406907028e+004,-1.59283135956698e+001,-7.98312956513489e-001

3.34035167771346e+004,-1.59283178455358e+001,-8.09456774851711e-001

3.38698124945009e+004,-1.59283222148566e+001,-8.20756145959590e-001

3.43426174575100e+004,-1.59283267069892e+001,-8.32213240884800e-001

3.48220225318448e+004,-1.59283313253846e+001,-8.43830260965870e-001

3.53081198516260e+004,-1.59283360735912e+001,-8.55609438252620e-001

3.58010028371187e+004,-1.59283409552567e+001,-8.67553035937067e-001

3.63007662126863e+004,-1.59283459741312e+001,-8.79663348783613e-001

3.68075060249948e+004,-1.59283511340705e+001,-8.91942703572546e-001

3.73213196614721e+004,-1.59283564390384e+001,-9.04393459543118e-001

3.78423058690237e+004,-1.59283618931100e+001,-9.17018008848754e-001

3.83705647730104e+004,-1.59283675004750e+001,-9.29818777012559e-001

3.89061978964912e+004,-1.59283732654407e+001,-9.42798223395266e-001

3.94493081797342e+004,-1.59283791924356e+001,-9.55958841663496e-001

3.99999999999998e+004,-1.59283852860119e+001,-9.69303160270926e-001

4.05583791916010e+004,-1.59283915508503e+001,-9.82833742939704e-001

4.11245530662425e+004,-1.59283979917627e+001,-9.96553189153980e-001

4.16986304336447e+004,-1.59284046136961e+001,-1.01046413465658e+000

4.22807216224550e+004,-1.59284114217363e+001,-1.02456925195550e+000

4.28709385014515e+004,-1.59284184211121e+001,-1.03887125083347e+000

4.34693945010421e+004,-1.59284256171989e+001,-1.05337287886927e+000

4.40762046350642e+004,-1.59284330155233e+001,-1.06807692196321e+000

4.46914855228886e+004,-1.59284406217667e+001,-1.08298620487064e+000

4.53153554118317e+004,-1.59284484417702e+001,-1.09810359174197e+000

4.59479341998812e+004,-1.59284564815388e+001,-1.11343198667324e+000

4.65893434587380e+004,-1.59284647472461e+001,-1.12897433425982e+000

4.72397064571810e+004,-1.59284732452391e+001,-1.14473362016147e+000

4.78991481847569e+004,-1.59284819820427e+001,-1.16071287167298e+000

4.85677953758016e+004,-1.59284909643651e+001,-1.17691515830525e+000

4.92457765337964e+004,-1.59285001991027e+001,-1.19334359237039e+000

4.99332219560642e+004,-1.59285096933455e+001,-1.21000132957893e+000

5.06302637588109e+004,-1.59285194543824e+001,-1.22689156964287e+000

5.13370359025159e+004,-1.59285294897070e+001,-1.24401755688759e+000

5.20536742176771e+004,-1.59285398070227e+001,-1.26138258087406e+000

5.27803164309155e+004,-1.59285504142497e+001,-1.27898997702501e+000

5.35171021914442e+004,-1.59285613195300e+001,-1.29684312726544e+000

5.42641730979066e+004,-1.59285725312341e+001,-1.31494546066782e+000

5.50216727255895e+004,-1.59285840579672e+001,-1.33330045410885e+000

5.57897466540159e+004,-1.59285959085762e+001,-1.35191163293160e+000

5.65685424949235e+004,-1.59286080921559e+001,-1.37078257162246e+000

5.73582099206328e+004,-1.59286206180563e+001,-1.38991689449163e+000

5.81589006928121e+004,-1.59286334958896e+001,-1.40931827636673e+000

5.89707686916437e+004,-1.59286467355374e+001,-1.42899044329486e+000

5.97939699453972e+004,-1.59286603471588e+001,-1.44893717325293e+000

6.06286626604156e+004,-1.59286743411974e+001,-1.46916229687067e+000

6.14750072515201e+004,-1.59286887283898e+001,-1.48966969816192e+000

6.23331663728396e+004,-1.59287035197736e+001,-1.51046331526444e+000

6.32033049490698e+004,-1.59287187266957e+001,-1.53154714119286e+000

6.40855902071694e+004,-1.59287343608213e+001,-1.55292522460042e+000

6.49801917084985e+004,-1.59287504341423e+001,-1.57460167055114e+000

6.58872813814055e+004,-1.59287669589869e+001,-1.59658064130274e+000

6.68070335542691e+004,-1.59287839480288e+001,-1.61886635710029e+000

6.77396249890018e+004,-1.59288014142968e+001,-1.64146309698124e+000

6.86852349150199e+004,-1.59288193711846e+001,-1.66437519959073e+000

6.96440450636895e+004,-1.59288378324614e+001,-1.68760706400834e+000

7.06162397032520e+004,-1.59288568122820e+001,-1.71116315058679e+000

7.16020056742374e+004,-1.59288763251977e+001,-1.73504798180005e+000

7.26015324253724e+004,-1.59288963861675e+001,-1.75926614310692e+000

7.36150120499896e+004,-1.59289170105691e+001,-1.78382228382135e+000

7.46426393229441e+004,-1.59289382142110e+001,-1.80872111799968e+000

7.56846117380472e+004,-1.59289600133443e+001,-1.83396742533590e+000

7.67411295460207e+004,-1.59289824246752e+001,-1.85956605207162e+000

7.78123957929823e+004,-1.59290054653772e+001,-1.88552191191804e+000

7.88986163594682e+004,-1.59290291531048e+001,-1.91183998698937e+000

7.99999999999995e+004,-1.59290535060066e+001,-1.93852532875059e+000

8.11167583832018e+004,-1.59290785427387e+001,-1.96558305897583e+000

8.22491061324848e+004,-1.59291042824797e+001,-1.99301837072268e+000

8.33972608672892e+004,-1.59291307449443e+001,-2.02083652931776e+000

8.45614432449099e+004,-1.59291579503988e+001,-2.04904287335575e+000

8.57418770029029e+004,-1.59291859196764e+001,-2.07764281571276e+000

8.69387890020841e+004,-1.59292146741928e+001,-2.10664184457266e+000

8.81524092701283e+004,-1.59292442359624e+001,-2.13604552446902e+000

8.93829710457770e+004,-1.59292746276152e+001,-2.16585949733726e+000

9.06307108236633e+004,-1.59293058724133e+001,-2.19608948358701e+000

9.18958683997622e+004,-1.59293379942696e+001,-2.22674128318207e+000

9.31786869174758e+004,-1.59293710177645e+001,-2.25782077674112e+000

9.44794129143618e+004,-1.59294049681655e+001,-2.28933392664937e+000

9.57982963695136e+004,-1.59294398714456e+001,-2.32128677818659e+000

9.71355907516031e+004,-1.59294757543034e+001,-2.35368546066948e+000

9.84915530675926e+004,-1.59295126441828e+001,-2.38653618861159e+000

9.98664439121282e+004,-1.59295505692938e+001,-2.41984526289607e+000

1.01260527517622e+005,-1.59295895586340e+001,-2.45361907196555e+000

1.02674071805032e+005,-1.59296296420100e+001,-2.48786409302794e+000

1.04107348435354e+005,-1.59296708500600e+001,-2.52258689327852e+000

1.05560632861831e+005,-1.59297132142768e+001,-2.55779413113728e+000

1.07034204382888e+005,-1.59297567670316e+001,-2.59349255750439e+000

1.08528346195813e+005,-1.59298015415980e+001,-2.62968901703071e+000

1.10043345451179e+005,-1.59298475721771e+001,-2.66639044940720e+000

1.11579493308032e+005,-1.59298948939233e+001,-2.70360389066922e+000

1.13137084989847e+005,-1.59299435429702e+001,-2.74133647452097e+000

1.14716419841265e+005,-1.59299935564581e+001,-2.77959543367355e+000

1.16317801385624e+005,-1.59300449725614e+001,-2.81838810120543e+000

1.17941537383287e+005,-1.59300978305174e+001,-2.85772191193687e+000

1.19587939890794e+005,-1.59301521706555e+001,-2.89760440382520e+000

1.21257325320831e+005,-1.59302080344270e+001,-2.93804321937693e+000

1.22950014503040e+005,-1.59302654644366e+001,-2.97904610707963e+000

1.24666332745679e+005,-1.59303245044736e+001,-3.02062092285102e+000

1.26406609898139e+005,-1.59303851995446e+001,-3.06277563150938e+000

1.28171180414339e+005,-1.59304475959071e+001,-3.10551830826147e+000

1.29960383416997e+005,-1.59305117411038e+001,-3.14885714020984e+000

1.31774562762811e+005,-1.59305776839978e+001,-3.19280042788079e+000

1.33614067108538e+005,-1.59306454748088e+001,-3.23735658677260e+000

1.35479249978003e+005,-1.59307151651504e+001,-3.28253414892224e+000

1.37370469830040e+005,-1.59307868080683e+001,-3.32834176449400e+000

1.39288090127379e+005,-1.59308604580793e+001,-3.37478820338697e+000

1.41232479406504e+005,-1.59309361712118e+001,-3.42188235686630e+000

1.43204011348474e+005,-1.59310140050468e+001,-3.46963323921190e+000

1.45203064850745e+005,-1.59310940187607e+001,-3.51804998939137e+000

1.47230024099979e+005,-1.59311762731685e+001,-3.56714187275264e+000

1.49285278645888e+005,-1.59312608307686e+001,-3.61691828273842e+000

1.51369223476094e+005,-1.59313477557886e+001,-3.66738874262481e+000

1.53482259092041e+005,-1.59314371142327e+001,-3.71856290727812e+000

1.55624791585964e+005,-1.59315289739293e+001,-3.77045056493784e+000

1.57797232718936e+005,-1.59316234045815e+001,-3.82306163902054e+000

1.59999999999999e+005,-1.59317204778171e+001,-3.87640618994619e+000

1.62233516766403e+005,-1.59318202672415e+001,-3.93049441698900e+000

1.64498212264969e+005,-1.59319228484909e+001,-3.98533666015045e+000

1.66794521734578e+005,-1.59320282992873e+001,-4.04094340205604e+000

1.69122886489819e+005,-1.59321366994949e+001,-4.09732526987681e+000

1.71483754005805e+005,-1.59322481311782e+001,-4.15449303727277e+000

1.73877578004168e+005,-1.59323626786611e+001,-4.21245762636323e+000

1.76304818540256e+005,-1.59324804285879e+001,-4.27123010971968e+000

1.78765942091554e+005,-1.59326014699857e+001,-4.33082171238418e+000

1.81261421647326e+005,-1.59327258943285e+001,-4.39124381391164e+000

1.83791736799524e+005,-1.59328537956031e+001,-4.45250795043950e+000

1.86357373834951e+005,-1.59329852703761e+001,-4.51462581678031e+000

1.88958825828723e+005,-1.59331204178636e+001,-4.57760926854133e+000

1.91596592739027e+005,-1.59332593400014e+001,-4.64147032426937e+000

1.94271181503206e+005,-1.59334021415182e+001,-4.70622116762306e+000

1.96983106135185e+005,-1.59335489300099e+001,-4.77187414956809e+000

1.99732887824256e+005,-1.59336998160160e+001,-4.83844179060316e+000

2.02521055035243e+005,-1.59338549130982e+001,-4.90593678301002e+000

2.05348143610063e+005,-1.59340143379202e+001,-4.97437199313013e+000

2.08214696870707e+005,-1.59341782103305e+001,-5.04376046367045e+000

2.11121265723661e+005,-1.59343466534464e+001,-5.11411541603518e+000

2.14068408765776e+005,-1.59345197937405e+001,-5.18545025268521e+000

2.17056692391625e+005,-1.59346977611297e+001,-5.25777855952529e+000

2.20086690902357e+005,-1.59348806890655e+001,-5.33111410831981e+000

2.23158986616063e+005,-1.59350687146271e+001,-5.40547085913641e+000

2.26274169979693e+005,-1.59352619786171e+001,-5.48086296281711e+000

2.29432839682530e+005,-1.59354606256587e+001,-5.55730476347996e+000

2.32635602771247e+005,-1.59356648042959e+001,-5.63481080104710e+000

2.35883074766574e+005,-1.59358746670959e+001,-5.71339581380424e+000

2.39175879781588e+005,-1.59360903707542e+001,-5.79307474098675e+000

2.42514650641661e+005,-1.59363120762017e+001,-5.87386272539722e+000

2.45900029006080e+005,-1.59365399487151e+001,-5.95577511605167e+000

2.49332665491357e+005,-1.59367741580293e+001,-6.03882747085511e+000

2.52813219796278e+005,-1.59370148784529e+001,-6.12303555930735e+000

2.56342360828676e+005,-1.59372622889862e+001,-6.20841536523923e+000

2.59920766833993e+005,-1.59375165734421e+001,-6.29498308957841e+000

2.63549125525621e+005,-1.59377779205697e+001,-6.38275515314571e+000

2.67228134217075e+005,-1.59380465241809e+001,-6.47174819948227e+000

2.70958499956006e+005,-1.59383225832800e+001,-6.56197909770705e+000

2.74740939660078e+005,-1.59386063021963e+001,-6.65346494540563e+000

2.78576180254757e+005,-1.59388978907195e+001,-6.74622307154901e+000

2.82464958813007e+005,-1.59391975642384e+001,-6.84027103944495e+000

2.86408022696948e+005,-1.59395055438829e+001,-6.93562664971930e+000

2.90406129701488e+005,-1.59398220566692e+001,-7.03230794332989e+000

2.94460048199957e+005,-1.59401473356475e+001,-7.13033320461068e+000

2.98570557291775e+005,-1.59404816200547e+001,-7.22972096434858e+000

3.02738446952187e+005,-1.59408251554684e+001,-7.33049000289170e+000

3.06964518184081e+005,-1.59411781939662e+001,-7.43265935328984e+000

3.11249583171928e+005,-1.59415409942875e+001,-7.53624830446608e+000

3.15594465437872e+005,-1.59419138219990e+001,-7.64127640442139e+000

3.19999999999997e+005,-1.59422969496637e+001,-7.74776346347181e+000

3.24467033532806e+005,-1.59426906570144e+001,-7.85572955751632e+000

3.28996424529938e+005,-1.59430952311295e+001,-7.96519503133921e+000

3.33589043469155e+005,-1.59435109666142e+001,-8.07618050194310e+000

3.38245772979638e+005,-1.59439381657842e+001,-8.18870686191639e+000

3.42967508011610e+005,-1.59443771388539e+001,-8.30279528283239e+000

3.47755156008335e+005,-1.59448282041289e+001,-8.41846721868085e+000

3.52609637080511e+005,-1.59452916882016e+001,-8.53574440933349e+000

3.57531884183106e+005,-1.59457679261520e+001,-8.65464888404235e+000

3.62522843294651e+005,-1.59462572617518e+001,-8.77520296497008e+000

3.67583473599047e+005,-1.59467600476729e+001,-8.89742927075477e+000

3.72714747669902e+005,-1.59472766457004e+001,-9.02135072010769e+000

3.77917651657445e+005,-1.59478074269498e+001,-9.14699053544290e+000

3.83193185478053e+005,-1.59483527720885e+001,-9.27437224654313e+000

3.88542363006410e+005,-1.59489130715620e+001,-9.40351969425583e+000

3.93966212270369e+005,-1.59494887258241e+001,-9.53445703422531e+000

3.99465775648511e+005,-1.59500801455723e+001,-9.66720874065726e+000

4.05042110070485e+005,-1.59506877519875e+001,-9.80179961011708e+000

4.10696287220124e+005,-1.59513119769782e+001,-9.93825476536182e+000

4.16429393741414e+005,-1.59519532634303e+001,-1.00765996592068e+001

4.22242531447321e+005,-1.59526120654606e+001,-1.02168600784249e+001

4.28136817531551e+005,-1.59532888486759e+001,-1.03590621476808e+001

4.34113384783250e+005,-1.59539840904373e+001,-1.05032323334984e+001

4.40173381804713e+005,-1.59546982801288e+001,-1.06493974482634e+001

4.46317973232124e+005,-1.59554319194315e+001,-1.07975846542591e+001

4.52548339959385e+005,-1.59561855226029e+001,-1.09478214677367e+001

4.58865679365059e+005,-1.59569596167618e+001,-1.11001357630201e+001

4.65271205542494e+005,-1.59577547421778e+001,-1.12545557766456e+001

4.71766149533147e+005,-1.59585714525669e+001,-1.14111101115345e+001

4.78351759563174e+005,-1.59594103153922e+001,-1.15698277412020e+001

4.85029301283321e+005,-1.59602719121709e+001,-1.17307380140001e+001

4.91800058012158e+005,-1.59611568387859e+001,-1.18938706573940e+001

4.98665330982714e+005,-1.59620657058042e+001,-1.20592557822754e+001

5.05626439592555e+005,-1.59629991388005e+001,-1.22269238873088e+001

5.12684721657352e+005,-1.59639577786876e+001,-1.23969058633135e+001

5.19841533667984e+005,-1.59649422820519e+001,-1.25692329976801e+001

5.27098251051240e+005,-1.59659533214960e+001,-1.27439369788218e+001

5.34456268434150e+005,-1.59669915859873e+001,-1.29210499006614e+001

5.41916999912011e+005,-1.59680577812128e+001,-1.31006042671522e+001

