Freq.,VOut,OutRef

1.00000000000000e+004,-2.56606822915656e+001,-3.03876899461488e-001

1.01395947979003e+004,-2.56606836616469e+001,-3.08118839641472e-001

1.02811382665607e+004,-2.56606850702458e+001,-3.12419994111882e-001

1.04246576084112e+004,-2.56606865184449e+001,-3.16781189432167e-001

1.05701804056138e+004,-2.56606880073577e+001,-3.21203263696726e-001

1.07177346253629e+004,-2.56606895381286e+001,-3.25687066699008e-001

1.08673486252606e+004,-2.56606911119344e+001,-3.30233460092649e-001

1.10190511587661e+004,-2.56606927299851e+001,-3.34843317556010e-001

1.11728713807222e+004,-2.56606943935242e+001,-3.39517524964811e-001

1.13288388529580e+004,-2.56606961038306e+001,-3.44256980556246e-001

1.14869835499703e+004,-2.56606978622192e+001,-3.49062595104507e-001

1.16473358646846e+004,-2.56606996700416e+001,-3.53935292096233e-001

1.18099266142953e+004,-2.56607015286874e+001,-3.58876007906517e-001

1.19747870461893e+004,-2.56607034395856e+001,-3.63885691978429e-001

1.21419488439505e+004,-2.56607054042050e+001,-3.68965307007124e-001

1.23114441334492e+004,-2.56607074240559e+001,-3.74115829123411e-001

1.24833054890161e+004,-2.56607095006908e+001,-3.79338248081857e-001

1.26575659397028e+004,-2.56607116357062e+001,-3.84633567448760e-001

1.28342589756290e+004,-2.56607138307433e+001,-3.90002804798509e-001

1.30134185544193e+004,-2.56607160874894e+001,-3.95446991905776e-001

1.31950791077289e+004,-2.56607184076792e+001,-4.00967174945115e-001

1.33792755478611e+004,-2.56607207930963e+001,-4.06564414692115e-001

1.35660432744767e+004,-2.56607232455743e+001,-4.12239786724895e-001

1.37554181813974e+004,-2.56607257669986e+001,-4.17994381633703e-001

1.39474366635040e+004,-2.56607283593072e+001,-4.23829305228806e-001

1.41421356237309e+004,-2.56607310244928e+001,-4.29745678751500e-001

1.43395524801583e+004,-2.56607337646043e+001,-4.35744639091293e-001

1.45397251732031e+004,-2.56607365817478e+001,-4.41827339003317e-001

1.47426921729110e+004,-2.56607394780888e+001,-4.47994947330462e-001

1.49484924863494e+004,-2.56607424558538e+001,-4.54248649225671e-001

1.51571656651040e+004,-2.56607455173315e+001,-4.60589646382504e-001

1.53687518128801e+004,-2.56607486648756e+001,-4.67019157261261e-001

1.55832915932100e+004,-2.56607519009050e+001,-4.73538417329634e-001

1.58008262372675e+004,-2.56607552279077e+001,-4.80148679291645e-001

1.60213975517924e+004,-2.56607586484407e+001,-4.86851213335076e-001

1.62450479271247e+004,-2.56607621651333e+001,-4.93647307371757e-001

1.64718203453514e+004,-2.56607657806888e+001,-5.00538267284448e-001

1.67017583885674e+004,-2.56607694978861e+001,-5.07525417179416e-001

1.69349062472505e+004,-2.56607733195827e+001,-5.14610099638760e-001

1.71713087287550e+004,-2.56607772487161e+001,-5.21793675979001e-001

1.74110112659224e+004,-2.56607812883063e+001,-5.29077526512180e-001

1.76540599258131e+004,-2.56607854414584e+001,-5.36463050810084e-001

1.79005014185594e+004,-2.56607897113646e+001,-5.43951667973405e-001

1.81503831063432e+004,-2.56607941013071e+001,-5.51544816903233e-001

1.84037530124975e+004,-2.56607986146601e+001,-5.59243956578319e-001

1.86606598307361e+004,-2.56608032548926e+001,-5.67050566333684e-001

1.89211529345119e+004,-2.56608080255713e+001,-5.74966146145079e-001

1.91852823865052e+004,-2.56608129303631e+001,-5.82992216916335e-001

1.94530989482457e+004,-2.56608179730379e+001,-5.91130320771231e-001

1.97246540898671e+004,-2.56608231574715e+001,-5.99382021349762e-001

1.99999999999999e+004,-2.56608284876487e+001,-6.07748904106912e-001

2.02791895958005e+004,-2.56608339676664e+001,-6.16232576617161e-001

2.05622765331213e+004,-2.56608396017364e+001,-6.24834668883378e-001

2.08493152168224e+004,-2.56608453941893e+001,-6.33556833647755e-001

2.11403608112276e+004,-2.56608513494769e+001,-6.42400746710014e-001

2.14354692507258e+004,-2.56608574721764e+001,-6.51368107249956e-001

2.17346972505211e+004,-2.56608637669936e+001,-6.60460638149070e-001

2.20381023175322e+004,-2.56608702387667e+001,-6.69680086324054e-001

2.23457427614443e+004,-2.56608768924693e+001,-6.79028223062654e-001

2.26576777059159e+004,-2.56608837332157e+001,-6.88506844358609e-001

2.29739670999406e+004,-2.56608907662631e+001,-6.98117771259773e-001

2.32946717293690e+004,-2.56608979970168e+001,-7.07862850216386e-001

2.36198532285905e+004,-2.56609054310340e+001,-7.17743953433766e-001

2.39495740923785e+004,-2.56609130740281e+001,-7.27762979231074e-001

2.42838976879009e+004,-2.56609209318730e+001,-7.37921852405902e-001

2.46228882668982e+004,-2.56609290106075e+001,-7.48222524603118e-001

2.49666109780322e+004,-2.56609373164404e+001,-7.58666974687123e-001

2.53151318794055e+004,-2.56609458557548e+001,-7.69257209121932e-001

2.56685179512580e+004,-2.56609546351133e+001,-7.79995262355716e-001

2.60268371088386e+004,-2.56609636612627e+001,-7.90883197209556e-001

2.63901582154578e+004,-2.56609729411394e+001,-8.01923105273343e-001

2.67585510957221e+004,-2.56609824818751e+001,-8.13117107304625e-001

2.71320865489533e+004,-2.56609922908013e+001,-8.24467353636765e-001

2.75108363627948e+004,-2.56610023754562e+001,-8.35976024587427e-001

2.78948733270080e+004,-2.56610127435889e+001,-8.47645330880392e-001

2.82842712474618e+004,-2.56610234031672e+001,-8.59477514063389e-001

2.86791049603164e+004,-2.56610343623822e+001,-8.71474846940471e-001

2.90794503464061e+004,-2.56610456296551e+001,-8.83639634006146e-001

2.94853843458219e+004,-2.56610572136442e+001,-8.95974211885313e-001

2.98969849726987e+004,-2.56610691232505e+001,-9.08480949781071e-001

3.03143313302078e+004,-2.56610813676254e+001,-9.21162249926843e-001

3.07375036257601e+004,-2.56610939561774e+001,-9.34020548047196e-001

3.11665831864199e+004,-2.56611068985791e+001,-9.47058313821634e-001

3.16016524745350e+004,-2.56611202047752e+001,-9.60278051357874e-001

3.20427951035848e+004,-2.56611338849894e+001,-9.73682299670490e-001

3.24900958542493e+004,-2.56611479497330e+001,-9.87273633165073e-001

3.29436406907028e+004,-2.56611624098122e+001,-1.00105466213141e+000

3.34035167771346e+004,-2.56611772763370e+001,-1.01502803324094e+000

3.38698124945009e+004,-2.56611925607295e+001,-1.02919643005316e+000

3.43426174575100e+004,-2.56612082747325e+001,-1.04356257352753e+000

3.48220225318448e+004,-2.56612244304188e+001,-1.05812922254290e+000

3.53081198516260e+004,-2.56612410402002e+001,-1.07289917442489e+000

3.58010028371187e+004,-2.56612581168372e+001,-1.08787526547877e+000

3.63007662126863e+004,-2.56612756734488e+001,-1.10306037153100e+000

3.68075060249948e+004,-2.56612937235221e+001,-1.11845740847920e+000

3.73213196614721e+004,-2.56613122809236e+001,-1.13406933284553e+000

3.78423058690237e+004,-2.56613313599086e+001,-1.14989914234355e+000

3.83705647730104e+004,-2.56613509751332e+001,-1.16594987644752e+000

3.89061978964912e+004,-2.56613711416651e+001,-1.18222461697225e+000

3.94493081797342e+004,-2.56613918749947e+001,-1.19872648866195e+000

3.99999999999998e+004,-2.56614131910478e+001,-1.21545865978342e+000

4.05583791916010e+004,-2.56614351061976e+001,-1.23242434273030e+000

4.11245530662425e+004,-2.56614576372764e+001,-1.24962679463573e+000

4.16986304336447e+004,-2.56614808015897e+001,-1.26706931799072e+000

4.22807216224550e+004,-2.56615046169288e+001,-1.28475526127478e+000

4.28709385014515e+004,-2.56615291015843e+001,-1.30268801959080e+000

4.34693945010421e+004,-2.56615542743606e+001,-1.32087103531281e+000

4.40762046350642e+004,-2.56615801545899e+001,-1.33930779873974e+000

4.46914855228886e+004,-2.56616067621471e+001,-1.35800184875865e+000

4.53153554118317e+004,-2.56616341174651e+001,-1.37695677351829e+000

4.59479341998812e+004,-2.56616622415506e+001,-1.39617621110952e+000

4.65893434587380e+004,-2.56616911559996e+001,-1.41566385025758e+000

4.72397064571810e+004,-2.56617208830145e+001,-1.43542343102225e+000

4.78991481847569e+004,-2.56617514454209e+001,-1.45545874550646e+000

4.85677953758016e+004,-2.56617828666848e+001,-1.47577363857778e+000

4.92457765337964e+004,-2.56618151709312e+001,-1.49637200859590e+000

4.99332219560642e+004,-2.56618483829619e+001,-1.51725780815312e+000

5.06302637588109e+004,-2.56618825282745e+001,-1.53843504482265e+000

5.13370359025159e+004,-2.56619176330827e+001,-1.55990778191762e+000

5.20536742176771e+004,-2.56619537243350e+001,-1.58168013926233e+000

5.27803164309155e+004,-2.56619908297367e+001,-1.60375629396923e+000

5.35171021914442e+004,-2.56620289777701e+001,-1.62614048123202e+000

5.42641730979066e+004,-2.56620681977166e+001,-1.64883699512554e+000

5.50216727255895e+004,-2.56621085196791e+001,-1.67185018941720e+000

5.57897466540159e+004,-2.56621499746049e+001,-1.69518447839056e+000

5.65685424949235e+004,-2.56621925943095e+001,-1.71884433767772e+000

5.73582099206328e+004,-2.56622364115005e+001,-1.74283430510621e+000

5.81589006928121e+004,-2.56622814598033e+001,-1.76715898155312e+000

5.89707686916437e+004,-2.56623277737858e+001,-1.79182303181464e+000

5.97939699453972e+004,-2.56623753889856e+001,-1.81683118548391e+000

6.06286626604156e+004,-2.56624243419368e+001,-1.84218823784239e+000

6.14750072515201e+004,-2.56624746701978e+001,-1.86789905076276e+000

6.23331663728396e+004,-2.56625264123799e+001,-1.89396855362436e+000

6.32033049490698e+004,-2.56625796081770e+001,-1.92040174423894e+000

6.40855902071694e+004,-2.56626342983959e+001,-1.94720368979095e+000

6.49801917084985e+004,-2.56626905249867e+001,-1.97437952778888e+000

6.58872813814055e+004,-2.56627483310757e+001,-2.00193446702977e+000

6.68070335542691e+004,-2.56628077609976e+001,-2.02987378857583e+000

6.77396249890018e+004,-2.56628688603297e+001,-2.05820284674475e+000

6.86852349150199e+004,-2.56629316759263e+001,-2.08692707011218e+000

6.96440450636895e+004,-2.56629962559543e+001,-2.11605196252874e+000

7.06162397032520e+004,-2.56630626499301e+001,-2.14558310414836e+000

7.16020056742374e+004,-2.56631309087572e+001,-2.17552615247191e+000

7.26015324253724e+004,-2.56632010847649e+001,-2.20588684340319e+000

7.36150120499896e+004,-2.56632732317479e+001,-2.23667099231980e+000

7.46426393229441e+004,-2.56633474050075e+001,-2.26788449515675e+000

7.56846117380472e+004,-2.56634236613933e+001,-2.29953332950524e+000

7.67411295460207e+004,-2.56635020593468e+001,-2.33162355572455e+000

7.78123957929823e+004,-2.56635826589451e+001,-2.36416131807013e+000

7.88986163594682e+004,-2.56636655219473e+001,-2.39715284583316e+000

7.99999999999995e+004,-2.56637507118407e+001,-2.43060445449884e+000

8.11167583832018e+004,-2.56638382938893e+001,-2.46452254691562e+000

8.22491061324848e+004,-2.56639283351832e+001,-2.49891361448156e+000

8.33972608672892e+004,-2.56640209046893e+001,-2.53378423834590e+000

8.45614432449099e+004,-2.56641160733039e+001,-2.56914109062512e+000

8.57418770029029e+004,-2.56642139139059e+001,-2.60499093563489e+000

8.69387890020841e+004,-2.56643145014123e+001,-2.64134063113721e+000

8.81524092701283e+004,-2.56644179128348e+001,-2.67819712960365e+000

8.93829710457770e+004,-2.56645242273382e+001,-2.71556747949476e+000

9.06307108236633e+004,-2.56646335262998e+001,-2.75345882655517e+000

9.18958683997622e+004,-2.56647458933714e+001,-2.79187841512398e+000

9.31786869174758e+004,-2.56648614145420e+001,-2.83083358946431e+000

9.44794129143618e+004,-2.56649801782030e+001,-2.87033179510579e+000

9.57982963695136e+004,-2.56651022752149e+001,-2.91038058020576e+000

9.71355907516031e+004,-2.56652277989756e+001,-2.95098759692783e+000

9.84915530675926e+004,-2.56653568454910e+001,-2.99216060283522e+000

9.98664439121282e+004,-2.56654895134471e+001,-3.03390746230303e+000

1.01260527517622e+005,-2.56656259042843e+001,-3.07623614794729e+000

1.02674071805032e+005,-2.56657661222741e+001,-3.11915474207024e+000

1.04107348435354e+005,-2.56659102745968e+001,-3.16267143812536e+000

1.05560632861831e+005,-2.56660584714229e+001,-3.20679454219705e+000

1.07034204382888e+005,-2.56662108259948e+001,-3.25153247450116e+000

1.08528346195813e+005,-2.56663674547127e+001,-3.29689377090125e+000

1.10043345451179e+005,-2.56665284772214e+001,-3.34288708444310e+000

1.11579493308032e+005,-2.56666940164999e+001,-3.38952118690850e+000

1.13137084989847e+005,-2.56668641989539e+001,-3.43680497038644e+000

1.14716419841265e+005,-2.56670391545100e+001,-3.48474744886197e+000

1.16317801385624e+005,-2.56672190167130e+001,-3.53335775982531e+000

1.17941537383287e+005,-2.56674039228256e+001,-3.58264516589786e+000

1.19587939890794e+005,-2.56675940139309e+001,-3.63261905647771e+000

1.21257325320831e+005,-2.56677894350378e+001,-3.68328894940410e+000

1.22950014503040e+005,-2.56679903351887e+001,-3.73466449263941e+000

1.24666332745679e+005,-2.56681968675708e+001,-3.78675546597236e+000

1.26406609898139e+005,-2.56684091896300e+001,-3.83957178273769e+000

1.28171180414339e+005,-2.56686274631880e+001,-3.89312349155668e+000

1.29960383416997e+005,-2.56688518545622e+001,-3.94742077809649e+000

1.31774562762811e+005,-2.56690825346891e+001,-4.00247396684876e+000

1.33614067108538e+005,-2.56693196792517e+001,-4.05829352292616e+000

1.35479249978003e+005,-2.56695634688083e+001,-4.11489005388055e+000

1.37370469830040e+005,-2.56698140889273e+001,-4.17227431153854e+000

1.39288090127379e+005,-2.56700717303234e+001,-4.23045719385790e+000

1.41232479406504e+005,-2.56703365889989e+001,-4.28944974680154e+000

1.43204011348474e+005,-2.56706088663880e+001,-4.34926316623312e+000

1.45203064850745e+005,-2.56708887695050e+001,-4.40990879983079e+000

1.47230024099979e+005,-2.56711765110965e+001,-4.47139814901980e+000

1.49285278645888e+005,-2.56714723097981e+001,-4.53374287092603e+000

1.51369223476094e+005,-2.56717763902942e+001,-4.59695478034728e+000

1.53482259092041e+005,-2.56720889834831e+001,-4.66104585174565e+000

1.55624791585964e+005,-2.56724103266456e+001,-4.72602822125696e+000

1.57797232718936e+005,-2.56727406636185e+001,-4.79191418872110e+000

1.59999999999999e+005,-2.56730802449725e+001,-4.85871621973112e+000

1.62233516766403e+005,-2.56734293281948e+001,-4.92644694770041e+000

1.64498212264969e+005,-2.56737881778761e+001,-4.99511917595013e+000

1.66794521734578e+005,-2.56741570659033e+001,-5.06474587981382e+000

1.69122886489819e+005,-2.56745362716562e+001,-5.13534020876251e+000

1.71483754005805e+005,-2.56749260822102e+001,-5.20691548854653e+000

1.73877578004168e+005,-2.56753267925433e+001,-5.27948522335605e+000

1.76304818540256e+005,-2.56757387057494e+001,-5.35306309800054e+000

1.78765942091554e+005,-2.56761621332564e+001,-5.42766298010547e+000

1.81261421647326e+005,-2.56765973950503e+001,-5.50329892232546e+000

1.83791736799524e+005,-2.56770448199044e+001,-5.57998516457737e+000

1.86357373834951e+005,-2.56775047456154e+001,-5.65773613628800e+000

1.88958825828723e+005,-2.56779775192446e+001,-5.73656645865985e+000

1.91596592739027e+005,-2.56784634973656e+001,-5.81649094695307e+000

1.94271181503206e+005,-2.56789630463181e+001,-5.89752461278283e+000

1.96983106135185e+005,-2.56794765424682e+001,-5.97968266643394e+000

1.99732887824256e+005,-2.56800043724753e+001,-6.06298051918883e+000

2.02521055035243e+005,-2.56805469335657e+001,-6.14743378567197e+000

2.05348143610063e+005,-2.56811046338129e+001,-6.23305828620779e+000

2.08214696870707e+005,-2.56816778924249e+001,-6.31987004919298e+000

2.11121265723661e+005,-2.56822671400384e+001,-6.40788531348215e+000

2.14068408765776e+005,-2.56828728190212e+001,-6.49712053078585e+000

2.17056692391625e+005,-2.56834953837808e+001,-6.58759236808164e+000

2.20086690902357e+005,-2.56841353010813e+001,-6.67931771003637e+000

2.23158986616063e+005,-2.56847930503679e+001,-6.77231366143930e+000

2.26274169979693e+005,-2.56854691240995e+001,-6.86659754964589e+000

2.29432839682530e+005,-2.56861640280889e+001,-6.96218692703137e+000

2.32635602771247e+005,-2.56868782818515e+001,-7.05909957345260e+000

2.35883074766574e+005,-2.56876124189623e+001,-7.15735349871792e+000

2.39175879781588e+005,-2.56883669874218e+001,-7.25696694506525e+000

2.42514650641661e+005,-2.56891425500300e+001,-7.35795838964508e+000

2.45900029006080e+005,-2.56899396847694e+001,-7.46034654700994e+000

2.49332665491357e+005,-2.56907589851976e+001,-7.56415037160806e+000

2.52813219796278e+005,-2.56916010608484e+001,-7.66938906027951e+000

2.56342360828676e+005,-2.56924665376429e+001,-7.77608205475654e+000

2.59920766833993e+005,-2.56933560583091e+001,-7.88424904416305e+000

2.63549125525621e+005,-2.56942702828128e+001,-7.99390996751618e+000

2.67228134217075e+005,-2.56952098887967e+001,-8.10508501622463e+000

2.70958499956006e+005,-2.56961755720306e+001,-8.21779463658703e+000

2.74740939660078e+005,-2.56971680468716e+001,-8.33205953228439e+000

2.78576180254757e+005,-2.56981880467346e+001,-8.44790066686858e+000

2.82464958813007e+005,-2.56992363245727e+001,-8.56533926624452e+000

2.86408022696948e+005,-2.57003136533699e+001,-8.68439682114381e+000

2.90406129701488e+005,-2.57014208266426e+001,-8.80509508958926e+000

2.94460048199957e+005,-2.57025586589541e+001,-8.92745609934756e+000

2.98570557291775e+005,-2.57037279864387e+001,-9.05150215037103e+000

3.02738446952187e+005,-2.57049296673383e+001,-9.17725581722234e+000

3.06964518184081e+005,-2.57061645825496e+001,-9.30473995148510e+000

3.11249583171928e+005,-2.57074336361837e+001,-9.43397768415542e+000

3.15594465437872e+005,-2.57087377561368e+001,-9.56499242801344e+000

3.19999999999997e+005,-2.57100778946737e+001,-9.69780787997312e+000

3.24467033532806e+005,-2.57114550290224e+001,-9.83244802340822e+000

3.28996424529938e+005,-2.57128701619819e+001,-9.96893713045124e+000

3.33589043469155e+005,-2.57143243225414e+001,-1.01072997642654e+001

3.38245772979638e+005,-2.57158185665132e+001,-1.02475607812848e+001

3.42967508011610e+005,-2.57173539771767e+001,-1.03897453334225e+001

3.47755156008335e+005,-2.57189316659367e+001,-1.05338788702429e+001

3.52609637080511e+005,-2.57205527729937e+001,-1.06799871410971e+001

3.57531884183106e+005,-2.57222184680272e+001,-1.08280961972165e+001

3.62522843294651e+005,-2.57239299508920e+001,-1.09782323937653e+001

3.67583473599047e+005,-2.57256884523284e+001,-1.11304223918467e+001

3.72714747669902e+005,-2.57274952346849e+001,-1.12846931604601e+001

3.77917651657445e+005,-2.57293515926545e+001,-1.14410719784084e+001

3.83193185478053e+005,-2.57312588540245e+001,-1.15995864361504e+001

3.88542363006410e+005,-2.57332183804396e+001,-1.17602644375963e+001

3.93966212270369e+005,-2.57352315681789e+001,-1.19231342018440e+001

3.99465775648511e+005,-2.57372998489458e+001,-1.20882242648504e+001

4.05042110070485e+005,-2.57394246906725e+001,-1.22555634810379e+001

4.10696287220124e+005,-2.57416075983372e+001,-1.24251810248309e+001

4.16429393741414e+005,-2.57438501147958e+001,-1.25971063921184e+001

4.22242531447321e+005,-2.57461538216265e+001,-1.27713694016408e+001

4.28136817531551e+005,-2.57485203399885e+001,-1.29480001962969e+001

4.34113384783250e+005,-2.57509513314947e+001,-1.31270292443666e+001

4.40173381804713e+005,-2.57534484990967e+001,-1.33084873406466e+001

4.46317973232124e+005,-2.57560135879852e+001,-1.34924056074953e+001

4.52548339959385e+005,-2.57586483865024e+001,-1.36788154957830e+001

4.58865679365059e+005,-2.57613547270687e+001,-1.38677487857429e+001

4.65271205542494e+005,-2.57641344871221e+001,-1.40592375877196e+001

4.71766149533147e+005,-2.57669895900713e+001,-1.42533143428113e+001

4.78351759563174e+005,-2.57699220062622e+001,-1.44500118234008e+001

4.85029301283321e+005,-2.57729337539564e+001,-1.46493631335713e+001

4.91800058012158e+005,-2.57760269003233e+001,-1.48514017094040e+001

4.98665330982714e+005,-2.57792035624451e+001,-1.50561613191507e+001

5.05626439592555e+005,-2.57824659083331e+001,-1.52636760632797e+001

5.12684721657352e+005,-2.57858161579580e+001,-1.54739803743883e+001

5.19841533667984e+005,-2.57892565842903e+001,-1.56871090169791e+001

5.27098251051240e+005,-2.57927895143542e+001,-1.59030970870943e+001

5.34456268434150e+005,-2.57964173302921e+001,-1.61219800118035e+001

5.41916999912011e+005,-2.58001424704408e+001,-1.63437935485413e+001

