Freq.,VOut,OutRef

1.00000000000000e+004,-1.67199104287306e+000,-1.13801563637558e-001

1.01395947979003e+004,-1.67199098408772e+000,-1.15390174726831e-001

1.02811382665607e+004,-1.67199092364983e+000,-1.17000962019439e-001

1.04246576084112e+004,-1.67199086151270e+000,-1.18634235085543e-001

1.05701804056138e+004,-1.67199079762868e+000,-1.20290307815338e-001

1.07177346253629e+004,-1.67199073194866e+000,-1.21969498481222e-001

1.08673486252606e+004,-1.67199066442224e+000,-1.23672129797487e-001

1.10190511587661e+004,-1.67199059499730e+000,-1.25398528986053e-001

1.11728713807222e+004,-1.67199052362048e+000,-1.27149027834913e-001

1.13288388529580e+004,-1.67199045023714e+000,-1.28923962762403e-001

1.14869835499703e+004,-1.67199037479068e+000,-1.30723674885843e-001

1.16473358646846e+004,-1.67199029722318e+000,-1.32548510082331e-001

1.18099266142953e+004,-1.67199021747491e+000,-1.34398819059003e-001

1.19747870461893e+004,-1.67199013548465e+000,-1.36274957417175e-001

1.21419488439505e+004,-1.67199005118934e+000,-1.38177285723269e-001

1.23114441334492e+004,-1.67198996452420e+000,-1.40106169576373e-001

1.24833054890161e+004,-1.67198987542256e+000,-1.42061979679958e-001

1.26575659397028e+004,-1.67198978381595e+000,-1.44045091911817e-001

1.28342589756290e+004,-1.67198968963394e+000,-1.46055887396616e-001

1.30134185544193e+004,-1.67198959280412e+000,-1.48094752580376e-001

1.31950791077289e+004,-1.67198949325206e+000,-1.50162079302808e-001

1.33792755478611e+004,-1.67198939090132e+000,-1.52258264873533e-001

1.35660432744767e+004,-1.67198928567308e+000,-1.54383712149574e-001

1.37554181813974e+004,-1.67198917748647e+000,-1.56538829611180e-001

1.39474366635040e+004,-1.67198906625838e+000,-1.58724031439996e-001

1.41421356237309e+004,-1.67198895190327e+000,-1.60939737600438e-001

1.43395524801583e+004,-1.67198883433324e+000,-1.63186373919446e-001

1.45397251732031e+004,-1.67198871345796e+000,-1.65464372167884e-001

1.47426921729110e+004,-1.67198858918429e+000,-1.67774170145332e-001

1.49484924863494e+004,-1.67198846141691e+000,-1.70116211760951e-001

1.51571656651040e+004,-1.67198833005754e+000,-1.72490947121734e-001

1.53687518128801e+004,-1.67198819500525e+000,-1.74898832618059e-001

1.55832915932100e+004,-1.67198805615608e+000,-1.77340331011928e-001

1.58008262372675e+004,-1.67198791340339e+000,-1.79815911524367e-001

1.60213975517924e+004,-1.67198776663734e+000,-1.82326049927494e-001

1.62450479271247e+004,-1.67198761574539e+000,-1.84871228632895e-001

1.64718203453514e+004,-1.67198746061110e+000,-1.87451936790878e-001

1.67017583885674e+004,-1.67198730111556e+000,-1.90068670375636e-001

1.69349062472505e+004,-1.67198713713612e+000,-1.92721932287058e-001

1.71713087287550e+004,-1.67198696854656e+000,-1.95412232446505e-001

1.74110112659224e+004,-1.67198679521736e+000,-1.98140087891605e-001

1.76540599258131e+004,-1.67198661701526e+000,-2.00906022878908e-001

1.79005014185594e+004,-1.67198643380339e+000,-2.03710568982743e-001

1.81503831063432e+004,-1.67198624544072e+000,-2.06554265199332e-001

1.84037530124975e+004,-1.67198605178252e+000,-2.09437658048405e-001

1.86606598307361e+004,-1.67198585267997e+000,-2.12361301678201e-001

1.89211529345119e+004,-1.67198564797996e+000,-2.15325757974618e-001

1.91852823865052e+004,-1.67198543752513e+000,-2.18331596665997e-001

1.94530989482457e+004,-1.67198522115378e+000,-2.21379395434247e-001

1.97246540898671e+004,-1.67198499869945e+000,-2.24469740026292e-001

1.99999999999999e+004,-1.67198476999117e+000,-2.27603224365485e-001

2.02791895958005e+004,-1.67198453485317e+000,-2.30780450666343e-001

2.05622765331213e+004,-1.67198429310462e+000,-2.34002029550200e-001

2.08493152168224e+004,-1.67198404455971e+000,-2.37268580163024e-001

2.11403608112276e+004,-1.67198378902747e+000,-2.40580730292777e-001

2.14354692507258e+004,-1.67198352631135e+000,-2.43939116493035e-001

2.17346972505211e+004,-1.67198325620933e+000,-2.47344384203241e-001

2.20381023175322e+004,-1.67198297851393e+000,-2.50797187871760e-001

2.23457427614443e+004,-1.67198269301161e+000,-2.54298191084414e-001

2.26576777059159e+004,-1.67198239948298e+000,-2.57848066689827e-001

2.29739670999406e+004,-1.67198209770230e+000,-2.61447496930699e-001

2.32946717293690e+004,-1.67198178743754e+000,-2.65097173573659e-001

2.36198532285905e+004,-1.67198146845030e+000,-2.68797798041183e-001

2.39495740923785e+004,-1.67198114049532e+000,-2.72550081548845e-001

2.42838976879009e+004,-1.67198080332051e+000,-2.76354745240231e-001

2.46228882668982e+004,-1.67198045666664e+000,-2.80212520326782e-001

2.49666109780322e+004,-1.67198010026733e+000,-2.84124148226913e-001

2.53151318794055e+004,-1.67197973384853e+000,-2.88090380710123e-001

2.56685179512580e+004,-1.67197935712855e+000,-2.92111980040409e-001

2.60268371088386e+004,-1.67197896981788e+000,-2.96189719122841e-001

2.63901582154578e+004,-1.67197857161877e+000,-3.00324381652772e-001

2.67585510957221e+004,-1.67197816222506e+000,-3.04516762266346e-001

2.71320865489533e+004,-1.67197774132207e+000,-3.08767666692383e-001

2.75108363627948e+004,-1.67197730858630e+000,-3.13077911907976e-001

2.78948733270080e+004,-1.67197686368507e+000,-3.17448326295604e-001

2.82842712474618e+004,-1.67197640627642e+000,-3.21879749802497e-001

2.86791049603164e+004,-1.67197593600873e+000,-3.26373034100951e-001

2.90794503464061e+004,-1.67197545252046e+000,-3.30929042754321e-001

2.94853843458219e+004,-1.67197495543997e+000,-3.35548651380510e-001

2.98969849726987e+004,-1.67197444438523e+000,-3.40232747821410e-001

3.03143313302078e+004,-1.67197391896332e+000,-3.44982232314019e-001

3.07375036257601e+004,-1.67197337877041e+000,-3.49798017662603e-001

3.11665831864199e+004,-1.67197282339130e+000,-3.54681029414653e-001

3.16016524745350e+004,-1.67197225239896e+000,-3.59632206039935e-001

3.20427951035848e+004,-1.67197166535453e+000,-3.64652499107907e-001

3.24900958542493e+004,-1.67197106180687e+000,-3.69742873473413e-001

3.29436406907028e+004,-1.67197044129192e+000,-3.74904307461315e-001

3.34035167771346e+004,-1.67196980333275e+000,-3.80137793054366e-001

3.38698124945009e+004,-1.67196914743900e+000,-3.85444336083897e-001

3.43426174575100e+004,-1.67196847310646e+000,-3.90824956424075e-001

3.48220225318448e+004,-1.67196777981690e+000,-3.96280688185326e-001

3.53081198516260e+004,-1.67196706703735e+000,-4.01812579917319e-001

3.58010028371187e+004,-1.67196633421993e+000,-4.07421694807121e-001

3.63007662126863e+004,-1.67196558080136e+000,-4.13109110884625e-001

3.68075060249948e+004,-1.67196480620263e+000,-4.18875921230214e-001

3.73213196614721e+004,-1.67196400982817e+000,-4.24723234185469e-001

3.78423058690237e+004,-1.67196319106600e+000,-4.30652173564022e-001

3.83705647730104e+004,-1.67196234928672e+000,-4.36663878870040e-001

3.89061978964912e+004,-1.67196148384343e+000,-4.42759505515635e-001

3.94493081797342e+004,-1.67196059407081e+000,-4.48940225044445e-001

3.99999999999998e+004,-1.67195967928489e+000,-4.55207225356516e-001

4.05583791916010e+004,-1.67195873878277e+000,-4.61561710934193e-001

4.11245530662425e+004,-1.67195777184148e+000,-4.68004903077863e-001

4.16986304336447e+004,-1.67195677771770e+000,-4.74538040138954e-001

4.22807216224550e+004,-1.67195575564755e+000,-4.81162377756009e-001

4.28709385014515e+004,-1.67195470484526e+000,-4.87879189100489e-001

4.34693945010421e+004,-1.67195362450338e+000,-4.94689765116608e-001

4.40762046350642e+004,-1.67195251379148e+000,-5.01595414773576e-001

4.46914855228886e+004,-1.67195137185591e+000,-5.08597465315552e-001

4.53153554118317e+004,-1.67195019781893e+000,-5.15697262517482e-001

4.59479341998812e+004,-1.67194899077837e+000,-5.22896170942044e-001

4.65893434587380e+004,-1.67194774980637e+000,-5.30195574205467e-001

4.72397064571810e+004,-1.67194647394931e+000,-5.37596875240009e-001

4.78991481847569e+004,-1.67194516222649e+000,-5.45101496567042e-001

4.85677953758016e+004,-1.67194381362988e+000,-5.52710880567497e-001

4.92457765337964e+004,-1.67194242712306e+000,-5.60426489761050e-001

4.99332219560642e+004,-1.67194100164036e+000,-5.68249807088169e-001

5.06302637588109e+004,-1.67193953608634e+000,-5.76182336193382e-001

5.13370359025159e+004,-1.67193802933467e+000,-5.84225601715147e-001

5.20536742176771e+004,-1.67193648022736e+000,-5.92381149580210e-001

5.27803164309155e+004,-1.67193488757390e+000,-6.00650547299377e-001

5.35171021914442e+004,-1.67193325015038e+000,-6.09035384269520e-001

5.42641730979066e+004,-1.67193156669845e+000,-6.17537272079941e-001

5.50216727255895e+004,-1.67192983592438e+000,-6.26157844821859e-001

5.57897466540159e+004,-1.67192805649814e+000,-6.34898759402142e-001

5.65685424949235e+004,-1.67192622705232e+000,-6.43761695862790e-001

5.73582099206328e+004,-1.67192434618109e+000,-6.52748357704156e-001

5.81589006928121e+004,-1.67192241243896e+000,-6.61860472213370e-001

5.89707686916437e+004,-1.67192042434016e+000,-6.71099790793470e-001

5.97939699453972e+004,-1.67191838035678e+000,-6.80468089304998e-001

6.06286626604156e+004,-1.67191627891836e+000,-6.89967168403081e-001

6.14750072515201e+004,-1.67191411840995e+000,-6.99598853888032e-001

6.23331663728396e+004,-1.67191189717161e+000,-7.09364997052246e-001

6.32033049490698e+004,-1.67190961349645e+000,-7.19267475041102e-001

6.40855902071694e+004,-1.67190726562973e+000,-7.29308191210601e-001

6.49801917084985e+004,-1.67190485176751e+000,-7.39489075494405e-001

6.58872813814055e+004,-1.67190237005503e+000,-7.49812084776518e-001

6.68070335542691e+004,-1.67189981858546e+000,-7.60279203266255e-001

6.77396249890018e+004,-1.67189719539845e+000,-7.70892442881171e-001

6.86852349150199e+004,-1.67189449847851e+000,-7.81653843633836e-001

6.96440450636895e+004,-1.67189172575368e+000,-7.92565474023408e-001

7.06162397032520e+004,-1.67188887509356e+000,-8.03629431436352e-001

7.16020056742374e+004,-1.67188594430815e+000,-8.14847842546797e-001

7.26015324253724e+004,-1.67188293114577e+000,-8.26222863728813e-001

7.36150120499896e+004,-1.67187983329153e+000,-8.37756681469972e-001

7.46426393229441e+004,-1.67187664836556e+000,-8.49451512791757e-001

7.56846117380472e+004,-1.67187337392120e+000,-8.61309605677548e-001

7.67411295460207e+004,-1.67187000744285e+000,-8.73333239505288e-001

7.78123957929823e+004,-1.67186654634448e+000,-8.85524725485306e-001

7.88986163594682e+004,-1.67186298796738e+000,-8.97886407105688e-001

7.99999999999995e+004,-1.67185932957815e+000,-9.10420660583801e-001

8.11167583832018e+004,-1.67185556836653e+000,-9.23129895324487e-001

8.22491061324848e+004,-1.67185170144361e+000,-9.36016554381551e-001

8.33972608672892e+004,-1.67184772583902e+000,-9.49083114931767e-001

8.45614432449099e+004,-1.67184363849923e+000,-9.62332088748131e-001

8.57418770029029e+004,-1.67183943628484e+000,-9.75766022686874e-001

8.69387890020841e+004,-1.67183511596836e+000,-9.89387499175964e-001

8.81524092701283e+004,-1.67183067423167e+000,-1.00319913671271e+000

8.93829710457770e+004,-1.67182610766349e+000,-1.01720359036910e+000

9.06307108236633e+004,-1.67182141275672e+000,-1.03140355230254e+000

9.18958683997622e+004,-1.67181658590589e+000,-1.04580175227455e+000

9.31786869174758e+004,-1.67181162340422e+000,-1.06040095817674e+000

9.44794129143618e+004,-1.67180652144089e+000,-1.07520397656434e+000

9.57982963695136e+004,-1.67180127609818e+000,-1.09021365319642e+000

9.71355907516031e+004,-1.67179588334828e+000,-1.10543287358481e+000

9.84915530675926e+004,-1.67179033905047e+000,-1.12086456354983e+000

9.98664439121282e+004,-1.67178463894764e+000,-1.13651168978454e+000

1.01260527517622e+005,-1.67177877866334e+000,-1.15237726042589e+000

1.02674071805032e+005,-1.67177275369826e+000,-1.16846432563513e+000

1.04107348435354e+005,-1.67176655942672e+000,-1.18477597818654e+000

1.05560632861831e+005,-1.67176019109340e+000,-1.20131535406115e+000

1.07034204382888e+005,-1.67175364380950e+000,-1.21808563305433e+000

1.08528346195813e+005,-1.67174691254891e+000,-1.23509003938713e+000

1.10043345451179e+005,-1.67173999214461e+000,-1.25233184232890e+000

1.11579493308032e+005,-1.67173287728463e+000,-1.26981435682712e+000

1.13137084989847e+005,-1.67172556250795e+000,-1.28754094414704e+000

1.14716419841265e+005,-1.67171804220026e+000,-1.30551501252096e+000

1.16317801385624e+005,-1.67171031058989e+000,-1.32374001780382e+000

1.17941537383287e+005,-1.67170236174323e+000,-1.34221946414180e+000

1.19587939890794e+005,-1.67169418956030e+000,-1.36095690464743e+000

1.21257325320831e+005,-1.67168578776988e+000,-1.37995594208593e+000

1.22950014503040e+005,-1.67167714992502e+000,-1.39922022957015e+000

1.24666332745679e+005,-1.67166826939795e+000,-1.41875347126545e+000

1.26406609898139e+005,-1.67165913937501e+000,-1.43855942310569e+000

1.28171180414339e+005,-1.67164975285160e+000,-1.45864189351718e+000

1.29960383416997e+005,-1.67164010262661e+000,-1.47900474415552e+000

1.31774562762811e+005,-1.67163018129717e+000,-1.49965189064980e+000

1.33614067108538e+005,-1.67161998125278e+000,-1.52058730336050e+000

1.35479249978003e+005,-1.67160949466960e+000,-1.54181500814527e+000

1.37370469830040e+005,-1.67159871350471e+000,-1.56333908713686e+000

1.39288090127379e+005,-1.67158762948962e+000,-1.58516367953258e+000

1.41232479406504e+005,-1.67157623412415e+000,-1.60729298239367e+000

1.43204011348474e+005,-1.67156451867000e+000,-1.62973125145649e+000

1.45203064850745e+005,-1.67155247414396e+000,-1.65248280195615e+000

1.47230024099979e+005,-1.67154009131117e+000,-1.67555200945984e+000

1.49285278645888e+005,-1.67152736067817e+000,-1.69894331071295e+000

1.51369223476094e+005,-1.67151427248552e+000,-1.72266120449778e+000

1.53482259092041e+005,-1.67150081670042e+000,-1.74671025250406e+000

1.55624791585964e+005,-1.67148698300921e+000,-1.77109508021051e+000

1.57797232718936e+005,-1.67147276080934e+000,-1.79582037778094e+000

1.59999999999999e+005,-1.67145813920142e+000,-1.82089090097171e+000

1.62233516766403e+005,-1.67144310698098e+000,-1.84631147205244e+000

1.64498212264969e+005,-1.67142765262993e+000,-1.87208698073917e+000

1.66794521734578e+005,-1.67141176430773e+000,-1.89822238514268e+000

1.69122886489819e+005,-1.67139542984253e+000,-1.92472271272787e+000

1.71483754005805e+005,-1.67137863672189e+000,-1.95159306128794e+000

1.73877578004168e+005,-1.67136137208332e+000,-1.97883859993254e+000

1.76304818540256e+005,-1.67134362270447e+000,-2.00646457009003e+000

1.78765942091554e+005,-1.67132537499321e+000,-2.03447628652317e+000

1.81261421647326e+005,-1.67130661497718e+000,-2.06287913836038e+000

1.83791736799524e+005,-1.67128732829337e+000,-2.09167859014038e+000

1.86357373834951e+005,-1.67126750017730e+000,-2.12088018287310e+000

1.88958825828723e+005,-1.67124711545152e+000,-2.15048953511503e+000

1.91596592739027e+005,-1.67122615851457e+000,-2.18051234405943e+000

1.94271181503206e+005,-1.67120461332892e+000,-2.21095438664329e+000

1.96983106135185e+005,-1.67118246340886e+000,-2.24182152066890e+000

1.99732887824256e+005,-1.67115969180823e+000,-2.27311968594211e+000

2.02521055035243e+005,-1.67113628110742e+000,-2.30485490542685e+000

2.05348143610063e+005,-1.67111221340040e+000,-2.33703328641592e+000

2.08214696870707e+005,-1.67108747028105e+000,-2.36966102171872e+000

2.11121265723661e+005,-1.67106203282949e+000,-2.40274439086591e+000

2.14068408765776e+005,-1.67103588159776e+000,-2.43628976133062e+000

2.17056692391625e+005,-1.67100899659499e+000,-2.47030358976982e+000

2.20086690902357e+005,-1.67098135727272e+000,-2.50479242327910e+000

2.23158986616063e+005,-1.67095294250907e+000,-2.53976290066990e+000

2.26274169979693e+005,-1.67092373059316e+000,-2.57522175376238e+000

2.29432839682530e+005,-1.67089369920873e+000,-2.61117580869693e+000

2.32635602771247e+005,-1.67086282541722e+000,-2.64763198726727e+000

2.35883074766574e+005,-1.67083108564077e+000,-2.68459730826834e+000

2.39175879781588e+005,-1.67079845564454e+000,-2.72207888886778e+000

2.42514650641661e+005,-1.67076491051833e+000,-2.76008394599485e+000

2.45900029006080e+005,-1.67073042465820e+000,-2.79861979774969e+000

2.49332665491357e+005,-1.67069497174718e+000,-2.83769386483375e+000

2.52813219796278e+005,-1.67065852473548e+000,-2.87731367200035e+000

2.56342360828676e+005,-1.67062105582062e+000,-2.91748684952555e+000

2.59920766833993e+005,-1.67058253642627e+000,-2.95822113470222e+000

2.63549125525621e+005,-1.67054293718118e+000,-2.99952437335406e+000

2.67228134217075e+005,-1.67050222789723e+000,-3.04140452137131e+000

2.70958499956006e+005,-1.67046037754691e+000,-3.08386964627105e+000

2.74740939660078e+005,-1.67041735424015e+000,-3.12692792877815e+000

2.78576180254757e+005,-1.67037312520080e+000,-3.17058766442945e+000

2.82464958813007e+005,-1.67032765674206e+000,-3.21485726520200e+000

2.86408022696948e+005,-1.67028091424154e+000,-3.25974526116473e+000

2.90406129701488e+005,-1.67023286211560e+000,-3.30526030215416e+000

2.94460048199957e+005,-1.67018346379291e+000,-3.35141115947474e+000

2.98570557291775e+005,-1.67013268168740e+000,-3.39820672762354e+000

3.02738446952187e+005,-1.67008047717037e+000,-3.44565602604153e+000

3.06964518184081e+005,-1.67002681054197e+000,-3.49376820088867e+000

3.11249583171928e+005,-1.66997164100192e+000,-3.54255252684656e+000

3.15594465437872e+005,-1.66991492661928e+000,-3.59201840894685e+000

3.19999999999997e+005,-1.66985662430157e+000,-3.64217538442716e+000

3.24467033532806e+005,-1.66979668976305e+000,-3.69303312461319e+000

3.28996424529938e+005,-1.66973507749208e+000,-3.74460143682985e+000

3.33589043469155e+005,-1.66967174071766e+000,-3.79689026633985e+000

3.38245772979638e+005,-1.66960663137502e+000,-3.84990969831163e+000

3.42967508011610e+005,-1.66953970007050e+000,-3.90366995981507e+000

3.47755156008335e+005,-1.66947089604516e+000,-3.95818142184867e+000

3.52609637080511e+005,-1.66940016713767e+000,-4.01345460139504e+000

3.57531884183106e+005,-1.66932745974620e+000,-4.06950016350822e+000

3.62522843294651e+005,-1.66925271878915e+000,-4.12632892343155e+000

3.67583473599047e+005,-1.66917588766493e+000,-4.18395184874711e+000

3.72714747669902e+005,-1.66909690821084e+000,-4.24238006155718e+000

3.77917651657445e+005,-1.66901572066060e+000,-4.30162484069818e+000

3.83193185478053e+005,-1.66893226360076e+000,-4.36169762398885e+000

3.88542363006410e+005,-1.66884647392627e+000,-4.42261001051046e+000

3.93966212270369e+005,-1.66875828679452e+000,-4.48437376292222e+000

3.99465775648511e+005,-1.66866763557840e+000,-4.54700080981217e+000

4.05042110070485e+005,-1.66857445181802e+000,-4.61050324808179e+000

4.10696287220124e+005,-1.66847866517118e+000,-4.67489334536767e+000

4.16429393741414e+005,-1.66838020336260e+000,-4.74018354250033e+000

4.22242531447321e+005,-1.66827899213173e+000,-4.80638645599916e+000

4.28136817531551e+005,-1.66817495517923e+000,-4.87351488060537e+000

4.34113384783250e+005,-1.66806801411218e+000,-4.94158179185429e+000

4.40173381804713e+005,-1.66795808838741e+000,-5.01060034868641e+000

4.46317973232124e+005,-1.66784509525409e+000,-5.08058389609712e+000

4.52548339959385e+005,-1.66772894969410e+000,-5.15154596782900e+000

4.58865679365059e+005,-1.66760956436135e+000,-5.22350028910380e+000

4.65271205542494e+005,-1.66748684951910e+000,-5.29646077939727e+000

4.71766149533147e+005,-1.66736071297610e+000,-5.37044155525542e+000

4.78351759563174e+005,-1.66723106002077e+000,-5.44545693315590e+000

4.85029301283321e+005,-1.66709779335361e+000,-5.52152143241202e+000

4.91800058012158e+005,-1.66696081301823e+000,-5.59864977812260e+000

4.98665330982714e+005,-1.66682001633020e+000,-5.67685690416709e+000

5.05626439592555e+005,-1.66667529780419e+000,-5.75615795624799e+000

5.12684721657352e+005,-1.66652654907936e+000,-5.83656829497910e+000

5.19841533667984e+005,-1.66637365884271e+000,-5.91810349902430e+000

5.27098251051240e+005,-1.66621651275040e+000,-6.00077936828300e+000

5.34456268434150e+005,-1.66605499334699e+000,-6.08461192712783e+000

5.41916999912011e+005,-1.66588897998299e+000,-6.16961742769108e+000

