Freq.,VOut,OutRef

1.00000000000000e+004,-1.97590427859210e+001,-2.15143340239351e-002

1.01395947979003e+004,-1.97590428061171e+001,-2.18146622715594e-002

1.02811382665607e+004,-1.97590428268811e+001,-2.21191829166710e-002

1.04246576084112e+004,-1.97590428482288e+001,-2.24279544825254e-002

1.05701804056138e+004,-1.97590428701764e+001,-2.27410363092758e-002

1.07177346253629e+004,-1.97590428927415e+001,-2.30584885601992e-002

1.08673486252606e+004,-1.97590429159402e+001,-2.33803722512737e-002

1.10190511587661e+004,-1.97590429397918e+001,-2.37067492314478e-002

1.11728713807222e+004,-1.97590429643136e+001,-2.40376822304197e-002

1.13288388529580e+004,-1.97590429895249e+001,-2.43732348433815e-002

1.14869835499703e+004,-1.97590430154446e+001,-2.47134715586550e-002

1.16473358646846e+004,-1.97590430420932e+001,-2.50584577593048e-002

1.18099266142953e+004,-1.97590430694909e+001,-2.54082597452427e-002

1.19747870461893e+004,-1.97590430976589e+001,-2.57629447401537e-002

1.21419488439505e+004,-1.97590431266182e+001,-2.61225809090935e-002

1.23114441334492e+004,-1.97590431563924e+001,-2.64872373589244e-002

1.24833054890161e+004,-1.97590431870030e+001,-2.68569841759023e-002

1.26575659397028e+004,-1.97590432184741e+001,-2.72318924142010e-002

1.28342589756290e+004,-1.97590432508301e+001,-2.76120341198241e-002

1.30134185544193e+004,-1.97590432840956e+001,-2.79974823487523e-002

1.31950791077289e+004,-1.97590433182964e+001,-2.83883111744071e-002

1.33792755478611e+004,-1.97590433534585e+001,-2.87845957053279e-002

1.35660432744767e+004,-1.97590433896090e+001,-2.91864120982154e-002

1.37554181813974e+004,-1.97590434267756e+001,-2.95938375714650e-002

1.39474366635040e+004,-1.97590434649869e+001,-3.00069504225789e-002

1.41421356237309e+004,-1.97590435042726e+001,-3.04258300397552e-002

1.43395524801583e+004,-1.97590435446626e+001,-3.08505569216681e-002

1.45397251732031e+004,-1.97590435861876e+001,-3.12812126924233e-002

1.47426921729110e+004,-1.97590436288805e+001,-3.17178801072576e-002

1.49484924863494e+004,-1.97590436727729e+001,-3.21606430887079e-002

1.51571656651040e+004,-1.97590437178994e+001,-3.26095867194584e-002

1.53687518128801e+004,-1.97590437642944e+001,-3.30647972749673e-002

1.55832915932100e+004,-1.97590438119935e+001,-3.35263622359044e-002

1.58008262372675e+004,-1.97590438610335e+001,-3.39943703002356e-002

1.60213975517924e+004,-1.97590439114519e+001,-3.44689114072567e-002

1.62450479271247e+004,-1.97590439632875e+001,-3.49500767510505e-002

1.64718203453514e+004,-1.97590440165802e+001,-3.54379587961930e-002

1.67017583885674e+004,-1.97590440713709e+001,-3.59326513003840e-002

1.69349062472505e+004,-1.97590441277018e+001,-3.64342493281858e-002

1.71713087287550e+004,-1.97590441856160e+001,-3.69428492727184e-002

1.74110112659224e+004,-1.97590442451581e+001,-3.74585488709509e-002

1.76540599258131e+004,-1.97590443063739e+001,-3.79814472239922e-002

1.79005014185594e+004,-1.97590443693102e+001,-3.85116448186213e-002

1.81503831063432e+004,-1.97590444340156e+001,-3.90492435403024e-002

1.84037530124975e+004,-1.97590445005398e+001,-3.95943466990604e-002

1.86606598307361e+004,-1.97590445689339e+001,-4.01470590453842e-002

1.89211529345119e+004,-1.97590446392505e+001,-4.07074867920635e-002

1.91852823865052e+004,-1.97590447115432e+001,-4.12757376371320e-002

1.94530989482457e+004,-1.97590447858681e+001,-4.18519207769682e-002

1.97246540898671e+004,-1.97590448622819e+001,-4.24361469351848e-002

1.99999999999999e+004,-1.97590449408435e+001,-4.30285283794051e-002

2.02791895958005e+004,-1.97590450216135e+001,-4.36291789425097e-002

2.05622765331213e+004,-1.97590451046534e+001,-4.42382140512616e-002

2.08493152168224e+004,-1.97590451900274e+001,-4.48557507369470e-002

2.11403608112276e+004,-1.97590452778006e+001,-4.54819076710824e-002

2.14354692507258e+004,-1.97590453680412e+001,-4.61168051728017e-002

2.17346972505211e+004,-1.97590454608178e+001,-4.67605652483252e-002

2.20381023175322e+004,-1.97590455562022e+001,-4.74133116009266e-002

2.23457427614443e+004,-1.97590456542671e+001,-4.80751696649928e-002

2.26576777059159e+004,-1.97590457550882e+001,-4.87462666221409e-002

2.29739670999406e+004,-1.97590458587430e+001,-4.94267314283078e-002

2.32946717293690e+004,-1.97590459653108e+001,-5.01166948428345e-002

2.36198532285905e+004,-1.97590460748738e+001,-5.08162894449399e-002

2.39495740923785e+004,-1.97590461875158e+001,-5.15256496686752e-002

2.42838976879009e+004,-1.97590463033235e+001,-5.22449118208449e-002

2.46228882668982e+004,-1.97590464223860e+001,-5.29742141106954e-002

2.49666109780322e+004,-1.97590465447943e+001,-5.37136966785645e-002

2.53151318794055e+004,-1.97590466706427e+001,-5.44635016178253e-002

2.56685179512580e+004,-1.97590468000277e+001,-5.52237730065835e-002

2.60268371088386e+004,-1.97590469330491e+001,-5.59946569289215e-002

2.63901582154578e+004,-1.97590470698080e+001,-5.67763015177127e-002

2.67585510957221e+004,-1.97590472104105e+001,-5.75688569589949e-002

2.71320865489533e+004,-1.97590473549641e+001,-5.83724755446518e-002

2.75108363627948e+004,-1.97590475035798e+001,-5.91873116875836e-002

2.78948733270080e+004,-1.97590476563716e+001,-6.00135219581272e-002

2.82842712474618e+004,-1.97590478134569e+001,-6.08512651077013e-002

2.86791049603164e+004,-1.97590479749562e+001,-6.17007021048663e-002

2.90794503464061e+004,-1.97590481409935e+001,-6.25619961639541e-002

2.94853843458219e+004,-1.97590483116965e+001,-6.34353127740841e-002

2.98969849726987e+004,-1.97590484871959e+001,-6.43208197387764e-002

3.03143313302078e+004,-1.97590486676265e+001,-6.52186871984469e-002

3.07375036257601e+004,-1.97590488531269e+001,-6.61290876679930e-002

3.11665831864199e+004,-1.97590490438392e+001,-6.70521960711637e-002

3.16016524745350e+004,-1.97590492399100e+001,-6.79881897693017e-002

3.20427951035848e+004,-1.97590494414895e+001,-6.89372486014841e-002

3.24900958542493e+004,-1.97590496487329e+001,-6.98995549110330e-002

3.29436406907028e+004,-1.97590498617985e+001,-7.08752935919693e-002

3.34035167771346e+004,-1.97590500808504e+001,-7.18646521107997e-002

3.38698124945009e+004,-1.97590503060564e+001,-7.28678205534953e-002

3.43426174575100e+004,-1.97590505375891e+001,-7.38849916580101e-002

3.48220225318448e+004,-1.97590507756265e+001,-7.49163608475143e-002

3.53081198516260e+004,-1.97590510203510e+001,-7.59621262744455e-002

3.58010028371187e+004,-1.97590512719501e+001,-7.70224888560654e-002

3.63007662126863e+004,-1.97590515306171e+001,-7.80976523078054e-002

3.68075060249948e+004,-1.97590517965503e+001,-7.91878231910046e-002

3.73213196614721e+004,-1.97590520699536e+001,-8.02932109466449e-002

3.78423058690237e+004,-1.97590523510364e+001,-8.14140279385603e-002

3.83705647730104e+004,-1.97590526400147e+001,-8.25504894895808e-002

3.89061978964912e+004,-1.97590529371098e+001,-8.37028139279846e-002

3.94493081797342e+004,-1.97590532425496e+001,-8.48712226269127e-002

3.99999999999998e+004,-1.97590535565682e+001,-8.60559400465650e-002

4.05583791916010e+004,-1.97590538794062e+001,-8.72571937781922e-002

4.11245530662425e+004,-1.97590542113111e+001,-8.84752145879927e-002

4.16986304336447e+004,-1.97590545525373e+001,-8.97102364581456e-002

4.22807216224550e+004,-1.97590549033464e+001,-9.09624966347038e-002

4.28709385014515e+004,-1.97590552640068e+001,-9.22322356745728e-002

4.34693945010421e+004,-1.97590556347954e+001,-9.35196974847486e-002

4.40762046350642e+004,-1.97590560159960e+001,-9.48251293766965e-002

4.46914855228886e+004,-1.97590564079007e+001,-9.61487821092703e-002

4.53153554118317e+004,-1.97590568108097e+001,-9.74909099386095e-002

4.59479341998812e+004,-1.97590572250315e+001,-9.88517706645264e-002

4.65893434587380e+004,-1.97590576508833e+001,-1.00231625683527e-001

4.72397064571810e+004,-1.97590580886913e+001,-1.01630740034269e-001

4.78991481847569e+004,-1.97590585387906e+001,-1.03049382452186e-001

4.85677953758016e+004,-1.97590590015260e+001,-1.04487825416681e-001

4.92457765337964e+004,-1.97590594772515e+001,-1.05946345209839e-001

4.99332219560642e+004,-1.97590599663313e+001,-1.07425221961431e-001

5.06302637588109e+004,-1.97590604691397e+001,-1.08924739707820e-001

5.13370359025159e+004,-1.97590609860616e+001,-1.10445186444080e-001

5.20536742176771e+004,-1.97590615174921e+001,-1.11986854181330e-001

5.27803164309155e+004,-1.97590620638381e+001,-1.13550038997878e-001

5.35171021914442e+004,-1.97590626255174e+001,-1.15135041100406e-001

5.42641730979066e+004,-1.97590632029595e+001,-1.16742164878682e-001

5.50216727255895e+004,-1.97590637966061e+001,-1.18371718965511e-001

5.57897466540159e+004,-1.97590644069108e+001,-1.20024016294417e-001

5.65685424949235e+004,-1.97590650343403e+001,-1.21699374158702e-001

5.73582099206328e+004,-1.97590656793743e+001,-1.23398114273234e-001

5.81589006928121e+004,-1.97590663425055e+001,-1.25120562835925e-001

5.89707686916437e+004,-1.97590670242406e+001,-1.26867050590157e-001

5.97939699453972e+004,-1.97590677251007e+001,-1.28637912883705e-001

6.06286626604156e+004,-1.97590684456208e+001,-1.30433489741829e-001

6.14750072515201e+004,-1.97590691863511e+001,-1.32254125921910e-001

6.23331663728396e+004,-1.97590699478573e+001,-1.34100170986299e-001

6.32033049490698e+004,-1.97590707307207e+001,-1.35971979363461e-001

6.40855902071694e+004,-1.97590715355389e+001,-1.37869910421351e-001

6.49801917084985e+004,-1.97590723629257e+001,-1.39794328532504e-001

6.58872813814055e+004,-1.97590732135126e+001,-1.41745603141288e-001

6.68070335542691e+004,-1.97590740879483e+001,-1.43724108839233e-001

6.77396249890018e+004,-1.97590749868996e+001,-1.45730225431938e-001

6.86852349150199e+004,-1.97590759110517e+001,-1.47764338016490e-001

6.96440450636895e+004,-1.97590768611093e+001,-1.49826837046533e-001

7.06162397032520e+004,-1.97590778377962e+001,-1.51918118415058e-001

7.16020056742374e+004,-1.97590788418565e+001,-1.54038583524864e-001

7.26015324253724e+004,-1.97590798740549e+001,-1.56188639365700e-001

7.36150120499896e+004,-1.97590809351773e+001,-1.58368698592826e-001

7.46426393229441e+004,-1.97590820260318e+001,-1.60579179602043e-001

7.56846117380472e+004,-1.97590831474481e+001,-1.62820506614466e-001

7.67411295460207e+004,-1.97590843002799e+001,-1.65093109751077e-001

7.78123957929823e+004,-1.97590854854037e+001,-1.67397425120267e-001

7.88986163594682e+004,-1.97590867037207e+001,-1.69733894895887e-001

7.99999999999995e+004,-1.97590879561568e+001,-1.72102967403340e-001

8.11167583832018e+004,-1.97590892436639e+001,-1.74505097202988e-001

8.22491061324848e+004,-1.97590905672202e+001,-1.76940745177279e-001

8.33972608672892e+004,-1.97590919278306e+001,-1.79410378618751e-001

8.45614432449099e+004,-1.97590933265279e+001,-1.81914471318315e-001

8.57418770029029e+004,-1.97590947643735e+001,-1.84453503653567e-001

8.69387890020841e+004,-1.97590962424583e+001,-1.87027962679635e-001

8.81524092701283e+004,-1.97590977619030e+001,-1.89638342222606e-001

8.93829710457770e+004,-1.97590993238594e+001,-1.92285142971729e-001

9.06307108236633e+004,-1.97591009295108e+001,-1.94968872577159e-001

9.18958683997622e+004,-1.97591025800737e+001,-1.97690045737858e-001

9.31786869174758e+004,-1.97591042767971e+001,-2.00449184310129e-001

9.44794129143618e+004,-1.97591060209655e+001,-2.03246817394876e-001

9.57982963695136e+004,-1.97591078138980e+001,-2.06083481445011e-001

9.71355907516031e+004,-1.97591096569502e+001,-2.08959720362674e-001

9.84915530675926e+004,-1.97591115515150e+001,-2.11876085603174e-001

9.98664439121282e+004,-1.97591134990233e+001,-2.14833136279324e-001

1.01260527517622e+005,-1.97591155009454e+001,-2.17831439264690e-001

1.02674071805032e+005,-1.97591175587921e+001,-2.20871569301674e-001

1.04107348435354e+005,-1.97591196741152e+001,-2.23954109107866e-001

1.05560632861831e+005,-1.97591218485094e+001,-2.27079649488431e-001

1.07034204382888e+005,-1.97591240836128e+001,-2.30248789443376e-001

1.08528346195813e+005,-1.97591263811081e+001,-2.33462136283428e-001

1.10043345451179e+005,-1.97591287427244e+001,-2.36720305739737e-001

1.11579493308032e+005,-1.97591311702377e+001,-2.40023922084020e-001

1.13137084989847e+005,-1.97591336654725e+001,-2.43373618240366e-001

1.14716419841265e+005,-1.97591362303028e+001,-2.46770035908646e-001

1.16317801385624e+005,-1.97591388666540e+001,-2.50213825680094e-001

1.17941537383287e+005,-1.97591415765036e+001,-2.53705647161000e-001

1.19587939890794e+005,-1.97591443618829e+001,-2.57246169094986e-001

1.21257325320831e+005,-1.97591472248785e+001,-2.60836069488244e-001

1.22950014503040e+005,-1.97591501676330e+001,-2.64476035737257e-001

1.24666332745679e+005,-1.97591531923478e+001,-2.68166764752352e-001

1.26406609898139e+005,-1.97591563012835e+001,-2.71908963091930e-001

1.28171180414339e+005,-1.97591594967616e+001,-2.75703347091518e-001

1.29960383416997e+005,-1.97591627811667e+001,-2.79550642997849e-001

1.31774562762811e+005,-1.97591661569473e+001,-2.83451587101577e-001

1.33614067108538e+005,-1.97591696266182e+001,-2.87406925876474e-001

1.35479249978003e+005,-1.97591731927616e+001,-2.91417416115362e-001

1.37370469830040e+005,-1.97591768580294e+001,-2.95483825070238e-001

1.39288090127379e+005,-1.97591806251444e+001,-2.99606930596503e-001

1.41232479406504e+005,-1.97591844969022e+001,-3.03787521294319e-001

1.43204011348474e+005,-1.97591884761736e+001,-3.08026396654070e-001

1.45203064850745e+005,-1.97591925659060e+001,-3.12324367204156e-001

1.47230024099979e+005,-1.97591967691253e+001,-3.16682254660407e-001

1.49285278645888e+005,-1.97592010889382e+001,-3.21100892076599e-001

1.51369223476094e+005,-1.97592055285340e+001,-3.25581123997811e-001

1.53482259092041e+005,-1.97592100911865e+001,-3.30123806614856e-001

1.55624791585964e+005,-1.97592147802568e+001,-3.34729807921411e-001

1.57797232718936e+005,-1.97592195991944e+001,-3.39400007873225e-001

1.59999999999999e+005,-1.97592245515406e+001,-3.44135298546837e-001

1.62233516766403e+005,-1.97592296409294e+001,-3.48936584306391e-001

1.64498212264969e+005,-1.97592348710912e+001,-3.53804781963789e-001

1.66794521734578e+005,-1.97592402458538e+001,-3.58740820949345e-001

1.69122886489819e+005,-1.97592457691459e+001,-3.63745643477951e-001

1.71483754005805e+005,-1.97592514449989e+001,-3.68820204721536e-001

1.73877578004168e+005,-1.97592572775494e+001,-3.73965472983654e-001

1.76304818540256e+005,-1.97592632710420e+001,-3.79182429870050e-001

1.78765942091554e+005,-1.97592694298315e+001,-3.84472070472368e-001

1.81261421647326e+005,-1.97592757583859e+001,-3.89835403541711e-001

1.83791736799524e+005,-1.97592822612890e+001,-3.95273451674594e-001

1.86357373834951e+005,-1.97592889432427e+001,-4.00787251494610e-001

1.88958825828723e+005,-1.97592958090703e+001,-4.06377853841101e-001

1.91596592739027e+005,-1.97593028637189e+001,-4.12046323954225e-001

1.94271181503206e+005,-1.97593101122627e+001,-4.17793741667857e-001

1.96983106135185e+005,-1.97593175599052e+001,-4.23621201603237e-001

1.99732887824256e+005,-1.97593252119829e+001,-4.29529813362797e-001

2.02521055035243e+005,-1.97593330739679e+001,-4.35520701727800e-001

2.05348143610063e+005,-1.97593411514710e+001,-4.41595006859587e-001

2.08214696870707e+005,-1.97593494502446e+001,-4.47753884501579e-001

2.11121265723661e+005,-1.97593579761863e+001,-4.53998506182432e-001

2.14068408765776e+005,-1.97593667353417e+001,-4.60330059426136e-001

2.17056692391625e+005,-1.97593757339075e+001,-4.66749747959988e-001

2.20086690902357e+005,-1.97593849782353e+001,-4.73258791926183e-001

2.23158986616063e+005,-1.97593944748341e+001,-4.79858428098608e-001

2.26274169979693e+005,-1.97594042303747e+001,-4.86549910095890e-001

2.29432839682530e+005,-1.97594142516919e+001,-4.93334508606836e-001

2.32635602771247e+005,-1.97594245457887e+001,-5.00213511607389e-001

2.35883074766574e+005,-1.97594351198394e+001,-5.07188224588424e-001

2.39175879781588e+005,-1.97594459811934e+001,-5.14259970781654e-001

2.42514650641661e+005,-1.97594571373780e+001,-5.21430091391909e-001

2.45900029006080e+005,-1.97594685961031e+001,-5.28699945825183e-001

2.49332665491357e+005,-1.97594803652633e+001,-5.36070911930297e-001

2.52813219796278e+005,-1.97594924529428e+001,-5.43544386230719e-001

2.56342360828676e+005,-1.97595048674182e+001,-5.51121784169554e-001

2.59920766833993e+005,-1.97595176171623e+001,-5.58804540351196e-001

2.63549125525621e+005,-1.97595307108477e+001,-5.66594108789380e-001

2.67228134217075e+005,-1.97595441573507e+001,-5.74491963152872e-001

2.70958499956006e+005,-1.97595579657544e+001,-5.82499597021915e-001

2.74740939660078e+005,-1.97595721453529e+001,-5.90618524138806e-001

2.78576180254757e+005,-1.97595867056547e+001,-5.98850278668661e-001

2.82464958813007e+005,-1.97596016563859e+001,-6.07196415459384e-001

2.86408022696948e+005,-1.97596170074947e+001,-6.15658510303500e-001

2.90406129701488e+005,-1.97596327691542e+001,-6.24238160207267e-001

2.94460048199957e+005,-1.97596489517664e+001,-6.32936983659619e-001

2.98570557291775e+005,-1.97596655659655e+001,-6.41756620903847e-001

3.02738446952187e+005,-1.97596826226214e+001,-6.50698734215131e-001

3.06964518184081e+005,-1.97597001328436e+001,-6.59765008178238e-001

3.11249583171928e+005,-1.97597181079839e+001,-6.68957149970410e-001

3.15594465437872e+005,-1.97597365596402e+001,-6.78276889647778e-001

3.19999999999997e+005,-1.97597554996597e+001,-6.87725980432241e-001

3.24467033532806e+005,-1.97597749401422e+001,-6.97306199005387e-001

3.28996424529938e+005,-1.97597948934428e+001,-7.07019345803948e-001

3.33589043469155e+005,-1.97598153721757e+001,-7.16867245317456e-001

3.38245772979638e+005,-1.97598363892163e+001,-7.26851746392334e-001

3.42967508011610e+005,-1.97598579577048e+001,-7.36974722537989e-001

3.47755156008335e+005,-1.97598800910482e+001,-7.47238072236676e-001

3.52609637080511e+005,-1.97599028029236e+001,-7.57643719255567e-001

3.57531884183106e+005,-1.97599261072801e+001,-7.68193612966713e-001

3.62522843294651e+005,-1.97599500183413e+001,-7.78889728667352e-001

3.67583473599047e+005,-1.97599745506075e+001,-7.89734067903529e-001

3.72714747669902e+005,-1.97599997188578e+001,-8.00728658802358e-001

3.77917651657445e+005,-1.97600255381514e+001,-8.11875556404008e-001

3.83193185478053e+005,-1.97600520238297e+001,-8.23176842999195e-001

3.88542363006410e+005,-1.97600791915176e+001,-8.34634628471975e-001

3.93966212270369e+005,-1.97601070571245e+001,-8.46251050646220e-001

3.99465775648511e+005,-1.97601356368454e+001,-8.58028275636802e-001

4.05042110070485e+005,-1.97601649471614e+001,-8.69968498205893e-001

4.10696287220124e+005,-1.97601950048405e+001,-8.82073942122486e-001

4.16429393741414e+005,-1.97602258269373e+001,-8.94346860529971e-001

4.22242531447321e+005,-1.97602574307932e+001,-9.06789536316202e-001

4.28136817531551e+005,-1.97602898340360e+001,-9.19404282489202e-001

4.34113384783250e+005,-1.97603230545790e+001,-9.32193442558901e-001

4.40173381804713e+005,-1.97603571106203e+001,-9.45159390925181e-001

4.46317973232124e+005,-1.97603920206406e+001,-9.58304533271103e-001

4.52548339959385e+005,-1.97604278034024e+001,-9.71631306960492e-001

4.58865679365059e+005,-1.97604644779476e+001,-9.85142181443471e-001

4.65271205542494e+005,-1.97605020635945e+001,-9.98839658670568e-001

4.71766149533147e+005,-1.97605405799357e+001,-1.01272627350659e+000

4.78351759563174e+005,-1.97605800468341e+001,-1.02680459416017e+000

4.85029301283321e+005,-1.97606204844199e+001,-1.04107722261222e+000

4.91800058012158e+005,-1.97606619130860e+001,-1.05554679505781e+000

4.98665330982714e+005,-1.97607043534833e+001,-1.07021598235294e+000

5.05626439592555e+005,-1.97607478265164e+001,-1.08508749046805e+000

5.12684721657352e+005,-1.97607923533373e+001,-1.10016406095255e+000

5.19841533667984e+005,-1.97608379553402e+001,-1.11544847140640e+000

5.27098251051240e+005,-1.97608846541545e+001,-1.13094353595882e+000

5.34456268434150e+005,-1.97609324716385e+001,-1.14665210575966e+000

5.41916999912011e+005,-1.97609814298715e+001,-1.16257706947710e+000

