Freq.,VOut,OutRef

1.00000000000000e+004,-1.35719019536425e+001,-1.44727961459089e-001

1.01395947979003e+004,-1.35719020164363e+001,-1.46748286964436e-001

1.02811382665607e+004,-1.35719020809953e+001,-1.48796815097555e-001

1.04246576084112e+004,-1.35719021473692e+001,-1.50873939549343e-001

1.05701804056138e+004,-1.35719022156090e+001,-1.52980059506325e-001

1.07177346253629e+004,-1.35719022857672e+001,-1.55115579728558e-001

1.08673486252606e+004,-1.35719023578977e+001,-1.57280910623893e-001

1.10190511587661e+004,-1.35719024320561e+001,-1.59476468330658e-001

1.11728713807222e+004,-1.35719025082991e+001,-1.61702674797513e-001

1.13288388529580e+004,-1.35719025866856e+001,-1.63959957860342e-001

1.14869835499703e+004,-1.35719026672756e+001,-1.66248751328498e-001

1.16473358646846e+004,-1.35719027501312e+001,-1.68569495067855e-001

1.18099266142953e+004,-1.35719028353159e+001,-1.70922635082840e-001

1.19747870461893e+004,-1.35719029228955e+001,-1.73308623604201e-001

1.21419488439505e+004,-1.35719030129371e+001,-1.75727919176139e-001

1.23114441334492e+004,-1.35719031055098e+001,-1.78180986743265e-001

1.24833054890161e+004,-1.35719032006851e+001,-1.80668297738695e-001

1.26575659397028e+004,-1.35719032985357e+001,-1.83190330180695e-001

1.28342589756290e+004,-1.35719033991372e+001,-1.85747568754595e-001

1.30134185544193e+004,-1.35719035025668e+001,-1.88340504915663e-001

1.31950791077289e+004,-1.35719036089040e+001,-1.90969636977938e-001

1.33792755478611e+004,-1.35719037182304e+001,-1.93635470211512e-001

1.35660432744767e+004,-1.35719038306302e+001,-1.96338516938684e-001

1.37554181813974e+004,-1.35719039461895e+001,-1.99079296635748e-001

1.39474366635040e+004,-1.35719040649976e+001,-2.01858336026973e-001

1.41421356237309e+004,-1.35719041871454e+001,-2.04676169191314e-001

1.43395524801583e+004,-1.35719043127270e+001,-2.07533337662688e-001

1.45397251732031e+004,-1.35719044418388e+001,-2.10430390533295e-001

1.47426921729110e+004,-1.35719045745800e+001,-2.13367884562136e-001

1.49484924863494e+004,-1.35719047110529e+001,-2.16346384276505e-001

1.51571656651040e+004,-1.35719048513619e+001,-2.19366462087847e-001

1.53687518128801e+004,-1.35719049956152e+001,-2.22428698394846e-001

1.55832915932100e+004,-1.35719051439237e+001,-2.25533681698460e-001

1.58008262372675e+004,-1.35719052964011e+001,-2.28682008715391e-001

1.60213975517924e+004,-1.35719054531648e+001,-2.31874284490961e-001

1.62450479271247e+004,-1.35719056143351e+001,-2.35111122517510e-001

1.64718203453514e+004,-1.35719057800361e+001,-2.38393144847673e-001

1.67017583885674e+004,-1.35719059503949e+001,-2.41720982221297e-001

1.69349062472505e+004,-1.35719061255425e+001,-2.45095274179799e-001

1.71713087287550e+004,-1.35719063056135e+001,-2.48516669192775e-001

1.74110112659224e+004,-1.35719064907464e+001,-2.51985824780908e-001

1.76540599258131e+004,-1.35719066810832e+001,-2.55503407644329e-001

1.79005014185594e+004,-1.35719068767704e+001,-2.59070093787418e-001

1.81503831063432e+004,-1.35719070779583e+001,-2.62686568652564e-001

1.84037530124975e+004,-1.35719072848015e+001,-2.66353527248197e-001

1.86606598307361e+004,-1.35719074974588e+001,-2.70071674286769e-001

1.89211529345119e+004,-1.35719077160939e+001,-2.73841724313032e-001

1.91852823865052e+004,-1.35719079408746e+001,-2.77664401849965e-001

1.94530989482457e+004,-1.35719081719737e+001,-2.81540441532023e-001

1.97246540898671e+004,-1.35719084095686e+001,-2.85470588248087e-001

1.99999999999999e+004,-1.35719086538420e+001,-2.89455597284197e-001

2.02791895958005e+004,-1.35719089049817e+001,-2.93496234469398e-001

2.05622765331213e+004,-1.35719091631804e+001,-2.97593276322622e-001

2.08493152168224e+004,-1.35719094286367e+001,-3.01747510200419e-001

2.11403608112276e+004,-1.35719097015545e+001,-3.05959734451180e-001

2.14354692507258e+004,-1.35719099821434e+001,-3.10230758566481e-001

2.17346972505211e+004,-1.35719102706191e+001,-3.14561403335544e-001

2.20381023175322e+004,-1.35719105672030e+001,-3.18952501006813e-001

2.23457427614443e+004,-1.35719108721232e+001,-3.23404895442402e-001

2.26576777059159e+004,-1.35719111856139e+001,-3.27919442285286e-001

2.29739670999406e+004,-1.35719115079158e+001,-3.32497009121412e-001

2.32946717293690e+004,-1.35719118392769e+001,-3.37138475644439e-001

2.36198532285905e+004,-1.35719121799512e+001,-3.41844733830252e-001

2.39495740923785e+004,-1.35719125302006e+001,-3.46616688102028e-001

2.42838976879009e+004,-1.35719128902944e+001,-3.51455255506978e-001

2.46228882668982e+004,-1.35719132605089e+001,-3.56361365894694e-001

2.49666109780322e+004,-1.35719136411287e+001,-3.61335962090711e-001

2.53151318794055e+004,-1.35719140324460e+001,-3.66380000081583e-001

2.56685179512580e+004,-1.35719144347615e+001,-3.71494449196567e-001

2.60268371088386e+004,-1.35719148483840e+001,-3.76680292295976e-001

2.63901582154578e+004,-1.35719152736314e+001,-3.81938525957023e-001

2.67585510957221e+004,-1.35719157108302e+001,-3.87270160667465e-001

2.71320865489533e+004,-1.35719161603162e+001,-3.92676221017708e-001

2.75108363627948e+004,-1.35719166224347e+001,-3.98157745900420e-001

2.78948733270080e+004,-1.35719170975405e+001,-4.03715788707887e-001

2.82842712474618e+004,-1.35719175859984e+001,-4.09351417535377e-001

2.86791049603164e+004,-1.35719180881837e+001,-4.15065715383863e-001

2.90794503464061e+004,-1.35719186044818e+001,-4.20859780372700e-001

2.94853843458219e+004,-1.35719191352894e+001,-4.26734725946241e-001

2.98969849726987e+004,-1.35719196810138e+001,-4.32691681090281e-001

3.03143313302078e+004,-1.35719202420743e+001,-4.38731790546810e-001

3.07375036257601e+004,-1.35719208189016e+001,-4.44856215034605e-001

3.11665831864199e+004,-1.35719214119385e+001,-4.51066131474552e-001

3.16016524745350e+004,-1.35719220216403e+001,-4.57362733211538e-001

3.20427951035848e+004,-1.35719226484753e+001,-4.63747230246637e-001

3.24900958542493e+004,-1.35719232929244e+001,-4.70220849468155e-001

3.29436406907028e+004,-1.35719239554826e+001,-4.76784834887211e-001

3.34035167771346e+004,-1.35719246366583e+001,-4.83440447877639e-001

3.38698124945009e+004,-1.35719253369745e+001,-4.90188967417348e-001

3.43426174575100e+004,-1.35719260569688e+001,-4.97031690333300e-001

3.48220225318448e+004,-1.35719267971936e+001,-5.03969931552679e-001

3.53081198516260e+004,-1.35719275582171e+001,-5.11005024353173e-001

3.58010028371187e+004,-1.35719283406236e+001,-5.18138320618484e-001

3.63007662126863e+004,-1.35719291450132e+001,-5.25371191102323e-001

3.68075060249948e+004,-1.35719299720034e+001,-5.32705025684553e-001

3.73213196614721e+004,-1.35719308222287e+001,-5.40141233645610e-001

3.78423058690237e+004,-1.35719316963416e+001,-5.47681243929755e-001

3.83705647730104e+004,-1.35719325950126e+001,-5.55326505426107e-001

3.89061978964912e+004,-1.35719335189313e+001,-5.63078487241544e-001

3.94493081797342e+004,-1.35719344688065e+001,-5.70938678985893e-001

3.99999999999998e+004,-1.35719354453669e+001,-5.78908591055999e-001

4.05583791916010e+004,-1.35719364493616e+001,-5.86989754927116e-001

4.11245530662425e+004,-1.35719374815607e+001,-5.95183723445327e-001

4.16986304336447e+004,-1.35719385427559e+001,-6.03492071127311e-001

4.22807216224550e+004,-1.35719396337612e+001,-6.11916394460867e-001

4.28709385014515e+004,-1.35719407554131e+001,-6.20458312212853e-001

4.34693945010421e+004,-1.35719419085720e+001,-6.29119465737945e-001

4.40762046350642e+004,-1.35719430941218e+001,-6.37901519296459e-001

4.46914855228886e+004,-1.35719443129717e+001,-6.46806160370302e-001

4.53153554118317e+004,-1.35719455660563e+001,-6.55835099989312e-001

4.59479341998812e+004,-1.35719468543359e+001,-6.64990073059172e-001

4.65893434587380e+004,-1.35719481787983e+001,-6.74272838692399e-001

4.72397064571810e+004,-1.35719495404585e+001,-6.83685180549475e-001

4.78991481847569e+004,-1.35719509403604e+001,-6.93228907176588e-001

4.85677953758016e+004,-1.35719523795767e+001,-7.02905852356367e-001

4.92457765337964e+004,-1.35719538592102e+001,-7.12717875457902e-001

4.99332219560642e+004,-1.35719553803947e+001,-7.22666861793629e-001

5.06302637588109e+004,-1.35719569442958e+001,-7.32754722981329e-001

5.13370359025159e+004,-1.35719585521114e+001,-7.42983397309866e-001

5.20536742176771e+004,-1.35719602050732e+001,-7.53354850112310e-001

5.27803164309155e+004,-1.35719619044473e+001,-7.63871074141759e-001

5.35171021914442e+004,-1.35719636515351e+001,-7.74534089954007e-001

5.42641730979066e+004,-1.35719654476744e+001,-7.85345946294840e-001

5.50216727255895e+004,-1.35719672942407e+001,-7.96308720492901e-001

5.57897466540159e+004,-1.35719691926476e+001,-8.07424518858078e-001

5.65685424949235e+004,-1.35719711443484e+001,-8.18695477085502e-001

5.73582099206328e+004,-1.35719731508370e+001,-8.30123760663887e-001

5.81589006928121e+004,-1.35719752136490e+001,-8.41711565292889e-001

5.89707686916437e+004,-1.35719773343628e+001,-8.53461117301814e-001

5.97939699453972e+004,-1.35719795146013e+001,-8.65374674077050e-001

6.06286626604156e+004,-1.35719817560323e+001,-8.77454524495350e-001

6.14750072515201e+004,-1.35719840603703e+001,-8.89702989361880e-001

6.23331663728396e+004,-1.35719864293778e+001,-9.02122421854944e-001

6.32033049490698e+004,-1.35719888648664e+001,-9.14715207976902e-001

6.40855902071694e+004,-1.35719913686982e+001,-9.27483767011245e-001

6.49801917084985e+004,-1.35719939427874e+001,-9.40430551987355e-001

6.58872813814055e+004,-1.35719965891015e+001,-9.53558050147754e-001

6.68070335542691e+004,-1.35719993096628e+001,-9.66868783427766e-001

6.77396249890018e+004,-1.35720021065503e+001,-9.80365308935636e-001

6.86852349150199e+004,-1.35720049819006e+001,-9.94050219444092e-001

6.96440450636895e+004,-1.35720079379101e+001,-1.00792614388618e+000

7.06162397032520e+004,-1.35720109768363e+001,-1.02199574785898e+000

7.16020056742374e+004,-1.35720141009997e+001,-1.03626173413328e+000

7.26015324253724e+004,-1.35720173127852e+001,-1.05072684317201e+000

7.36150120499896e+004,-1.35720206146443e+001,-1.06539385365382e+000

7.46426393229441e+004,-1.35720240090968e+001,-1.08026558300563e+000

7.56846117380472e+004,-1.35720274987325e+001,-1.09534488794123e+000

7.67411295460207e+004,-1.35720310862132e+001,-1.11063466500824e+000

7.78123957929823e+004,-1.35720347742748e+001,-1.12613785114289e+000

7.88986163594682e+004,-1.35720385657294e+001,-1.14185742423041e+000

7.99999999999995e+004,-1.35720424634671e+001,-1.15779640367661e+000

8.11167583832018e+004,-1.35720464704583e+001,-1.17395785098302e+000

8.22491061324848e+004,-1.35720505897561e+001,-1.19034487033435e+000

8.33972608672892e+004,-1.35720548244981e+001,-1.20696060919144e+000

8.45614432449099e+004,-1.35720591779093e+001,-1.22380825889273e+000

8.57418770029029e+004,-1.35720636533040e+001,-1.24089105526385e+000

8.69387890020841e+004,-1.35720682540885e+001,-1.25821227923744e+000

8.81524092701283e+004,-1.35720729837636e+001,-1.27577525747920e+000

8.93829710457770e+004,-1.35720778459269e+001,-1.29358336302353e+000

9.06307108236633e+004,-1.35720828442760e+001,-1.31164001591779e+000

9.18958683997622e+004,-1.35720879826108e+001,-1.32994868387628e+000

9.31786869174758e+004,-1.35720932648362e+001,-1.34851288294208e+000

9.44794129143618e+004,-1.35720986949656e+001,-1.36733617815775e+000

9.57982963695136e+004,-1.35721042771228e+001,-1.38642218424748e+000

9.71355907516031e+004,-1.35721100155462e+001,-1.40577456630524e+000

9.84915530675926e+004,-1.35721159145910e+001,-1.42539704049567e+000

9.98664439121282e+004,-1.35721219787328e+001,-1.44529337476227e+000

1.01260527517622e+005,-1.35721282125707e+001,-1.46546738954739e+000

1.02674071805032e+005,-1.35721346208308e+001,-1.48592295851885e+000

1.04107348435354e+005,-1.35721412083693e+001,-1.50666400931102e+000

1.05560632861831e+005,-1.35721479801766e+001,-1.52769452427164e+000

1.07034204382888e+005,-1.35721549413804e+001,-1.54901854122203e+000

1.08528346195813e+005,-1.35721620972495e+001,-1.57064015422663e+000

1.10043345451179e+005,-1.35721694531978e+001,-1.59256351437250e+000

1.11579493308032e+005,-1.35721770147881e+001,-1.61479283055994e+000

1.13137084989847e+005,-1.35721847877361e+001,-1.63733237030469e+000

1.14716419841265e+005,-1.35721927779142e+001,-1.66018646055010e+000

1.16317801385624e+005,-1.35722009913564e+001,-1.68335948849109e+000

1.17941537383287e+005,-1.35722094342619e+001,-1.70685590240829e+000

1.19587939890794e+005,-1.35722181130000e+001,-1.73068021251472e+000

1.21257325320831e+005,-1.35722270341143e+001,-1.75483699181420e+000

1.22950014503040e+005,-1.35722362043278e+001,-1.77933087696992e+000

1.24666332745679e+005,-1.35722456305468e+001,-1.80416656918720e+000

1.26406609898139e+005,-1.35722553198671e+001,-1.82934883510482e+000

1.28171180414339e+005,-1.35722652795776e+001,-1.85488250770289e+000

1.29960383416997e+005,-1.35722755171663e+001,-1.88077248721947e+000

1.31774562762811e+005,-1.35722860403255e+001,-1.90702374208177e+000

1.33614067108538e+005,-1.35722968569569e+001,-1.93364130984806e+000

1.35479249978003e+005,-1.35723079751772e+001,-1.96063029816468e+000

1.37370469830040e+005,-1.35723194033238e+001,-1.98799588573502e+000

1.39288090127379e+005,-1.35723311499604e+001,-2.01574332330076e+000

1.41232479406504e+005,-1.35723432238836e+001,-2.04387793463714e+000

1.43204011348474e+005,-1.35723556341278e+001,-2.07240511756356e+000

1.45203064850745e+005,-1.35723683899727e+001,-2.10133034496361e+000

1.47230024099979e+005,-1.35723815009486e+001,-2.13065916582347e+000

1.49285278645888e+005,-1.35723949768435e+001,-2.16039720628115e+000

1.51369223476094e+005,-1.35724088277098e+001,-2.19055017069178e+000

1.53482259092041e+005,-1.35724230638705e+001,-2.22112384270627e+000

1.55624791585964e+005,-1.35724376959272e+001,-2.25212408636485e+000

1.57797232718936e+005,-1.35724527347661e+001,-2.28355684720521e+000

1.59999999999999e+005,-1.35724681915664e+001,-2.31542815338620e+000

1.62233516766403e+005,-1.35724840778069e+001,-2.34774411682613e+000

1.64498212264969e+005,-1.35725004052739e+001,-2.38051093435648e+000

1.66794521734578e+005,-1.35725171860697e+001,-2.41373488889043e+000

1.69122886489819e+005,-1.35725344326193e+001,-2.44742235060867e+000

1.71483754005805e+005,-1.35725521576797e+001,-2.48157977816024e+000

1.73877578004168e+005,-1.35725703743477e+001,-2.51621371987891e+000

1.76304818540256e+005,-1.35725890960685e+001,-2.55133081501679e+000

1.78765942091554e+005,-1.35726083366445e+001,-2.58693779499449e+000

1.81261421647326e+005,-1.35726281102444e+001,-2.62304148466727e+000

1.83791736799524e+005,-1.35726484314117e+001,-2.65964880360804e+000

1.86357373834951e+005,-1.35726693150745e+001,-2.69676676740959e+000

1.88958825828723e+005,-1.35726907765549e+001,-2.73440248900144e+000

1.91596592739027e+005,-1.35727128315787e+001,-2.77256317998471e+000

1.94271181503206e+005,-1.35727354962848e+001,-2.81125615198788e+000

1.96983106135185e+005,-1.35727587872361e+001,-2.85048881803616e+000

1.99732887824256e+005,-1.35727827214292e+001,-2.89026869394234e+000

2.02521055035243e+005,-1.35728073163048e+001,-2.93060339971433e+000

2.05348143610063e+005,-1.35728325897588e+001,-2.97150066098302e+000

2.08214696870707e+005,-1.35728585601529e+001,-3.01296831044730e+000

2.11121265723661e+005,-1.35728852463261e+001,-3.05501428933936e+000

2.14068408765776e+005,-1.35729126676051e+001,-3.09764664890995e+000

2.17056692391625e+005,-1.35729408438170e+001,-3.14087355193159e+000

2.20086690902357e+005,-1.35729697953001e+001,-3.18470327422370e+000

2.23158986616063e+005,-1.35729995429161e+001,-3.22914420619577e+000

2.26274169979693e+005,-1.35730301080626e+001,-3.27420485441373e+000

2.29432839682530e+005,-1.35730615126849e+001,-3.31989384318364e+000

2.32635602771247e+005,-1.35730937792890e+001,-3.36621991615928e+000

2.35883074766574e+005,-1.35731269309541e+001,-3.41319193796977e+000

2.39175879781588e+005,-1.35731609913455e+001,-3.46081889586782e+000

2.42514650641661e+005,-1.35731959847284e+001,-3.50910990140121e+000

2.45900029006080e+005,-1.35732319359804e+001,-3.55807419210596e+000

2.49332665491357e+005,-1.35732688706058e+001,-3.60772113322121e+000

2.52813219796278e+005,-1.35733068147490e+001,-3.65806021942640e+000

2.56342360828676e+005,-1.35733457952088e+001,-3.70910107660297e+000

2.59920766833993e+005,-1.35733858394521e+001,-3.76085346361802e+000

2.63549125525621e+005,-1.35734269756289e+001,-3.81332727413161e+000

2.67228134217075e+005,-1.35734692325863e+001,-3.86653253842733e+000

2.70958499956006e+005,-1.35735126398838e+001,-3.92047942526837e+000

2.74740939660078e+005,-1.35735572278076e+001,-3.97517824377748e+000

2.78576180254757e+005,-1.35736030273863e+001,-4.03063944533992e+000

2.82464958813007e+005,-1.35736500704057e+001,-4.08687362553489e+000

2.86408022696948e+005,-1.35736983894247e+001,-4.14389152608887e+000

2.90406129701488e+005,-1.35737480177903e+001,-4.20170403685746e+000

2.94460048199957e+005,-1.35737989896539e+001,-4.26032219783155e+000

2.98570557291775e+005,-1.35738513399868e+001,-4.31975720117052e+000

3.02738446952187e+005,-1.35739051045964e+001,-4.38002039326248e+000

3.06964518184081e+005,-1.35739603201424e+001,-4.44112327681201e+000

3.11249583171928e+005,-1.35740170241525e+001,-4.50307751295460e+000

3.15594465437872e+005,-1.35740752550396e+001,-4.56589492339928e+000

3.19999999999997e+005,-1.35741350521177e+001,-4.62958749260025e+000

3.24467033532806e+005,-1.35741964556185e+001,-4.69416736995684e+000

3.28996424529938e+005,-1.35742595067078e+001,-4.75964687204319e+000

3.33589043469155e+005,-1.35743242475027e+001,-4.82603848486588e+000

3.38245772979638e+005,-1.35743907210878e+001,-4.89335486615480e+000

3.42967508011610e+005,-1.35744589715320e+001,-4.96160884768113e+000

3.47755156008335e+005,-1.35745290439056e+001,-5.03081343760887e+000

3.52609637080511e+005,-1.35746009842964e+001,-5.10098182287646e+000

3.57531884183106e+005,-1.35746748398273e+001,-5.17212737161128e+000

3.62522843294651e+005,-1.35747506586721e+001,-5.24426363557617e+000

3.67583473599047e+005,-1.35748284900726e+001,-5.31740435264913e+000

3.72714747669902e+005,-1.35749083843555e+001,-5.39156344933646e+000

3.77917651657445e+005,-1.35749903929483e+001,-5.46675504332080e+000

3.83193185478053e+005,-1.35750745683961e+001,-5.54299344604258e+000

3.88542363006410e+005,-1.35751609643777e+001,-5.62029316531827e+000

3.93966212270369e+005,-1.35752496357223e+001,-5.69866890799350e+000

3.99465775648511e+005,-1.35753406384247e+001,-5.77813558263326e+000

4.05042110070485e+005,-1.35754340296619e+001,-5.85870830224894e+000

4.10696287220124e+005,-1.35755298678083e+001,-5.94040238706454e+000

4.16429393741414e+005,-1.35756282124514e+001,-6.02323336731942e+000

4.22242531447321e+005,-1.35757291244072e+001,-6.10721698611245e+000

4.28136817531551e+005,-1.35758326657347e+001,-6.19236920228471e+000

4.34113384783250e+005,-1.35759388997512e+001,-6.27870619334423e+000

4.40173381804713e+005,-1.35760478910464e+001,-6.36624435843179e+000

4.46317973232124e+005,-1.35761597054969e+001,-6.45500032132907e+000

4.52548339959385e+005,-1.35762744102797e+001,-6.54499093351084e+000

4.58865679365059e+005,-1.35763920738863e+001,-6.63623327724079e+000

4.65271205542494e+005,-1.35765127661352e+001,-6.72874466871233e+000

4.71766149533147e+005,-1.35766365581856e+001,-6.82254266123662e+000

4.78351759563174e+005,-1.35767635225492e+001,-6.91764504847621e+000

4.85029301283321e+005,-1.35768937331030e+001,-7.01406986772766e+000

4.91800058012158e+005,-1.35770272651004e+001,-7.11183540325332e+000

4.98665330982714e+005,-1.35771641951836e+001,-7.21096018966222e+000

5.05626439592555e+005,-1.35773046013934e+001,-7.31146301534397e+000

5.12684721657352e+005,-1.35774485631811e+001,-7.41336292595344e+000

5.19841533667984e+005,-1.35775961614179e+001,-7.51667922794965e+000

5.27098251051240e+005,-1.35777474784055e+001,-7.62143149218990e+000

5.34456268434150e+005,-1.35779025978853e+001,-7.72763955757906e+000

5.41916999912011e+005,-1.35780616050477e+001,-7.83532353477676e+000

