Freq.,VOut,OutRef

1.00000000000000e+004,-2.72630912059602e+001,-3.78595356564656e-001

1.01395947979003e+004,-2.72630932955560e+001,-3.83880312066605e-001

1.02811382665607e+004,-2.72630954438971e+001,-3.89239041153959e-001

1.04246576084112e+004,-2.72630976526350e+001,-3.94672573597693e-001

1.05701804056138e+004,-2.72630999234676e+001,-4.00181953540467e-001

1.07177346253629e+004,-2.72631022581407e+001,-4.05768239697681e-001

1.08673486252606e+004,-2.72631046584489e+001,-4.11432505561948e-001

1.10190511587661e+004,-2.72631071262373e+001,-4.17175839606139e-001

1.11728713807222e+004,-2.72631096634029e+001,-4.22999345495979e-001

1.13288388529580e+004,-2.72631122718964e+001,-4.28904142297715e-001

1.14869835499703e+004,-2.72631149537227e+001,-4.34891364697407e-001

1.16473358646846e+004,-2.72631177109433e+001,-4.40962163216439e-001

1.18099266142953e+004,-2.72631205456780e+001,-4.47117704432225e-001

1.19747870461893e+004,-2.72631234601056e+001,-4.53359171202461e-001

1.21419488439505e+004,-2.72631264564666e+001,-4.59687762893636e-001

1.23114441334492e+004,-2.72631295370644e+001,-4.66104695608593e-001

1.24833054890161e+004,-2.72631327042670e+001,-4.72611202422291e-001

1.26575659397028e+004,-2.72631359605090e+001,-4.79208533617769e-001

1.28342589756290e+004,-2.72631393082934e+001,-4.85897956926111e-001

1.30134185544193e+004,-2.72631427501939e+001,-4.92680757768806e-001

1.31950791077289e+004,-2.72631462888561e+001,-4.99558239506414e-001

1.33792755478611e+004,-2.72631499270002e+001,-5.06531723687334e-001

1.35660432744767e+004,-2.72631536674228e+001,-5.13602550301489e-001

1.37554181813974e+004,-2.72631575129992e+001,-5.20772078038816e-001

1.39474366635040e+004,-2.72631614666854e+001,-5.28041684547988e-001

1.41421356237309e+004,-2.72631655315205e+001,-5.35412766702650e-001

1.43395524801583e+004,-2.72631697106292e+001,-5.42886740867933e-001

1.45397251732031e+004,-2.72631740072238e+001,-5.50465043173356e-001

1.47426921729110e+004,-2.72631784246072e+001,-5.58149129787476e-001

1.49484924863494e+004,-2.72631829661747e+001,-5.65940477199713e-001

1.51571656651040e+004,-2.72631876354174e+001,-5.73840582499051e-001

1.53687518128801e+004,-2.72631924359244e+001,-5.81850963665876e-001

1.55832915932100e+004,-2.72631973713856e+001,-5.89973159860890e-001

1.58008262372675e+004,-2.72632024455950e+001,-5.98208731719877e-001

1.60213975517924e+004,-2.72632076624527e+001,-6.06559261655177e-001

1.62450479271247e+004,-2.72632130259688e+001,-6.15026354157288e-001

1.64718203453514e+004,-2.72632185402659e+001,-6.23611636103919e-001

1.67017583885674e+004,-2.72632242095827e+001,-6.32316757070576e-001

1.69349062472505e+004,-2.72632300382768e+001,-6.41143389648849e-001

1.71713087287550e+004,-2.72632360308286e+001,-6.50093229765045e-001

1.74110112659224e+004,-2.72632421918441e+001,-6.59167997007654e-001

1.76540599258131e+004,-2.72632485260588e+001,-6.68369434954430e-001

1.79005014185594e+004,-2.72632550383417e+001,-6.77699311509222e-001

1.81503831063432e+004,-2.72632617336980e+001,-6.87159419240257e-001

1.84037530124975e+004,-2.72632686172742e+001,-6.96751575722465e-001

1.86606598307361e+004,-2.72632756943611e+001,-7.06477623886774e-001

1.89211529345119e+004,-2.72632829703981e+001,-7.16339432374892e-001

1.91852823865052e+004,-2.72632904509779e+001,-7.26338895894499e-001

1.94530989482457e+004,-2.72632981418502e+001,-7.36477935584438e-001

1.97246540898671e+004,-2.72633060489260e+001,-7.46758499383215e-001

1.99999999999999e+004,-2.72633141782829e+001,-7.57182562399652e-001

2.02791895958005e+004,-2.72633225361689e+001,-7.67752127295369e-001

2.05622765331213e+004,-2.72633311290080e+001,-7.78469224664252e-001

2.08493152168224e+004,-2.72633399634044e+001,-7.89335913425192e-001

2.11403608112276e+004,-2.72633490461482e+001,-8.00354281212829e-001

2.14354692507258e+004,-2.72633583842199e+001,-8.11526444781801e-001

2.17346972505211e+004,-2.72633679847967e+001,-8.22854550407620e-001

2.20381023175322e+004,-2.72633778552571e+001,-8.34340774301294e-001

2.23457427614443e+004,-2.72633880031874e+001,-8.45987323023289e-001

2.26576777059159e+004,-2.72633984363865e+001,-8.57796433908459e-001

2.29739670999406e+004,-2.72634091628729e+001,-8.69770375493039e-001

2.32946717293690e+004,-2.72634201908903e+001,-8.81911447948308e-001

2.36198532285905e+004,-2.72634315289142e+001,-8.94221983523129e-001

2.39495740923785e+004,-2.72634431856581e+001,-9.06704346987246e-001

2.42838976879009e+004,-2.72634551700803e+001,-9.19360936086860e-001

2.46228882668982e+004,-2.72634674913912e+001,-9.32194182000780e-001

2.49666109780322e+004,-2.72634801590597e+001,-9.45206549807622e-001

2.53151318794055e+004,-2.72634931828207e+001,-9.58400538956502e-001

2.56685179512580e+004,-2.72635065726831e+001,-9.71778683744206e-001

2.60268371088386e+004,-2.72635203389366e+001,-9.85343553801596e-001

2.63901582154578e+004,-2.72635344921602e+001,-9.99097754584076e-001

2.67585510957221e+004,-2.72635490432301e+001,-1.01304392786978e+000

2.71320865489533e+004,-2.72635640033282e+001,-1.02718475226378e+000

2.75108363627948e+004,-2.72635793839506e+001,-1.04152294371231e+000

2.78948733270080e+004,-2.72635951969163e+001,-1.05606125601884e+000

2.82842712474618e+004,-2.72636114543764e+001,-1.07080248137258e+000

2.86791049603164e+004,-2.72636281688235e+001,-1.08574945088090e+000

2.90794503464061e+004,-2.72636453531010e+001,-1.10090503511081e+000

2.94853843458219e+004,-2.72636630204134e+001,-1.11627214463538e+000

2.98969849726987e+004,-2.72636811843360e+001,-1.13185373059155e+000

3.03143313302078e+004,-2.72636998588255e+001,-1.14765278524318e+000

3.07375036257601e+004,-2.72637190582307e+001,-1.16367234255079e+000

3.11665831864199e+004,-2.72637387973037e+001,-1.17991547875200e+000

3.16016524745350e+004,-2.72637590912107e+001,-1.19638531294795e+000

3.20427951035848e+004,-2.72637799555442e+001,-1.21308500769831e+000

3.24900958542493e+004,-2.72638014063346e+001,-1.23001776962388e+000

3.29436406907028e+004,-2.72638234600627e+001,-1.24718685001915e+000

3.34035167771346e+004,-2.72638461336721e+001,-1.26459554547166e+000

3.38698124945009e+004,-2.72638694445825e+001,-1.28224719848967e+000

3.43426174575100e+004,-2.72638934107029e+001,-1.30014519814004e+000

3.48220225318448e+004,-2.72639180504451e+001,-1.31829298069275e+000

3.53081198516260e+004,-2.72639433827384e+001,-1.33669403027638e+000

3.58010028371187e+004,-2.72639694270435e+001,-1.35535187954123e+000

3.63007662126863e+004,-2.72639962033677e+001,-1.37427011033118e+000

3.68075060249948e+004,-2.72640237322804e+001,-1.39345235436630e+000

3.73213196614721e+004,-2.72640520349283e+001,-1.41290229393312e+000

3.78423058690237e+004,-2.72640811330524e+001,-1.43262366258491e+000

3.83705647730104e+004,-2.72641110490040e+001,-1.45262024585174e+000

3.89061978964912e+004,-2.72641418057623e+001,-1.47289588196029e+000

3.94493081797342e+004,-2.72641734269513e+001,-1.49345446256343e+000

3.99999999999998e+004,-2.72642059368589e+001,-1.51429993347875e+000

4.05583791916010e+004,-2.72642393604548e+001,-1.53543629543755e+000

4.11245530662425e+004,-2.72642737234096e+001,-1.55686760484593e+000

4.16986304336447e+004,-2.72643090521149e+001,-1.57859797455349e+000

4.22807216224550e+004,-2.72643453737032e+001,-1.60063157463352e+000

4.28709385014515e+004,-2.72643827160688e+001,-1.62297263317367e+000

4.34693945010421e+004,-2.72644211078889e+001,-1.64562543707836e+000

4.40762046350642e+004,-2.72644605786460e+001,-1.66859433288016e+000

4.46914855228886e+004,-2.72645011586501e+001,-1.69188372756306e+000

4.53153554118317e+004,-2.72645428790622e+001,-1.71549808939794e+000

4.59479341998812e+004,-2.72645857719175e+001,-1.73944194878675e+000

4.65893434587380e+004,-2.72646298701510e+001,-1.76371989912056e+000

4.72397064571810e+004,-2.72646752076216e+001,-1.78833659764838e+000

4.78991481847569e+004,-2.72647218191386e+001,-1.81329676635563e+000

4.85677953758016e+004,-2.72647697404884e+001,-1.83860519285811e+000

4.92457765337964e+004,-2.72648190084613e+001,-1.86426673130580e+000

4.99332219560642e+004,-2.72648696608802e+001,-1.89028630329734e+000

5.06302637588109e+004,-2.72649217366294e+001,-1.91666889880999e+000

5.13370359025159e+004,-2.72649752756839e+001,-1.94341957714018e+000

5.20536742176771e+004,-2.72650303191407e+001,-1.97054346785627e+000

5.27803164309155e+004,-2.72650869092493e+001,-1.99804577176445e+000

5.35171021914442e+004,-2.72651450894450e+001,-2.02593176188889e+000

5.42641730979066e+004,-2.72652049043810e+001,-2.05420678446158e+000

5.50216727255895e+004,-2.72652663999634e+001,-2.08287625992963e+000

5.57897466540159e+004,-2.72653296233857e+001,-2.11194568397135e+000

5.65685424949235e+004,-2.72653946231650e+001,-2.14142062853022e+000

5.73582099206328e+004,-2.72654614491792e+001,-2.17130674285830e+000

5.81589006928121e+004,-2.72655301527048e+001,-2.20160975457741e+000

5.89707686916437e+004,-2.72656007864561e+001,-2.23233547075034e+000

5.97939699453972e+004,-2.72656734046255e+001,-2.26348977896974e+000

6.06286626604156e+004,-2.72657480629248e+001,-2.29507864845878e+000

6.14750072515201e+004,-2.72658248186274e+001,-2.32710813118745e+000

6.23331663728396e+004,-2.72659037306125e+001,-2.35958436300272e+000

6.32033049490698e+004,-2.72659848594095e+001,-2.39251356477420e+000

6.40855902071694e+004,-2.72660682672443e+001,-2.42590204355442e+000

6.49801917084985e+004,-2.72661540180867e+001,-2.45975619375308e+000

6.58872813814055e+004,-2.72662421776990e+001,-2.49408249832919e+000

6.68070335542691e+004,-2.72663328136864e+001,-2.52888752999554e+000

6.77396249890018e+004,-2.72664259955480e+001,-2.56417795244068e+000

6.86852349150199e+004,-2.72665217947299e+001,-2.59996052156594e+000

6.96440450636895e+004,-2.72666202846796e+001,-2.63624208673872e+000

7.06162397032520e+004,-2.72667215409017e+001,-2.67302959206135e+000

7.16020056742374e+004,-2.72668256410156e+001,-2.71033007765671e+000

7.26015324253724e+004,-2.72669326648140e+001,-2.74815068096931e+000

7.36150120499896e+004,-2.72670426943239e+001,-2.78649863808430e+000

7.46426393229441e+004,-2.72671558138688e+001,-2.82538128506161e+000

7.56846117380472e+004,-2.72672721101327e+001,-2.86480605928815e+000

7.67411295460207e+004,-2.72673916722259e+001,-2.90478050084691e+000

7.78123957929823e+004,-2.72675145917526e+001,-2.94531225390209e+000

7.88986163594682e+004,-2.72676409628802e+001,-2.98640906810362e+000

7.99999999999995e+004,-2.72677708824110e+001,-3.02807880000709e+000

8.11167583832018e+004,-2.72679044498554e+001,-3.07032941451272e+000

8.22491061324848e+004,-2.72680417675073e+001,-3.11316898632085e+000

8.33972608672892e+004,-2.72681829405213e+001,-3.15660570140809e+000

8.45614432449099e+004,-2.72683280769927e+001,-3.20064785851746e+000

8.57418770029029e+004,-2.72684772880391e+001,-3.24530387067101e+000

8.69387890020841e+004,-2.72686306878844e+001,-3.29058226669754e+000

8.81524092701283e+004,-2.72687883939450e+001,-3.33649169278148e+000

8.93829710457770e+004,-2.72689505269185e+001,-3.38304091402809e+000

9.06307108236633e+004,-2.72691172108755e+001,-3.43023881604962e+000

9.18958683997622e+004,-2.72692885733522e+001,-3.47809440656918e+000

9.31786869174758e+004,-2.72694647454472e+001,-3.52661681704435e+000

9.44794129143618e+004,-2.72696458619203e+001,-3.57581530430906e+000

9.57982963695136e+004,-2.72698320612939e+001,-3.62569925223694e+000

9.71355907516031e+004,-2.72700234859575e+001,-3.67627817342109e+000

9.84915530675926e+004,-2.72702202822746e+001,-3.72756171087715e+000

9.98664439121282e+004,-2.72704226006930e+001,-3.77955963976220e+000

1.01260527517622e+005,-2.72706305958577e+001,-3.83228186911731e+000

1.02674071805032e+005,-2.72708444267273e+001,-3.88573844362678e+000

1.04107348435354e+005,-2.72710642566932e+001,-3.93993954539969e+000

1.05560632861831e+005,-2.72712902537021e+001,-3.99489549577044e+000

1.07034204382888e+005,-2.72715225903821e+001,-4.05061675711996e+000

1.08528346195813e+005,-2.72717614441720e+001,-4.10711393471701e+000

1.10043345451179e+005,-2.72720069974538e+001,-4.16439777858027e+000

1.11579493308032e+005,-2.72722594376897e+001,-4.22247918536017e+000

1.13137084989847e+005,-2.72725189575618e+001,-4.28136920024203e+000

1.14716419841265e+005,-2.72727857551161e+001,-4.34107901886874e+000

1.16317801385624e+005,-2.72730600339104e+001,-4.40161998928555e+000

1.17941537383287e+005,-2.72733420031661e+001,-4.46300361390393e+000

1.19587939890794e+005,-2.72736318779238e+001,-4.52524155148695e+000

1.21257325320831e+005,-2.72739298792038e+001,-4.58834561915495e+000

1.22950014503040e+005,-2.72742362341701e+001,-4.65232779441220e+000

1.24666332745679e+005,-2.72745511762995e+001,-4.71720021719418e+000

1.26406609898139e+005,-2.72748749455545e+001,-4.78297519193475e+000

1.28171180414339e+005,-2.72752077885617e+001,-4.84966518965500e+000

1.29960383416997e+005,-2.72755499587942e+001,-4.91728285007206e+000

1.31774562762811e+005,-2.72759017167592e+001,-4.98584098372784e+000

1.33614067108538e+005,-2.72762633301908e+001,-5.05535257413963e+000

1.35479249978003e+005,-2.72766350742475e+001,-5.12583077996913e+000

1.37370469830040e+005,-2.72770172317151e+001,-5.19728893721373e+000

1.39288090127379e+005,-2.72774100932152e+001,-5.26974056141531e+000

1.41232479406504e+005,-2.72778139574189e+001,-5.34319934989209e+000

1.43204011348474e+005,-2.72782291312666e+001,-5.41767918398700e+000

1.45203064850745e+005,-2.72786559301928e+001,-5.49319413133779e+000

1.47230024099979e+005,-2.72790946783578e+001,-5.56975844816588e+000

1.49285278645888e+005,-2.72795457088846e+001,-5.64738658158413e+000

1.51369223476094e+005,-2.72800093641030e+001,-5.72609317192351e+000

1.53482259092041e+005,-2.72804859957989e+001,-5.80589305507865e+000

1.55624791585964e+005,-2.72809759654708e+001,-5.88680126487162e+000

1.57797232718936e+005,-2.72814796445934e+001,-5.96883303543339e+000

1.59999999999999e+005,-2.72819974148873e+001,-6.05200380360338e+000

1.62233516766403e+005,-2.72825296685956e+001,-6.13632921134613e+000

1.64498212264969e+005,-2.72830768087687e+001,-6.22182510818442e+000

1.66794521734578e+005,-2.72836392495551e+001,-6.30850755364926e+000

1.69122886489819e+005,-2.72842174165011e+001,-6.39639281974635e+000

1.71483754005805e+005,-2.72848117468568e+001,-6.48549739343649e+000

1.73877578004168e+005,-2.72854226898912e+001,-6.57583797913246e+000

1.76304818540256e+005,-2.72860507072144e+001,-6.66743150120910e+000

1.78765942091554e+005,-2.72866962731084e+001,-6.76029510652835e+000

1.81261421647326e+005,-2.72873598748666e+001,-6.85444616697613e+000

1.83791736799524e+005,-2.72880420131414e+001,-6.94990228201251e+000

1.86357373834951e+005,-2.72887432023005e+001,-7.04668128123355e+000

1.88958825828723e+005,-2.72894639707931e+001,-7.14480122694305e+000

1.91596592739027e+005,-2.72902048615241e+001,-7.24428041673658e+000

1.94271181503206e+005,-2.72909664322385e+001,-7.34513738609179e+000

1.96983106135185e+005,-2.72917492559149e+001,-7.44739091097027e+000

1.99732887824256e+005,-2.72925539211690e+001,-7.55106001042418e+000

2.02521055035243e+005,-2.72933810326671e+001,-7.65616394921126e+000

2.05348143610063e+005,-2.72942312115499e+001,-7.76272224041360e+000

2.08214696870707e+005,-2.72951050958661e+001,-7.87075464806160e+000

2.11121265723661e+005,-2.72960033410174e+001,-7.98028118976135e+000

2.14068408765776e+005,-2.72969266202137e+001,-8.09132213932182e+000

2.17056692391625e+005,-2.72978756249401e+001,-8.20389802938595e+000

2.20086690902357e+005,-2.72988510654339e+001,-8.31802965405726e+000

2.23158986616063e+005,-2.72998536711747e+001,-8.43373807152672e+000

2.26274169979693e+005,-2.73008841913845e+001,-8.55104460669520e+000

2.29432839682530e+005,-2.73019433955414e+001,-8.66997085379032e+000

2.32635602771247e+005,-2.73030320739037e+001,-8.79053867897636e+000

2.35883074766574e+005,-2.73041510380478e+001,-8.91277022295666e+000

2.39175879781588e+005,-2.73053011214182e+001,-9.03668790356360e+000

2.42514650641661e+005,-2.73064831798898e+001,-9.16231441833830e+000

2.45900029006080e+005,-2.73076980923438e+001,-9.28967274709514e+000

2.49332665491357e+005,-2.73089467612567e+001,-9.41878615446997e+000

2.52813219796278e+005,-2.73102301133027e+001,-9.54967819245039e+000

2.56342360828676e+005,-2.73115490999699e+001,-9.68237270288514e+000

2.59920766833993e+005,-2.73129046981899e+001,-9.81689381997121e+000

2.63549125525621e+005,-2.73142979109824e+001,-9.95326597271497e+000

2.67228134217075e+005,-2.73157297681132e+001,-1.00915138873661e+001

2.70958499956006e+005,-2.73172013267674e+001,-1.02316625898216e+001

2.74740939660078e+005,-2.73187136722368e+001,-1.03737374079956e+001

2.78576180254757e+005,-2.73202679186226e+001,-1.05177639741550e+001

2.82464958813007e+005,-2.73218652095530e+001,-1.06637682272157e+001

2.86408022696948e+005,-2.73235067189165e+001,-1.08117764149967e+001

2.90406129701488e+005,-2.73251936516097e+001,-1.09618150964309e+001

2.94460048199957e+005,-2.73269272443024e+001,-1.11139111437265e+001

2.98570557291775e+005,-2.73287087662168e+001,-1.12680917444783e+001

3.02738446952187e+005,-2.73305395199241e+001,-1.14243844037236e+001

3.06964518184081e+005,-2.73324208421563e+001,-1.15828169459399e+001

3.11249583171928e+005,-2.73343541046350e+001,-1.17434175169812e+001

3.15594465437872e+005,-2.73363407149160e+001,-1.19062145859477e+001

3.19999999999997e+005,-2.73383821172510e+001,-1.20712369469861e+001

3.24467033532806e+005,-2.73404797934661e+001,-1.22385137210169e+001

3.28996424529938e+005,-2.73426352638563e+001,-1.24080743573818e+001

3.33589043469155e+005,-2.73448500880976e+001,-1.25799486354116e+001

3.38245772979638e+005,-2.73471258661757e+001,-1.27541666659042e+001

3.42967508011610e+005,-2.73494642393321e+001,-1.29307588925137e+001

3.47755156008335e+005,-2.73518668910265e+001,-1.31097560930423e+001

3.52609637080511e+005,-2.73543355479174e+001,-1.32911893806316e+001

3.57531884183106e+005,-2.73568719808584e+001,-1.34750902048474e+001

3.62522843294651e+005,-2.73594780059127e+001,-1.36614903526544e+001

3.67583473599047e+005,-2.73621554853842e+001,-1.38504219492736e+001

3.72714747669902e+005,-2.73649063288652e+001,-1.40419174589183e+001

3.77917651657445e+005,-2.73677324943021e+001,-1.42360096854034e+001

3.83193185478053e+005,-2.73706359890763e+001,-1.44327317726202e+001

3.88542363006410e+005,-2.73736188711031e+001,-1.46321172048743e+001

3.93966212270369e+005,-2.73766832499464e+001,-1.48341998070772e+001

3.99465775648511e+005,-2.73798312879500e+001,-1.50390137447876e+001

4.05042110070485e+005,-2.73830652013845e+001,-1.52465935240959e+001

4.10696287220124e+005,-2.73863872616109e+001,-1.54569739913451e+001

4.16429393741414e+005,-2.73897997962587e+001,-1.56701903326811e+001

4.22242531447321e+005,-2.73933051904200e+001,-1.58862780734282e+001

4.28136817531551e+005,-2.73969058878578e+001,-1.61052730772794e+001

4.34113384783250e+005,-2.74006043922298e+001,-1.63272115452981e+001

4.40173381804713e+005,-2.74044032683247e+001,-1.65521300147222e+001

4.46317973232124e+005,-2.74083051433136e+001,-1.67800653575646e+001

4.52548339959385e+005,-2.74123127080130e+001,-1.70110547790016e+001

4.58865679365059e+005,-2.74164287181613e+001,-1.72451358155444e+001

4.65271205542494e+005,-2.74206559957069e+001,-1.74823463329830e+001

4.71766149533147e+005,-2.74249974301066e+001,-1.77227245240985e+001

4.78351759563174e+005,-2.74294559796359e+001,-1.79663089061339e+001

4.85029301283321e+005,-2.74340346727075e+001,-1.82131383180169e+001

4.91800058012158e+005,-2.74387366091998e+001,-1.84632519173271e+001

4.98665330982714e+005,-2.74435649617922e+001,-1.87166891769992e+001

5.05626439592555e+005,-2.74485229773089e+001,-1.89734898817554e+001

5.12684721657352e+005,-2.74536139780670e+001,-1.92336941242592e+001

5.19841533667984e+005,-2.74588413632305e+001,-1.94973423009824e+001

5.27098251051240e+005,-2.74642086101686e+001,-1.97644751077774e+001

5.34456268434150e+005,-2.74697192758149e+001,-2.00351335351483e+001

5.41916999912011e+005,-2.74753769980296e+001,-2.03093588632119e+001

