Freq.,VOut,OutRef

1.00000000000000e+004,-2.73293628962409e+001,-5.32824252877688e-001

1.01395947979003e+004,-2.73293669873772e+001,-5.40262100677015e-001

1.02811382665607e+004,-2.73293711935271e+001,-5.47803772648733e-001

1.04246576084112e+004,-2.73293755179239e+001,-5.55450717940307e-001

1.05701804056138e+004,-2.73293799638916e+001,-5.63204405921991e-001

1.07177346253629e+004,-2.73293845348477e+001,-5.71066326467567e-001

1.08673486252606e+004,-2.73293892343060e+001,-5.79037990238863e-001

1.10190511587661e+004,-2.73293940658788e+001,-5.87120928978848e-001

1.11728713807222e+004,-2.73293990332801e+001,-5.95316695802157e-001

1.13288388529580e+004,-2.73294041403282e+001,-6.03626865494856e-001

1.14869835499703e+004,-2.73294093909489e+001,-6.12053034816727e-001

1.16473358646846e+004,-2.73294147891780e+001,-6.20596822807003e-001

1.18099266142953e+004,-2.73294203391652e+001,-6.29259871093983e-001

1.19747870461893e+004,-2.73294260451764e+001,-6.38043844212417e-001

1.21419488439505e+004,-2.73294319115977e+001,-6.46950429920623e-001

1.23114441334492e+004,-2.73294379429386e+001,-6.55981339523906e-001

1.24833054890161e+004,-2.73294441438348e+001,-6.65138308206217e-001

1.26575659397028e+004,-2.73294505190529e+001,-6.74423095357281e-001

1.28342589756290e+004,-2.73294570734932e+001,-6.83837484915105e-001

1.30134185544193e+004,-2.73294638121937e+001,-6.93383285706217e-001

1.31950791077289e+004,-2.73294707403342e+001,-7.03062331790738e-001

1.33792755478611e+004,-2.73294778632398e+001,-7.12876482817025e-001

1.35660432744767e+004,-2.73294851863857e+001,-7.22827624375586e-001

1.37554181813974e+004,-2.73294927154005e+001,-7.32917668362817e-001

1.39474366635040e+004,-2.73295004560713e+001,-7.43148553344877e-001

1.41421356237309e+004,-2.73295084143478e+001,-7.53522244932344e-001

1.43395524801583e+004,-2.73295165963470e+001,-7.64040736153576e-001

1.45397251732031e+004,-2.73295250083576e+001,-7.74706047839979e-001

1.47426921729110e+004,-2.73295336568454e+001,-7.85520229010106e-001

1.49484924863494e+004,-2.73295425484576e+001,-7.96485357264524e-001

1.51571656651040e+004,-2.73295516900283e+001,-8.07603539183342e-001

1.53687518128801e+004,-2.73295610885838e+001,-8.18876910729336e-001

1.55832915932100e+004,-2.73295707513479e+001,-8.30307637656782e-001

1.58008262372675e+004,-2.73295806857471e+001,-8.41897915927233e-001

1.60213975517924e+004,-2.73295908994170e+001,-8.53649972129880e-001

1.62450479271247e+004,-2.73296014002076e+001,-8.65566063906698e-001

1.64718203453514e+004,-2.73296121961895e+001,-8.77648480387143e-001

1.67017583885674e+004,-2.73296232956603e+001,-8.89899542624111e-001

1.69349062472505e+004,-2.73296347071506e+001,-9.02321604039035e-001

1.71713087287550e+004,-2.73296464394307e+001,-9.14917050874072e-001

1.74110112659224e+004,-2.73296585015177e+001,-9.27688302644908e-001

1.76540599258131e+004,-2.73296709026816e+001,-9.40637812608390e-001

1.79005014185594e+004,-2.73296836524535e+001,-9.53768068228469e-001

1.81503831063432e+004,-2.73296967606318e+001,-9.67081591654277e-001

1.84037530124975e+004,-2.73297102372905e+001,-9.80580940200924e-001

1.86606598307361e+004,-2.73297240927868e+001,-9.94268706840451e-001

1.89211529345119e+004,-2.73297383377688e+001,-1.00814752069590e+000

1.91852823865052e+004,-2.73297529831837e+001,-1.02222004754578e+000

1.94530989482457e+004,-2.73297680402867e+001,-1.03648899033268e+000

1.97246540898671e+004,-2.73297835206488e+001,-1.05095708968076e+000

1.99999999999999e+004,-2.73297994361667e+001,-1.06562712441795e+000

2.02791895958005e+004,-2.73298157990707e+001,-1.08050191211030e+000

2.05622765331213e+004,-2.73298326219353e+001,-1.09558430959664e+000

2.08493152168224e+004,-2.73298499176882e+001,-1.11087721353654e+000

2.11403608112276e+004,-2.73298676996202e+001,-1.12638356096401e+000

2.14354692507258e+004,-2.73298859813957e+001,-1.14210632984639e+000

2.17346972505211e+004,-2.73299047770628e+001,-1.15804853965602e+000

2.20381023175322e+004,-2.73299241010646e+001,-1.17421325194362e+000

2.23457427614443e+004,-2.73299439682499e+001,-1.19060357092448e+000

2.26576777059159e+004,-2.73299643938845e+001,-1.20722264407081e+000

2.29739670999406e+004,-2.73299853936633e+001,-1.22407366271205e+000

2.32946717293690e+004,-2.73300069837220e+001,-1.24115986264380e+000

2.36198532285905e+004,-2.73300291806498e+001,-1.25848452474484e+000

2.39495740923785e+004,-2.73300520015018e+001,-1.27605097560230e+000

2.42838976879009e+004,-2.73300754638122e+001,-1.29386258814816e+000

2.46228882668982e+004,-2.73300995856079e+001,-1.31192278229869e+000

2.49666109780322e+004,-2.73301243854221e+001,-1.33023502560903e+000

2.53151318794055e+004,-2.73301498823087e+001,-1.34880283393304e+000

2.56685179512580e+004,-2.73301760958567e+001,-1.36762977209175e+000

2.60268371088386e+004,-2.73302030462056e+001,-1.38671945455468e+000

2.63901582154578e+004,-2.73302307540603e+001,-1.40607554612473e+000

2.67585510957221e+004,-2.73302592407075e+001,-1.42570176263936e+000

2.71320865489533e+004,-2.73302885280316e+001,-1.44560187167437e+000

2.75108363627948e+004,-2.73303186385318e+001,-1.46577969326327e+000

2.78948733270080e+004,-2.73303495953393e+001,-1.48623910062134e+000

2.82842712474618e+004,-2.73303814222346e+001,-1.50698402088309e+000

2.86791049603164e+004,-2.73304141436665e+001,-1.52801843584996e+000

2.90794503464061e+004,-2.73304477847701e+001,-1.54934638274386e+000

2.94853843458219e+004,-2.73304823713865e+001,-1.57097195497688e+000

2.98969849726987e+004,-2.73305179300825e+001,-1.59289930292662e+000

3.03143313302078e+004,-2.73305544881707e+001,-1.61513263472490e+000

3.07375036257601e+004,-2.73305920737310e+001,-1.63767621705533e+000

3.11665831864199e+004,-2.73306307156315e+001,-1.66053437596392e+000

3.16016524745350e+004,-2.73306704435509e+001,-1.68371149767805e+000

3.20427951035848e+004,-2.73307112880013e+001,-1.70721202943865e+000

3.24900958542493e+004,-2.73307532803515e+001,-1.73104048034156e+000

3.29436406907028e+004,-2.73307964528506e+001,-1.75520142219313e+000

3.34035167771346e+004,-2.73308408386537e+001,-1.77969949037382e+000

3.38698124945009e+004,-2.73308864718461e+001,-1.80453938471721e+000

3.43426174575100e+004,-2.73309333874703e+001,-1.82972587039668e+000

3.48220225318448e+004,-2.73309816215522e+001,-1.85526377882852e+000

3.53081198516260e+004,-2.73310312111292e+001,-1.88115800858309e+000

3.58010028371187e+004,-2.73310821942780e+001,-1.90741352631105e+000

3.63007662126863e+004,-2.73311346101442e+001,-1.93403536768053e+000

3.68075060249948e+004,-2.73311884989720e+001,-1.96102863832690e+000

3.73213196614721e+004,-2.73312439021349e+001,-1.98839851481680e+000

3.78423058690237e+004,-2.73313008621676e+001,-2.01615024562241e+000

3.83705647730104e+004,-2.73313594227984e+001,-2.04428915211062e+000

3.89061978964912e+004,-2.73314196289826e+001,-2.07282062954527e+000

3.94493081797342e+004,-2.73314815269368e+001,-2.10175014810193e+000

3.99999999999998e+004,-2.73315451641742e+001,-2.13108325389709e+000

4.05583791916010e+004,-2.73316105895413e+001,-2.16082557002925e+000

4.11245530662425e+004,-2.73316778532547e+001,-2.19098279763615e+000

4.16986304336447e+004,-2.73317470069398e+001,-2.22156071696406e+000

4.22807216224550e+004,-2.73318181036699e+001,-2.25256518845295e+000

4.28709385014515e+004,-2.73318911980072e+001,-2.28400215383340e+000

4.34693945010421e+004,-2.73319663460440e+001,-2.31587763724054e+000

4.40762046350642e+004,-2.73320436054457e+001,-2.34819774634178e+000

4.46914855228886e+004,-2.73321230354950e+001,-2.38096867347785e+000

4.53153554118317e+004,-2.73322046971366e+001,-2.41419669682126e+000

4.59479341998812e+004,-2.73322886530242e+001,-2.44788818154756e+000

4.65893434587380e+004,-2.73323749675683e+001,-2.48204958102383e+000

4.72397064571810e+004,-2.73324637069847e+001,-2.51668743801096e+000

4.78991481847569e+004,-2.73325549393456e+001,-2.55180838588276e+000

4.85677953758016e+004,-2.73326487346314e+001,-2.58741914986001e+000

4.92457765337964e+004,-2.73327451647837e+001,-2.62352654826087e+000

4.99332219560642e+004,-2.73328443037602e+001,-2.66013749376765e+000

5.06302637588109e+004,-2.73329462275912e+001,-2.69725899470936e+000

5.13370359025159e+004,-2.73330510144375e+001,-2.73489815636002e+000

5.20536742176771e+004,-2.73331587446497e+001,-2.77306218225593e+000

5.27803164309155e+004,-2.73332695008291e+001,-2.81175837552743e+000

5.35171021914442e+004,-2.73333833678914e+001,-2.85099414024800e+000

5.42641730979066e+004,-2.73335004331302e+001,-2.89077698280198e+000

5.50216727255895e+004,-2.73336207862841e+001,-2.93111451326767e+000

5.57897466540159e+004,-2.73337445196048e+001,-2.97201444681859e+000

5.65685424949235e+004,-2.73338717279267e+001,-3.01348460514342e+000

5.73582099206328e+004,-2.73340025087396e+001,-3.05553291788164e+000

5.81589006928121e+004,-2.73341369622622e+001,-3.09816742407894e+000

5.89707686916437e+004,-2.73342751915184e+001,-3.14139627365995e+000

5.97939699453972e+004,-2.73344173024155e+001,-3.18522772891894e+000

6.06286626604156e+004,-2.73345634038242e+001,-3.22967016602977e+000

6.14750072515201e+004,-2.73347136076617e+001,-3.27473207657375e+000

6.23331663728396e+004,-2.73348680289757e+001,-3.32042206908647e+000

6.32033049490698e+004,-2.73350267860326e+001,-3.36674887062349e+000

6.40855902071694e+004,-2.73351900004058e+001,-3.41372132834547e+000

6.49801917084985e+004,-2.73353577970689e+001,-3.46134841112116e+000

6.58872813814055e+004,-2.73355303044894e+001,-3.50963921115192e+000

6.68070335542691e+004,-2.73357076547264e+001,-3.55860294561363e+000

6.77396249890018e+004,-2.73358899835298e+001,-3.60824895831896e+000

6.86852349150199e+004,-2.73360774304436e+001,-3.65858672140016e+000

6.96440450636895e+004,-2.73362701389106e+001,-3.70962583701034e+000

7.06162397032520e+004,-2.73364682563811e+001,-3.76137603904604e+000

7.16020056742374e+004,-2.73366719344238e+001,-3.81384719488896e+000

7.26015324253724e+004,-2.73368813288402e+001,-3.86704930716847e+000

7.36150120499896e+004,-2.73370965997822e+001,-3.92099251554414e+000

7.46426393229441e+004,-2.73373179118723e+001,-3.97568709850948e+000

7.56846117380472e+004,-2.73375454343279e+001,-4.03114347521489e+000

7.67411295460207e+004,-2.73377793410880e+001,-4.08737220731345e+000

7.78123957929823e+004,-2.73380198109447e+001,-4.14438400082401e+000

7.88986163594682e+004,-2.73382670276768e+001,-4.20218970801958e+000

7.99999999999995e+004,-2.73385211801884e+001,-4.26080032933221e+000

8.11167583832018e+004,-2.73387824626500e+001,-4.32022701528247e+000

8.22491061324848e+004,-2.73390510746446e+001,-4.38048106842744e+000

8.33972608672892e+004,-2.73393272213169e+001,-4.44157394533129e+000

8.45614432449099e+004,-2.73396111135268e+001,-4.50351725855617e+000

8.57418770029029e+004,-2.73399029680075e+001,-4.56632277867478e+000

8.69387890020841e+004,-2.73402030075273e+001,-4.63000243630352e+000

8.81524092701283e+004,-2.73405114610556e+001,-4.69456832415773e+000

8.93829710457770e+004,-2.73408285639346e+001,-4.76003269912705e+000

9.06307108236633e+004,-2.73411545580539e+001,-4.82640798437317e+000

9.18958683997622e+004,-2.73414896920314e+001,-4.89370677144736e+000

9.31786869174758e+004,-2.73418342213979e+001,-4.96194182243046e+000

9.44794129143618e+004,-2.73421884087873e+001,-5.03112607209282e+000

9.57982963695136e+004,-2.73425525241317e+001,-5.10127263007569e+000

9.71355907516031e+004,-2.73429268448617e+001,-5.17239478309442e+000

9.84915530675926e+004,-2.73433116561121e+001,-5.24450599716016e+000

9.98664439121282e+004,-2.73437072509334e+001,-5.31761991982495e+000

1.01260527517622e+005,-2.73441139305081e+001,-5.39175038244546e+000

1.02674071805032e+005,-2.73445320043736e+001,-5.46691140246775e+000

1.04107348435354e+005,-2.73449617906509e+001,-5.54311718573268e+000

1.05560632861831e+005,-2.73454036162788e+001,-5.62038212880057e+000

1.07034204382888e+005,-2.73458578172551e+001,-5.69872082129645e+000

1.08528346195813e+005,-2.73463247388836e+001,-5.77814804827404e+000

1.10043345451179e+005,-2.73468047360278e+001,-5.85867879260021e+000

1.11579493308032e+005,-2.73472981733712e+001,-5.94032823735720e+000

1.13137084989847e+005,-2.73478054256849e+001,-6.02311176826429e+000

1.14716419841265e+005,-2.73483268781015e+001,-6.10704497611810e+000

1.16317801385624e+005,-2.73488629263970e+001,-6.19214365925028e+000

1.17941537383287e+005,-2.73494139772791e+001,-6.27842382600313e+000

1.19587939890794e+005,-2.73499804486839e+001,-6.36590169722237e+000

1.21257325320831e+005,-2.73505627700798e+001,-6.45459370876662e+000

1.22950014503040e+005,-2.73511613827798e+001,-6.54451651403336e+000

1.24666332745679e+005,-2.73517767402612e+001,-6.63568698650052e+000

1.26406609898139e+005,-2.73524093084940e+001,-6.72812222228228e+000

1.28171180414339e+005,-2.73530595662779e+001,-6.82183954270169e+000

1.29960383416997e+005,-2.73537280055877e+001,-6.91685649687443e+000

1.31774562762811e+005,-2.73544151319275e+001,-7.01319086430783e+000

1.33614067108538e+005,-2.73551214646944e+001,-7.11086065751183e+000

1.35479249978003e+005,-2.73558475375506e+001,-7.20988412462100e+000

1.37370469830040e+005,-2.73565938988063e+001,-7.31027975202833e+000

1.39288090127379e+005,-2.73573611118110e+001,-7.41206626702897e+000

1.41232479406504e+005,-2.73581497553555e+001,-7.51526264047278e+000

1.43204011348474e+005,-2.73589604240837e+001,-7.61988808942468e+000

1.45203064850745e+005,-2.73597937289147e+001,-7.72596207983357e+000

1.47230024099979e+005,-2.73606502974758e+001,-7.83350432920555e+000

1.49285278645888e+005,-2.73615307745460e+001,-7.94253480928372e+000

1.51369223476094e+005,-2.73624358225106e+001,-8.05307374873025e+000

1.53482259092041e+005,-2.73633661218270e+001,-8.16514163581192e+000

1.55624791585964e+005,-2.73643223715020e+001,-8.27875922108667e+000

1.57797232718936e+005,-2.73653052895811e+001,-8.39394752008973e+000

1.59999999999999e+005,-2.73663156136491e+001,-8.51072781601786e+000

1.62233516766403e+005,-2.73673541013439e+001,-8.62912166241095e+000

1.64498212264969e+005,-2.73684215308814e+001,-8.74915088582840e+000

1.66794521734578e+005,-2.73695187015945e+001,-8.87083758851884e+000

1.69122886489819e+005,-2.73706464344840e+001,-8.99420415108225e+000

1.71483754005805e+005,-2.73718055727831e+001,-9.11927323512086e+000

1.73877578004168e+005,-2.73729969825350e+001,-9.24606778587941e+000

1.76304818540256e+005,-2.73742215531850e+001,-9.37461103486982e+000

1.78765942091554e+005,-2.73754801981849e+001,-9.50492650248092e+000

1.81261421647326e+005,-2.73767738556135e+001,-9.63703800056891e+000

1.83791736799524e+005,-2.73781034888098e+001,-9.77096963502757e+000

1.86357373834951e+005,-2.73794700870220e+001,-9.90674580833544e+000

1.88958825828723e+005,-2.73808746660704e+001,-1.00443912220768e+001

1.91596592739027e+005,-2.73823182690265e+001,-1.01839308794353e+001

1.94271181503206e+005,-2.73838019669064e+001,-1.03253900876553e+001

1.96983106135185e+005,-2.73853268593804e+001,-1.04687944604711e+001

1.99732887824256e+005,-2.73868940754982e+001,-1.06141699204983e+001

2.02521055035243e+005,-2.73885047744303e+001,-1.07615427015854e+001

2.05348143610063e+005,-2.73901601462254e+001,-1.09109393511224e+001

2.08214696870707e+005,-2.73918614125845e+001,-1.10623867323040e+001

2.11121265723661e+005,-2.73936098276516e+001,-1.12159120263414e+001

2.14068408765776e+005,-2.73954066788210e+001,-1.13715427346219e+001

2.17056692391625e+005,-2.73972532875624e+001,-1.15293066808115e+001

2.20086690902357e+005,-2.73991510102628e+001,-1.16892320128957e+001

2.23158986616063e+005,-2.74011012390854e+001,-1.18513472051559e+001

2.26274169979693e+005,-2.74031054028471e+001,-1.20156810600770e+001

2.29432839682530e+005,-2.74051649679131e+001,-1.21822627101813e+001

2.32635602771247e+005,-2.74072814391097e+001,-1.23511216197841e+001

2.35883074766574e+005,-2.74094563606549e+001,-1.25222875866682e+001

2.39175879781588e+005,-2.74116913171074e+001,-1.26957907436706e+001

2.42514650641661e+005,-2.74139879343339e+001,-1.28716615601769e+001

2.45900029006080e+005,-2.74163478804946e+001,-1.30499308435190e+001

2.49332665491357e+005,-2.74187728670472e+001,-1.32306297402705e+001

2.52813219796278e+005,-2.74212646497695e+001,-1.34137897374346e+001

2.56342360828676e+005,-2.74238250298002e+001,-1.35994426635182e+001

2.59920766833993e+005,-2.74264558546987e+001,-1.37876206894879e+001

2.63549125525621e+005,-2.74291590195229e+001,-1.39783563296005e+001

2.67228134217075e+005,-2.74319364679259e+001,-1.41716824421027e+001

2.70958499956006e+005,-2.74347901932709e+001,-1.43676322297941e+001

2.74740939660078e+005,-2.74377222397642e+001,-1.45662392404466e+001

2.78576180254757e+005,-2.74407347036069e+001,-1.47675373670733e+001

2.82464958813007e+005,-2.74438297341642e+001,-1.49715608480410e+001

2.86408022696948e+005,-2.74470095351525e+001,-1.51783442670190e+001

2.90406129701488e+005,-2.74502763658448e+001,-1.53879225527568e+001

2.94460048199957e+005,-2.74536325422923e+001,-1.56003309786843e+001

2.98570557291775e+005,-2.74570804385641e+001,-1.58156051623262e+001

3.02738446952187e+005,-2.74606224880027e+001,-1.60337810645234e+001

3.06964518184081e+005,-2.74642611844970e+001,-1.62548949884539e+001

3.11249583171928e+005,-2.74679990837700e+001,-1.64789835784451e+001

3.15594465437872e+005,-2.74718388046821e+001,-1.67060838185695e+001

3.19999999999997e+005,-2.74757830305501e+001,-1.69362330310155e+001

3.24467033532806e+005,-2.74798345104795e+001,-1.71694688742256e+001

3.28996424529938e+005,-2.74839960607109e+001,-1.74058293407925e+001

3.33589043469155e+005,-2.74882705659789e+001,-1.76453527551059e+001

3.38245772979638e+005,-2.74926609808841e+001,-1.78880777707401e+001

3.42967508011610e+005,-2.74971703312752e+001,-1.81340433675749e+001

3.47755156008335e+005,-2.75018017156422e+001,-1.83832888486394e+001

3.52609637080511e+005,-2.75065583065193e+001,-1.86358538366719e+001

3.57531884183106e+005,-2.75114433518954e+001,-1.88917782703840e+001

3.62522843294651e+005,-2.75164601766330e+001,-1.91511024004238e+001

3.67583473599047e+005,-2.75216121838920e+001,-1.94138667850254e+001

3.72714747669902e+005,-2.75269028565594e+001,-1.96801122853378e+001

3.77917651657445e+005,-2.75323357586818e+001,-1.99498800604239e+001

3.83193185478053e+005,-2.75379145369006e+001,-2.02232115619195e+001

3.88542363006410e+005,-2.75436429218868e+001,-2.05001485283455e+001

3.93966212270369e+005,-2.75495247297760e+001,-2.07807329790622e+001

3.99465775648511e+005,-2.75555638635993e+001,-2.10650072078576e+001

4.05042110070485e+005,-2.75617643147103e+001,-2.13530137761625e+001

4.10696287220124e+005,-2.75681301642057e+001,-2.16447955058817e+001

4.16429393741414e+005,-2.75746655843368e+001,-2.19403954718349e+001

4.22242531447321e+005,-2.75813748399111e+001,-2.22398569937973e+001

4.28136817531551e+005,-2.75882622896799e+001,-2.25432236281345e+001

4.34113384783250e+005,-2.75953323877124e+001,-2.28505391590222e+001

4.40173381804713e+005,-2.76025896847506e+001,-2.31618475892445e+001

4.46317973232124e+005,-2.76100388295448e+001,-2.34771931305632e+001

4.52548339959385e+005,-2.76176845701664e+001,-2.37966201936536e+001

4.58865679365059e+005,-2.76255317552947e+001,-2.41201733775974e+001

4.65271205542494e+005,-2.76335853354751e+001,-2.44478974589321e+001

4.71766149533147e+005,-2.76418503643470e+001,-2.47798373802469e+001

4.78351759563174e+005,-2.76503319998355e+001,-2.51160382383248e+001

4.85029301283321e+005,-2.76590355053065e+001,-2.54565452718253e+001

4.91800058012158e+005,-2.76679662506799e+001,-2.58014038485053e+001

4.98665330982714e+005,-2.76771297134993e+001,-2.61506594519764e+001

5.05626439592555e+005,-2.76865314799518e+001,-2.65043576679963e+001

5.12684721657352e+005,-2.76961772458381e+001,-2.68625441702953e+001

5.19841533667984e+005,-2.77060728174850e+001,-2.72252647059370e+001

5.27098251051240e+005,-2.77162241126002e+001,-2.75925650802161e+001

5.34456268434150e+005,-2.77266371610620e+001,-2.79644911410943e+001

5.41916999912011e+005,-2.77373181056430e+001,-2.83410887631785e+001

