Freq.,VOut,OutRef

1.00000000000000e+004,-2.00904611021044e+001,-3.53198717077084e-001

1.01395947979003e+004,-2.00904625275650e+001,-3.58129161982110e-001

1.02811382665607e+004,-2.00904639930999e+001,-3.63128432253391e-001

1.04246576084112e+004,-2.00904654998358e+001,-3.68197488609843e-001

1.05701804056138e+004,-2.00904670489309e+001,-3.73337305182288e-001

1.07177346253629e+004,-2.00904686415761e+001,-3.78548869695698e-001

1.08673486252606e+004,-2.00904702789956e+001,-3.83833183662954e-001

1.10190511587661e+004,-2.00904719624484e+001,-3.89191262572763e-001

1.11728713807222e+004,-2.00904736932282e+001,-3.94624136090739e-001

1.13288388529580e+004,-2.00904754726657e+001,-4.00132848251301e-001

1.14869835499703e+004,-2.00904773021289e+001,-4.05718457660118e-001

1.16473358646846e+004,-2.00904791830239e+001,-4.11382037699750e-001

1.18099266142953e+004,-2.00904811167968e+001,-4.17124676732615e-001

1.19747870461893e+004,-2.00904831049341e+001,-4.22947478310807e-001

1.21419488439505e+004,-2.00904851489638e+001,-4.28851561390988e-001

1.23114441334492e+004,-2.00904872504574e+001,-4.34838060543945e-001

1.24833054890161e+004,-2.00904894110305e+001,-4.40908126176143e-001

1.26575659397028e+004,-2.00904916323437e+001,-4.47062924750538e-001

1.28342589756290e+004,-2.00904939161046e+001,-4.53303639009472e-001

1.30134185544193e+004,-2.00904962640687e+001,-4.59631468201315e-001

1.31950791077289e+004,-2.00904986780410e+001,-4.66047628312426e-001

1.33792755478611e+004,-2.00905011598771e+001,-4.72553352299765e-001

1.35660432744767e+004,-2.00905037114846e+001,-4.79149890327348e-001

1.37554181813974e+004,-2.00905063348252e+001,-4.85838510005610e-001

1.39474366635040e+004,-2.00905090319152e+001,-4.92620496637883e-001

1.41421356237309e+004,-2.00905118048280e+001,-4.99497153462789e-001

1.43395524801583e+004,-2.00905146556949e+001,-5.06469801908038e-001

1.45397251732031e+004,-2.00905175867076e+001,-5.13539781841642e-001

1.47426921729110e+004,-2.00905206001189e+001,-5.20708451831577e-001

1.49484924863494e+004,-2.00905236982452e+001,-5.27977189404256e-001

1.51571656651040e+004,-2.00905268834680e+001,-5.35347391309365e-001

1.53687518128801e+004,-2.00905301582357e+001,-5.42820473789562e-001

1.55832915932100e+004,-2.00905335250656e+001,-5.50397872851193e-001

1.58008262372675e+004,-2.00905369865455e+001,-5.58081044539344e-001

1.60213975517924e+004,-2.00905405453362e+001,-5.65871465218534e-001

1.62450479271247e+004,-2.00905442041734e+001,-5.73770631855057e-001

1.64718203453514e+004,-2.00905479658692e+001,-5.81780062304918e-001

1.67017583885674e+004,-2.00905518333153e+001,-5.89901295605073e-001

1.69349062472505e+004,-2.00905558094844e+001,-5.98135892268087e-001

1.71713087287550e+004,-2.00905598974327e+001,-6.06485434582680e-001

1.74110112659224e+004,-2.00905641003024e+001,-6.14951526917080e-001

1.76540599258131e+004,-2.00905684213241e+001,-6.23535796025852e-001

1.79005014185594e+004,-2.00905728638191e+001,-6.32239891362258e-001

1.81503831063432e+004,-2.00905774312019e+001,-6.41065485396711e-001

1.84037530124975e+004,-2.00905821269834e+001,-6.50014273935475e-001

1.86606598307361e+004,-2.00905869547727e+001,-6.59087976446025e-001

1.89211529345119e+004,-2.00905919182808e+001,-6.68288336388379e-001

1.91852823865052e+004,-2.00905970213225e+001,-6.77617121548637e-001

1.94530989482457e+004,-2.00906022678202e+001,-6.87076124377826e-001

1.97246540898671e+004,-2.00906076618065e+001,-6.96667162335779e-001

1.99999999999999e+004,-2.00906132074272e+001,-7.06392078240600e-001

2.02791895958005e+004,-2.00906189089446e+001,-7.16252740620943e-001

2.05622765331213e+004,-2.00906247707410e+001,-7.26251044075319e-001

2.08493152168224e+004,-2.00906307973217e+001,-7.36388909633667e-001

2.11403608112276e+004,-2.00906369933187e+001,-7.46668285128450e-001

2.14354692507258e+004,-2.00906433634941e+001,-7.57091145565398e-001

2.17346972505211e+004,-2.00906499127437e+001,-7.67659493504862e-001

2.20381023175322e+004,-2.00906566461015e+001,-7.78375359442019e-001

2.23457427614443e+004,-2.00906635687423e+001,-7.89240802200323e-001

2.26576777059159e+004,-2.00906706859864e+001,-8.00257909323486e-001

2.29739670999406e+004,-2.00906780033041e+001,-8.11428797476118e-001

2.32946717293690e+004,-2.00906855263190e+001,-8.22755612848864e-001

2.36198532285905e+004,-2.00906932608127e+001,-8.34240531572040e-001

2.39495740923785e+004,-2.00907012127297e+001,-8.45885760129659e-001

2.42838976879009e+004,-2.00907093881812e+001,-8.57693535783366e-001

2.46228882668982e+004,-2.00907177934501e+001,-8.69666127002013e-001

2.49666109780322e+004,-2.00907264349961e+001,-8.81805833894985e-001

2.53151318794055e+004,-2.00907353194603e+001,-8.94114988653388e-001

2.56685179512580e+004,-2.00907444536705e+001,-9.06595955996115e-001

2.60268371088386e+004,-2.00907538446461e+001,-9.19251133624218e-001

2.63901582154578e+004,-2.00907634996040e+001,-9.32082952678596e-001

2.67585510957221e+004,-2.00907734259637e+001,-9.45093878205878e-001

2.71320865489533e+004,-2.00907836313536e+001,-9.58286409630316e-001

2.75108363627948e+004,-2.00907941236160e+001,-9.71663081233037e-001

2.78948733270080e+004,-2.00908049108135e+001,-9.85226462636640e-001

2.82842712474618e+004,-2.00908160012358e+001,-9.98979159296357e-001

2.86791049603164e+004,-2.00908274034048e+001,-1.01292381300042e+000

2.90794503464061e+004,-2.00908391260825e+001,-1.02706310237359e+000

2.94853843458219e+004,-2.00908511782766e+001,-1.04139974339048e+000

2.98969849726987e+004,-2.00908635692480e+001,-1.05593648989667e+000

3.03143313302078e+004,-2.00908763085179e+001,-1.07067613413215e+000

3.07375036257601e+004,-2.00908894058751e+001,-1.08562150726828e+000

3.11665831864199e+004,-2.00909028713831e+001,-1.10077547994866e+000

3.16016524745350e+004,-2.00909167153881e+001,-1.11614096283697e+000

3.20427951035848e+004,-2.00909309485274e+001,-1.13172090717356e+000

3.24900958542493e+004,-2.00909455817367e+001,-1.14751830534109e+000

3.29436406907028e+004,-2.00909606262592e+001,-1.16353619143451e+000

3.34035167771346e+004,-2.00909760936536e+001,-1.17977764184240e+000

3.38698124945009e+004,-2.00909919958035e+001,-1.19624577583389e+000

3.43426174575100e+004,-2.00910083449265e+001,-1.21294375615445e+000

3.48220225318448e+004,-2.00910251535830e+001,-1.22987478963091e+000

3.53081198516260e+004,-2.00910424346863e+001,-1.24704212778262e+000

3.58010028371187e+004,-2.00910602015127e+001,-1.26444906744325e+000

3.63007662126863e+004,-2.00910784677111e+001,-1.28209895138920e+000

3.68075060249948e+004,-2.00910972473138e+001,-1.29999516897869e+000

3.73213196614721e+004,-2.00911165547472e+001,-1.31814115679823e+000

3.78423058690237e+004,-2.00911364048430e+001,-1.33654039931769e+000

3.83705647730104e+004,-2.00911568128494e+001,-1.35519642955465e+000

3.89061978964912e+004,-2.00911777944426e+001,-1.37411282974973e+000

3.94493081797342e+004,-2.00911993657393e+001,-1.39329323204863e+000

3.99999999999998e+004,-2.00912215433086e+001,-1.41274131919391e+000

4.05583791916010e+004,-2.00912443441850e+001,-1.43246082522787e+000

4.11245530662425e+004,-2.00912677858812e+001,-1.45245553620343e+000

4.16986304336447e+004,-2.00912918864017e+001,-1.47272929090587e+000

4.22807216224550e+004,-2.00913166642565e+001,-1.49328598158356e+000

4.28709385014515e+004,-2.00913421384755e+001,-1.51412955468750e+000

4.34693945010421e+004,-2.00913683286225e+001,-1.53526401162591e+000

4.40762046350642e+004,-2.00913952548108e+001,-1.55669340952231e+000

4.46914855228886e+004,-2.00914229377184e+001,-1.57842186198900e+000

4.53153554118317e+004,-2.00914513986034e+001,-1.60045353990967e+000

4.59479341998812e+004,-2.00914806593213e+001,-1.62279267223051e+000

4.65893434587380e+004,-2.00915107423405e+001,-1.64544354676619e+000

4.72397064571810e+004,-2.00915416707603e+001,-1.66841051101361e+000

4.78991481847569e+004,-2.00915734683282e+001,-1.69169797297712e+000

4.85677953758016e+004,-2.00916061594585e+001,-1.71531040200642e+000

4.92457765337964e+004,-2.00916397692504e+001,-1.73925232964455e+000

4.99332219560642e+004,-2.00916743235076e+001,-1.76352835048791e+000

5.06302637588109e+004,-2.00917098487577e+001,-1.78814312305756e+000

5.13370359025159e+004,-2.00917463722732e+001,-1.81310137068217e+000

5.20536742176771e+004,-2.00917839220912e+001,-1.83840788239473e+000

5.27803164309155e+004,-2.00918225270360e+001,-1.86406751383783e+000

5.35171021914442e+004,-2.00918622167400e+001,-1.89008518818543e+000

5.42641730979066e+004,-2.00919030216677e+001,-1.91646589707257e+000

5.50216727255895e+004,-2.00919449731376e+001,-1.94321470154255e+000

5.57897466540159e+004,-2.00919881033468e+001,-1.97033673300190e+000

5.65685424949235e+004,-2.00920324453958e+001,-1.99783719419210e+000

5.73582099206328e+004,-2.00920780333132e+001,-2.02572136017130e+000

5.81589006928121e+004,-2.00921249020821e+001,-2.05399457931280e+000

5.89707686916437e+004,-2.00921730876666e+001,-2.08266227431278e+000

5.97939699453972e+004,-2.00922226270394e+001,-2.11172994321460e+000

6.06286626604156e+004,-2.00922735582096e+001,-2.14120316044571e+000

6.14750072515201e+004,-2.00923259202524e+001,-2.17108757786778e+000

6.23331663728396e+004,-2.00923797533383e+001,-2.20138892584260e+000

6.32033049490698e+004,-2.00924350987638e+001,-2.23211301431008e+000

6.40855902071694e+004,-2.00924919989832e+001,-2.26326573388199e+000

6.49801917084985e+004,-2.00925504976406e+001,-2.29485305694988e+000

6.58872813814055e+004,-2.00926106396033e+001,-2.32688103880775e+000

6.68070335542691e+004,-2.00926724709962e+001,-2.35935581878891e+000

6.77396249890018e+004,-2.00927360392362e+001,-2.39228362141932e+000

6.86852349150199e+004,-2.00928013930692e+001,-2.42567075758433e+000

6.96440450636895e+004,-2.00928685826065e+001,-2.45952362571296e+000

7.06162397032520e+004,-2.00929376593635e+001,-2.49384871297463e+000

7.16020056742374e+004,-2.00930086762983e+001,-2.52865259649577e+000

7.26015324253724e+004,-2.00930816878523e+001,-2.56394194458894e+000

7.36150120499896e+004,-2.00931567499916e+001,-2.59972351799892e+000

7.46426393229441e+004,-2.00932339202493e+001,-2.63600417116642e+000

7.56846117380472e+004,-2.00933132577697e+001,-2.67279085350627e+000

7.67411295460207e+004,-2.00933948233523e+001,-2.71009061070425e+000

7.78123957929823e+004,-2.00934786794990e+001,-2.74791058602911e+000

7.88986163594682e+004,-2.00935648904608e+001,-2.78625802166152e+000

7.99999999999995e+004,-2.00936535222869e+001,-2.82514026004254e+000

8.11167583832018e+004,-2.00937446428745e+001,-2.86456474523687e+000

8.22491061324848e+004,-2.00938383220206e+001,-2.90453902431433e+000

8.33972608672892e+004,-2.00939346314747e+001,-2.94507074875000e+000

8.45614432449099e+004,-2.00940336449928e+001,-2.98616767584153e+000

8.57418770029029e+004,-2.00941354383941e+001,-3.02783767014456e+000

8.69387890020841e+004,-2.00942400896174e+001,-3.07008870492654e+000

8.81524092701283e+004,-2.00943476787809e+001,-3.11292886363906e+000

8.93829710457770e+004,-2.00944582882420e+001,-3.15636634140879e+000

9.06307108236633e+004,-2.00945720026601e+001,-3.20040944654777e+000

9.18958683997622e+004,-2.00946889090604e+001,-3.24506660208124e+000

9.31786869174758e+004,-2.00948090968993e+001,-3.29034634729626e+000

9.44794129143618e+004,-2.00949326581325e+001,-3.33625733930942e+000

9.57982963695136e+004,-2.00950596872837e+001,-3.38280835465290e+000

9.71355907516031e+004,-2.00951902815162e+001,-3.43000829088199e+000

9.84915530675926e+004,-2.00953245407063e+001,-3.47786616820092e+000

9.98664439121282e+004,-2.00954625675177e+001,-3.52639113111035e+000

1.01260527517622e+005,-2.00956044674798e+001,-3.57559245007327e+000

1.02674071805032e+005,-2.00957503490662e+001,-3.62547952320308e+000

1.04107348435354e+005,-2.00959003237768e+001,-3.67606187797122e+000

1.05560632861831e+005,-2.00960545062211e+001,-3.72734917293572e+000

1.07034204382888e+005,-2.00962130142045e+001,-3.77935119949108e+000

1.08528346195813e+005,-2.00963759688166e+001,-3.83207788363843e+000

1.10043345451179e+005,-2.00965434945221e+001,-3.88553928777758e+000

1.11579493308032e+005,-2.00967157192534e+001,-3.93974561252083e+000

1.13137084989847e+005,-2.00968927745073e+001,-3.99470719852650e+000

1.14716419841265e+005,-2.00970747954427e+001,-4.05043452835664e+000

1.16317801385624e+005,-2.00972619209817e+001,-4.10693822835419e+000

1.17941537383287e+005,-2.00974542939136e+001,-4.16422907054439e+000

1.19587939890794e+005,-2.00976520610010e+001,-4.22231797455561e+000

1.21257325320831e+005,-2.00978553730897e+001,-4.28121600956529e+000

1.22950014503040e+005,-2.00980643852207e+001,-4.34093439626556e+000

1.24666332745679e+005,-2.00982792567457e+001,-4.40148450885355e+000

1.26406609898139e+005,-2.00985001514456e+001,-4.46287787704233e+000

1.28171180414339e+005,-2.00987272376521e+001,-4.52512618809568e+000

1.29960383416997e+005,-2.00989606883728e+001,-4.58824128888572e+000

1.31774562762811e+005,-2.00992006814193e+001,-4.65223518797232e+000

1.33614067108538e+005,-2.00994473995387e+001,-4.71712005770668e+000

1.35479249978003e+005,-2.00997010305491e+001,-4.78290823635678e+000

1.37370469830040e+005,-2.00999617674786e+001,-4.84961223025696e+000

1.39288090127379e+005,-2.01002298087073e+001,-4.91724471597925e+000

1.41232479406504e+005,-2.01005053581137e+001,-4.98581854252978e+000

1.43204011348474e+005,-2.01007886252252e+001,-5.05534673356597e+000

1.45203064850745e+005,-2.01010798253721e+001,-5.12584248963941e+000

1.47230024099979e+005,-2.01013791798453e+001,-5.19731919045998e+000

1.49285278645888e+005,-2.01016869160595e+001,-5.26979039718404e+000

1.51369223476094e+005,-2.01020032677195e+001,-5.34326985472623e+000

1.53482259092041e+005,-2.01023284749911e+001,-5.41777149409341e+000

1.55624791585964e+005,-2.01026627846766e+001,-5.49330943474294e+000

1.57797232718936e+005,-2.01030064503955e+001,-5.56989798696239e+000

1.59999999999999e+005,-2.01033597327685e+001,-5.64755165427463e+000

1.62233516766403e+005,-2.01037228996080e+001,-5.72628513586335e+000

1.64498212264969e+005,-2.01040962261119e+001,-5.80611332902341e+000

1.66794521734578e+005,-2.01044799950638e+001,-5.88705133163265e+000

1.69122886489819e+005,-2.01048744970376e+001,-5.96911444464689e+000

1.71483754005805e+005,-2.01052800306076e+001,-6.05231817461684e+000

1.73877578004168e+005,-2.01056969025641e+001,-6.13667823622786e+000

1.76304818540256e+005,-2.01061254281343e+001,-6.22221055486211e+000

1.78765942091554e+005,-2.01065659312090e+001,-6.30893126918045e+000

1.81261421647326e+005,-2.01070187445756e+001,-6.39685673372885e+000

1.83791736799524e+005,-2.01074842101560e+001,-6.48600352156381e+000

1.86357373834951e+005,-2.01079626792511e+001,-6.57638842690019e+000

1.88958825828723e+005,-2.01084545127922e+001,-6.66802846777901e+000

1.91596592739027e+005,-2.01089600815972e+001,-6.76094088875597e+000

1.94271181503206e+005,-2.01094797666347e+001,-6.85514316360988e+000

1.96983106135185e+005,-2.01100139592940e+001,-6.95065299807150e+000

1.99732887824256e+005,-2.01105630616621e+001,-7.04748833256929e+000

2.02521055035243e+005,-2.01111274868071e+001,-7.14566734499727e+000

2.05348143610063e+005,-2.01117076590699e+001,-7.24520845349840e+000

2.08214696870707e+005,-2.01123040143616e+001,-7.34613031926658e+000

2.11121265723661e+005,-2.01129170004693e+001,-7.44845184936645e+000

2.14068408765776e+005,-2.01135470773688e+001,-7.55219219956914e+000

2.17056692391625e+005,-2.01141947175458e+001,-7.65737077720397e+000

2.20086690902357e+005,-2.01148604063236e+001,-7.76400724402562e+000

2.23158986616063e+005,-2.01155446422001e+001,-7.87212151909628e+000

2.26274169979693e+005,-2.01162479371924e+001,-7.98173378168096e+000

2.29432839682530e+005,-2.01169708171893e+001,-8.09286447415625e+000

2.32635602771247e+005,-2.01177138223129e+001,-8.20553430493160e+000

2.35883074766574e+005,-2.01184775072887e+001,-8.31976425138113e+000

2.39175879781588e+005,-2.01192624418239e+001,-8.43557556278704e+000

2.42514650641661e+005,-2.01200692109956e+001,-8.55298976329165e+000

2.45900029006080e+005,-2.01208984156474e+001,-8.67202865485792e+000

2.49332665491357e+005,-2.01217506727953e+001,-8.79271432023799e+000

2.52813219796278e+005,-2.01226266160437e+001,-8.91506912594726e+000

2.56342360828676e+005,-2.01235268960101e+001,-9.03911572524415e+000

2.59920766833993e+005,-2.01244521807600e+001,-9.16487706111331e+000

2.63549125525621e+005,-2.01254031562522e+001,-9.29237636925157e+000

2.67228134217075e+005,-2.01263805267932e+001,-9.42163718105500e+000

2.70958499956006e+005,-2.01273850155027e+001,-9.55268332660620e+000

2.74740939660078e+005,-2.01284173647893e+001,-9.68553893765926e+000

2.78576180254757e+005,-2.01294783368360e+001,-9.82022845062209e+000

2.82464958813007e+005,-2.01305687140982e+001,-9.95677660953373e+000

2.86408022696948e+005,-2.01316892998105e+001,-1.00952084690350e+001

2.90406129701488e+005,-2.01328409185063e+001,-1.02355493973319e+001

2.94460048199957e+005,-2.01340244165473e+001,-1.03778250791470e+001

2.98570557291775e+005,-2.01352406626654e+001,-1.05220615186617e+001

3.02738446952187e+005,-2.01364905485149e+001,-1.06682850424426e+001

3.06964518184081e+005,-2.01377749892379e+001,-1.08165223023521e+001

3.11249583171928e+005,-2.01390949240397e+001,-1.09668002784425e+001

3.15594465437872e+005,-2.01404513167776e+001,-1.11191462818289e+001

3.19999999999997e+005,-2.01418451565608e+001,-1.12735879575394e+001

3.24467033532806e+005,-2.01432774583627e+001,-1.14301532873416e+001

3.28996424529938e+005,-2.01447492636456e+001,-1.15888705925414e+001

3.33589043469155e+005,-2.01462616409978e+001,-1.17497685367518e+001

3.38245772979638e+005,-2.01478156867825e+001,-1.19128761286305e+001

3.42967508011610e+005,-2.01494125258006e+001,-1.20782227245815e+001

3.47755156008335e+005,-2.01510533119646e+001,-1.22458380314196e+001

3.52609637080511e+005,-2.01527392289864e+001,-1.24157521089942e+001

3.57531884183106e+005,-2.01544714910775e+001,-1.25879953727704e+001

3.62522843294651e+005,-2.01562513436618e+001,-1.27625985963620e+001

3.67583473599047e+005,-2.01580800641015e+001,-1.29395929140165e+001

3.72714747669902e+005,-2.01599589624365e+001,-1.31190098230464e+001

3.77917651657445e+005,-2.01618893821358e+001,-1.33008811862049e+001

3.83193185478053e+005,-2.01638727008623e+001,-1.34852392340014e+001

3.88542363006410e+005,-2.01659103312510e+001,-1.36721165669546e+001

3.93966212270369e+005,-2.01680037216996e+001,-1.38615461577793e+001

3.99465775648511e+005,-2.01701543571723e+001,-1.40535613535018e+001

4.05042110070485e+005,-2.01723637600163e+001,-1.42481958775021e+001

4.10696287220124e+005,-2.01746334907918e+001,-1.44454838314783e+001

4.16429393741414e+005,-2.01769651491135e+001,-1.46454596973286e+001

4.22242531447321e+005,-2.01793603745064e+001,-1.48481583389478e+001

4.28136817531551e+005,-2.01818208472727e+001,-1.50536150039333e+001

4.34113384783250e+005,-2.01843482893721e+001,-1.52618653251975e+001

4.40173381804713e+005,-2.01869444653138e+001,-1.54729453224802e+001

4.46317973232124e+005,-2.01896111830609e+001,-1.56868914037601e+001

4.52548339959385e+005,-2.01923502949469e+001,-1.59037403665561e+001

4.58865679365059e+005,-2.01951636986035e+001,-1.61235293991183e+001

4.65271205542494e+005,-2.01980533378998e+001,-1.63462960815017e+001

4.71766149533147e+005,-2.02010212038931e+001,-1.65720783865169e+001

4.78351759563174e+005,-2.02040693357906e+001,-1.68009146805567e+001

4.85029301283321e+005,-2.02071998219210e+001,-1.70328437242887e+001

4.91800058012158e+005,-2.02104148007172e+001,-1.72679046732128e+001

4.98665330982714e+005,-2.02137164617084e+001,-1.75061370780761e+001

5.05626439592555e+005,-2.02171070465215e+001,-1.77475808851425e+001

5.12684721657352e+005,-2.02205888498917e+001,-1.79922764363075e+001

5.19841533667984e+005,-2.02241642206822e+001,-1.82402644690583e+001

5.27098251051240e+005,-2.02278355629105e+001,-1.84915861162688e+001

5.34456268434150e+005,-2.02316053367839e+001,-1.87462829058277e+001

5.41916999912011e+005,-2.02354760597405e+001,-1.90043967600911e+001

