Freq.,VOut,OutRef

1.00000000000000e+004,-1.59713479975259e+001,-1.27236572018692e-001

1.01395947979003e+004,-1.59713482165050e+001,-1.29012722235558e-001

1.02811382665607e+004,-1.59713484416403e+001,-1.30813666324061e-001

1.04246576084112e+004,-1.59713486731044e+001,-1.32639750384665e-001

1.05701804056138e+004,-1.59713489110756e+001,-1.34491325344936e-001

1.07177346253629e+004,-1.59713491557367e+001,-1.36368747033268e-001

1.08673486252606e+004,-1.59713494072757e+001,-1.38272376243504e-001

1.10190511587661e+004,-1.59713496658861e+001,-1.40202578806646e-001

1.11728713807222e+004,-1.59713499317665e+001,-1.42159725658984e-001

1.13288388529580e+004,-1.59713502051213e+001,-1.44144192914647e-001

1.14869835499703e+004,-1.59713504861606e+001,-1.46156361937311e-001

1.16473358646846e+004,-1.59713507751008e+001,-1.48196619412574e-001

1.18099266142953e+004,-1.59713510721633e+001,-1.50265357427556e-001

1.19747870461893e+004,-1.59713513775770e+001,-1.52362973535402e-001

1.21419488439505e+004,-1.59713516915763e+001,-1.54489870844435e-001

1.23114441334492e+004,-1.59713520144026e+001,-1.56646458086406e-001

1.24833054890161e+004,-1.59713523463042e+001,-1.58833149697222e-001

1.26575659397028e+004,-1.59713526875361e+001,-1.61050365898509e-001

1.28342589756290e+004,-1.59713530383605e+001,-1.63298532778167e-001

1.30134185544193e+004,-1.59713533990471e+001,-1.65578082369327e-001

1.31950791077289e+004,-1.59713537698731e+001,-1.67889452736027e-001

1.33792755478611e+004,-1.59713541511235e+001,-1.70233088055998e-001

1.35660432744767e+004,-1.59713545430915e+001,-1.72609438706243e-001

1.37554181813974e+004,-1.59713549460780e+001,-1.75018961352235e-001

1.39474366635040e+004,-1.59713553603930e+001,-1.77462119029663e-001

1.41421356237309e+004,-1.59713557863547e+001,-1.79939381239264e-001

1.43395524801583e+004,-1.59713562242906e+001,-1.82451224033991e-001

1.45397251732031e+004,-1.59713566745374e+001,-1.84998130109061e-001

1.47426921729110e+004,-1.59713571374410e+001,-1.87580588899616e-001

1.49484924863494e+004,-1.59713576133570e+001,-1.90199096671279e-001

1.51571656651040e+004,-1.59713581026515e+001,-1.92854156613038e-001

1.53687518128801e+004,-1.59713586057003e+001,-1.95546278939895e-001

1.55832915932100e+004,-1.59713591228900e+001,-1.98275980986823e-001

1.58008262372675e+004,-1.59713596546180e+001,-2.01043787308263e-001

1.60213975517924e+004,-1.59713602012930e+001,-2.03850229780109e-001

1.62450479271247e+004,-1.59713607633353e+001,-2.06695847699762e-001

1.64718203453514e+004,-1.59713613411766e+001,-2.09581187893761e-001

1.67017583885674e+004,-1.59713619352609e+001,-2.12506804819442e-001

1.69349062472505e+004,-1.59713625460449e+001,-2.15473260670000e-001

1.71713087287550e+004,-1.59713631739978e+001,-2.18481125487482e-001

1.74110112659224e+004,-1.59713638196023e+001,-2.21530977266586e-001

1.76540599258131e+004,-1.59713644833543e+001,-2.24623402070887e-001

1.79005014185594e+004,-1.59713651657641e+001,-2.27758994140699e-001

1.81503831063432e+004,-1.59713658673558e+001,-2.30938356011572e-001

1.84037530124975e+004,-1.59713665886688e+001,-2.34162098624570e-001

1.86606598307361e+004,-1.59713673302571e+001,-2.37430841449703e-001

1.89211529345119e+004,-1.59713680926906e+001,-2.40745212600036e-001

1.91852823865052e+004,-1.59713688765551e+001,-2.44105848953804e-001

1.94530989482457e+004,-1.59713696824529e+001,-2.47513396278043e-001

1.97246540898671e+004,-1.59713705110032e+001,-2.50968509349758e-001

1.99999999999999e+004,-1.59713713628427e+001,-2.54471852084265e-001

2.02791895958005e+004,-1.59713722386258e+001,-2.58024097661601e-001

2.05622765331213e+004,-1.59713731390254e+001,-2.61625928653948e-001

2.08493152168224e+004,-1.59713740647332e+001,-2.65278037160391e-001

2.11403608112276e+004,-1.59713750164604e+001,-2.68981124936870e-001

2.14354692507258e+004,-1.59713759949382e+001,-2.72735903530705e-001

2.17346972505211e+004,-1.59713770009185e+001,-2.76543094418181e-001

2.20381023175322e+004,-1.59713780351740e+001,-2.80403429143472e-001

2.23457427614443e+004,-1.59713790984990e+001,-2.84317649459140e-001

2.26576777059159e+004,-1.59713801917107e+001,-2.88286507464825e-001

2.29739670999406e+004,-1.59713813156487e+001,-2.92310765756520e-001

2.32946717293690e+004,-1.59713824711765e+001,-2.96391197570051e-001

2.36198532285905e+004,-1.59713836591816e+001,-3.00528586929814e-001

2.39495740923785e+004,-1.59713848805767e+001,-3.04723728799895e-001

2.42838976879009e+004,-1.59713861362999e+001,-3.08977429234387e-001

2.46228882668982e+004,-1.59713874273156e+001,-3.13290505536025e-001

2.49666109780322e+004,-1.59713887546156e+001,-3.17663786408389e-001

2.53151318794055e+004,-1.59713901192192e+001,-3.22098112117796e-001

2.56685179512580e+004,-1.59713915221747e+001,-3.26594334652669e-001

2.60268371088386e+004,-1.59713929645593e+001,-3.31153317890026e-001

2.63901582154578e+004,-1.59713944474811e+001,-3.35775937755304e-001

2.67585510957221e+004,-1.59713959720786e+001,-3.40463082397368e-001

2.71320865489533e+004,-1.59713975395229e+001,-3.45215652352667e-001

2.75108363627948e+004,-1.59713991510176e+001,-3.50034560721685e-001

2.78948733270080e+004,-1.59714008078002e+001,-3.54920733342461e-001

2.82842712474618e+004,-1.59714025111429e+001,-3.59875108968515e-001

2.86791049603164e+004,-1.59714042623536e+001,-3.64898639447315e-001

2.90794503464061e+004,-1.59714060627770e+001,-3.69992289905431e-001

2.94853843458219e+004,-1.59714079137955e+001,-3.75157038930556e-001

2.98969849726987e+004,-1.59714098168303e+001,-3.80393878761965e-001

3.03143313302078e+004,-1.59714117733424e+001,-3.85703815476940e-001

3.07375036257601e+004,-1.59714137848339e+001,-3.91087869187876e-001

3.11665831864199e+004,-1.59714158528490e+001,-3.96547074233779e-001

3.16016524745350e+004,-1.59714179789752e+001,-4.02082479379740e-001

3.20427951035848e+004,-1.59714201648449e+001,-4.07695148018870e-001

3.24900958542493e+004,-1.59714224121356e+001,-4.13386158375597e-001

3.29436406907028e+004,-1.59714247225724e+001,-4.19156603710329e-001

3.34035167771346e+004,-1.59714270979288e+001,-4.25007592530294e-001

3.38698124945009e+004,-1.59714295400275e+001,-4.30940248803082e-001

3.43426174575100e+004,-1.59714320507432e+001,-4.36955712167389e-001

3.48220225318448e+004,-1.59714346320025e+001,-4.43055138156290e-001

3.53081198516260e+004,-1.59714372857862e+001,-4.49239698415633e-001

3.58010028371187e+004,-1.59714400141308e+001,-4.55510580927354e-001

3.63007662126863e+004,-1.59714428191298e+001,-4.61868990239101e-001

3.68075060249948e+004,-1.59714457029352e+001,-4.68316147694237e-001

3.73213196614721e+004,-1.59714486677598e+001,-4.74853291663481e-001

3.78423058690237e+004,-1.59714517158781e+001,-4.81481677783465e-001

3.83705647730104e+004,-1.59714548496284e+001,-4.88202579197308e-001

3.89061978964912e+004,-1.59714580714146e+001,-4.95017286796378e-001

3.94493081797342e+004,-1.59714613837082e+001,-5.01927109467654e-001

3.99999999999998e+004,-1.59714647890494e+001,-5.08933374344856e-001

4.05583791916010e+004,-1.59714682900502e+001,-5.16037427061900e-001

4.11245530662425e+004,-1.59714718893954e+001,-5.23240632007301e-001

4.16986304336447e+004,-1.59714755898452e+001,-5.30544372589899e-001

4.22807216224550e+004,-1.59714793942371e+001,-5.37950051498047e-001

4.28709385014515e+004,-1.59714833054882e+001,-5.45459090970385e-001

4.34693945010421e+004,-1.59714873265969e+001,-5.53072933067972e-001

4.40762046350642e+004,-1.59714914606461e+001,-5.60793039946388e-001

4.46914855228886e+004,-1.59714957108050e+001,-5.68620894137704e-001

4.53153554118317e+004,-1.59715000803310e+001,-5.76557998833616e-001

4.59479341998812e+004,-1.59715045725732e+001,-5.84605878169416e-001

4.65893434587380e+004,-1.59715091909745e+001,-5.92766077518344e-001

4.72397064571810e+004,-1.59715139390738e+001,-6.01040163782966e-001

4.78991481847569e+004,-1.59715188205094e+001,-6.09429725696789e-001

4.85677953758016e+004,-1.59715238390213e+001,-6.17936374124904e-001

4.92457765337964e+004,-1.59715289984541e+001,-6.26561742373361e-001

4.99332219560642e+004,-1.59715343027601e+001,-6.35307486497809e-001

5.06302637588109e+004,-1.59715397560020e+001,-6.44175285621298e-001

5.13370359025159e+004,-1.59715453623563e+001,-6.53166842252675e-001

5.20536742176771e+004,-1.59715511261162e+001,-6.62283882611866e-001

5.27803164309155e+004,-1.59715570516951e+001,-6.71528156956893e-001

5.35171021914442e+004,-1.59715631436295e+001,-6.80901439919019e-001

5.42641730979066e+004,-1.59715694065830e+001,-6.90405530839391e-001

5.50216727255895e+004,-1.59715758453495e+001,-7.00042254110089e-001

5.57897466540159e+004,-1.59715824648568e+001,-7.09813459523759e-001

5.65685424949235e+004,-1.59715892701704e+001,-7.19721022623146e-001

5.73582099206328e+004,-1.59715962664973e+001,-7.29766845059310e-001

5.81589006928121e+004,-1.59716034591901e+001,-7.39952854950342e-001

5.89707686916437e+004,-1.59716108537506e+001,-7.50281007249952e-001

5.97939699453972e+004,-1.59716184558345e+001,-7.60753284118149e-001

6.06286626604156e+004,-1.59716262712551e+001,-7.71371695296763e-001

6.14750072515201e+004,-1.59716343059883e+001,-7.82138278491279e-001

6.23331663728396e+004,-1.59716425661763e+001,-7.93055099758114e-001

6.32033049490698e+004,-1.59716510581331e+001,-8.04124253893852e-001

6.40855902071694e+004,-1.59716597883486e+001,-8.15347864835115e-001

6.49801917084985e+004,-1.59716687634936e+001,-8.26728086060413e-001

6.58872813814055e+004,-1.59716779904252e+001,-8.38267100995971e-001

6.68070335542691e+004,-1.59716874761912e+001,-8.49967123432030e-001

6.77396249890018e+004,-1.59716972280361e+001,-8.61830397938610e-001

6.86852349150199e+004,-1.59717072534062e+001,-8.73859200293429e-001

6.96440450636895e+004,-1.59717175599552e+001,-8.86055837909492e-001

7.06162397032520e+004,-1.59717281555497e+001,-8.98422650272067e-001

7.16020056742374e+004,-1.59717390482756e+001,-9.10962009382204e-001

7.26015324253724e+004,-1.59717502464436e+001,-9.23676320200997e-001

7.36150120499896e+004,-1.59717617585957e+001,-9.36568021107319e-001

7.46426393229441e+004,-1.59717735935116e+001,-9.49639584354856e-001

7.56846117380472e+004,-1.59717857602149e+001,-9.62893516539608e-001

7.67411295460207e+004,-1.59717982679803e+001,-9.76332359072115e-001

7.78123957929823e+004,-1.59718111263401e+001,-9.89958688655583e-001

7.88986163594682e+004,-1.59718243450911e+001,-1.00377511777138e+000

7.99999999999995e+004,-1.59718379343027e+001,-1.01778429517000e+000

8.11167583832018e+004,-1.59718519043235e+001,-1.03198890636840e+000

8.22491061324848e+004,-1.59718662657893e+001,-1.04639167415705e+000

8.33972608672892e+004,-1.59718810296310e+001,-1.06099535910777e+000

8.45614432449099e+004,-1.59718962070825e+001,-1.07580276009430e+000

8.57418770029029e+004,-1.59719118096892e+001,-1.09081671481590e+000

8.69387890020841e+004,-1.59719278493164e+001,-1.10604010032986e+000

8.81524092701283e+004,-1.59719443381580e+001,-1.12147583358905e+000

8.93829710457770e+004,-1.59719612887454e+001,-1.13712687198972e+000

9.06307108236633e+004,-1.59719787139569e+001,-1.15299621392202e+000

9.18958683997622e+004,-1.59719966270269e+001,-1.16908689933282e+000

9.31786869174758e+004,-1.59720150415558e+001,-1.18540201029146e+000

9.44794129143618e+004,-1.59720339715198e+001,-1.20194467156527e+000

9.57982963695136e+004,-1.59720534312811e+001,-1.21871805120214e+000

9.71355907516031e+004,-1.59720734355985e+001,-1.23572536112033e+000

9.84915530675926e+004,-1.59720939996380e+001,-1.25296985770734e+000

9.98664439121282e+004,-1.59721151389838e+001,-1.27045484242300e+000

1.01260527517622e+005,-1.59721368696496e+001,-1.28818366241544e+000

1.02674071805032e+005,-1.59721592080906e+001,-1.30615971113962e+000

1.04107348435354e+005,-1.59721821712146e+001,-1.32438642898947e+000

1.05560632861831e+005,-1.59722057763950e+001,-1.34286730393262e+000

1.07034204382888e+005,-1.59722300414827e+001,-1.36160587215661e+000

1.08528346195813e+005,-1.59722549848193e+001,-1.38060571872334e+000

1.10043345451179e+005,-1.59722806252502e+001,-1.39987047823038e+000

1.11579493308032e+005,-1.59723069821380e+001,-1.41940383548103e+000

1.13137084989847e+005,-1.59723340753765e+001,-1.43920952616422e+000

1.14716419841265e+005,-1.59723619254044e+001,-1.45929133754138e+000

1.16317801385624e+005,-1.59723905532207e+001,-1.47965310914337e+000

1.17941537383287e+005,-1.59724199803989e+001,-1.50029873347412e+000

1.19587939890794e+005,-1.59724502291023e+001,-1.52123215672583e+000

1.21257325320831e+005,-1.59724813221002e+001,-1.54245737950100e+000

1.22950014503040e+005,-1.59725132827835e+001,-1.56397845754449e+000

1.24666332745679e+005,-1.59725461351813e+001,-1.58579950248416e+000

1.26406609898139e+005,-1.59725799039777e+001,-1.60792468258144e+000

1.28171180414339e+005,-1.59726146145290e+001,-1.63035822349003e+000

1.29960383416997e+005,-1.59726502928817e+001,-1.65310440902483e+000

1.31774562762811e+005,-1.59726869657902e+001,-1.67616758194027e+000

1.33614067108538e+005,-1.59727246607358e+001,-1.69955214471824e+000

1.35479249978003e+005,-1.59727634059453e+001,-1.72326256036420e+000

1.37370469830040e+005,-1.59728032304107e+001,-1.74730335321584e+000

1.39288090127379e+005,-1.59728441639092e+001,-1.77167910975773e+000

1.41232479406504e+005,-1.59728862370233e+001,-1.79639447945032e+000

1.43204011348474e+005,-1.59729294811621e+001,-1.82145417556418e+000

1.45203064850745e+005,-1.59729739285822e+001,-1.84686297602838e+000

1.47230024099979e+005,-1.59730196124101e+001,-1.87262572428514e+000

1.49285278645888e+005,-1.59730665666642e+001,-1.89874733015875e+000

1.51369223476094e+005,-1.59731148262776e+001,-1.92523277073144e+000

1.53482259092041e+005,-1.59731644271222e+001,-1.95208709123000e+000

1.55624791585964e+005,-1.59732154060319e+001,-1.97931540592516e+000

1.57797232718936e+005,-1.59732678008275e+001,-2.00692289903882e+000

1.59999999999999e+005,-1.59733216503417e+001,-2.03491482566242e+000

1.62233516766403e+005,-1.59733769944447e+001,-2.06329651268757e+000

1.64498212264969e+005,-1.59734338740702e+001,-2.09207335974488e+000

1.66794521734578e+005,-1.59734923312427e+001,-2.12125084015542e+000

1.69122886489819e+005,-1.59735524091041e+001,-2.15083450189180e+000

1.71483754005805e+005,-1.59736141519422e+001,-2.18082996855140e+000

1.73877578004168e+005,-1.59736776052189e+001,-2.21124294033936e+000

1.76304818540256e+005,-1.59737428155997e+001,-2.24207919506299e+000

1.78765942091554e+005,-1.59738098309828e+001,-2.27334458913750e+000

1.81261421647326e+005,-1.59738787005301e+001,-2.30504505860267e+000

1.83791736799524e+005,-1.59739494746981e+001,-2.33718662015102e+000

1.86357373834951e+005,-1.59740222052690e+001,-2.36977537216646e+000

1.88958825828723e+005,-1.59740969453835e+001,-2.40281749577510e+000

1.91596592739027e+005,-1.59741737495733e+001,-2.43631925590733e+000

1.94271181503206e+005,-1.59742526737952e+001,-2.47028700237039e+000

1.96983106135185e+005,-1.59743337754645e+001,-2.50472717093397e+000

1.99732887824256e+005,-1.59744171134905e+001,-2.53964628442581e+000

2.02521055035243e+005,-1.59745027483115e+001,-2.57505095384071e+000

2.05348143610063e+005,-1.59745907419312e+001,-2.61094787945852e+000

2.08214696870707e+005,-1.59746811579555e+001,-2.64734385197655e+000

2.11121265723661e+005,-1.59747740616299e+001,-2.68424575365220e+000

2.14068408765776e+005,-1.59748695198776e+001,-2.72166055945714e+000

2.17056692391625e+005,-1.59749676013384e+001,-2.75959533824484e+000

2.20086690902357e+005,-1.59750683764078e+001,-2.79805725392860e+000

2.23158986616063e+005,-1.59751719172775e+001,-2.83705356667103e+000

2.26274169979693e+005,-1.59752782979759e+001,-2.87659163408774e+000

2.29432839682530e+005,-1.59753875944093e+001,-2.91667891246105e+000

2.32635602771247e+005,-1.59754998844045e+001,-2.95732295796576e+000

2.35883074766574e+005,-1.59756152477508e+001,-2.99853142790783e+000

2.39175879781588e+005,-1.59757337662435e+001,-3.04031208197615e+000

2.42514650641661e+005,-1.59758555237280e+001,-3.08267278350314e+000

2.45900029006080e+005,-1.59759806061441e+001,-3.12562150074102e+000

2.49332665491357e+005,-1.59761091015710e+001,-3.16916630814901e+000

2.52813219796278e+005,-1.59762411002730e+001,-3.21331538769256e+000

2.56342360828676e+005,-1.59763766947458e+001,-3.25807703015446e+000

2.59920766833993e+005,-1.59765159797631e+001,-3.30345963646127e+000

2.63549125525621e+005,-1.59766590524243e+001,-3.34947171901748e+000

2.67228134217075e+005,-1.59768060122016e+001,-3.39612190305659e+000

2.70958499956006e+005,-1.59769569609888e+001,-3.44341892800251e+000

2.74740939660078e+005,-1.59771120031499e+001,-3.49137164884437e+000

2.78576180254757e+005,-1.59772712455683e+001,-3.53998903752309e+000

2.82464958813007e+005,-1.59774347976960e+001,-3.58928018433306e+000

2.86408022696948e+005,-1.59776027716041e+001,-3.63925429933359e+000

2.90406129701488e+005,-1.59777752820327e+001,-3.68992071377601e+000

2.94460048199957e+005,-1.59779524464414e+001,-3.74128888154286e+000

2.98570557291775e+005,-1.59781343850607e+001,-3.79336838060028e+000

3.02738446952187e+005,-1.59783212209422e+001,-3.84616891446375e+000

3.06964518184081e+005,-1.59785130800108e+001,-3.89970031367794e+000

3.11249583171928e+005,-1.59787100911152e+001,-3.95397253730925e+000

3.15594465437872e+005,-1.59789123860802e+001,-4.00899567445281e+000

3.19999999999997e+005,-1.59791200997576e+001,-4.06477994575380e+000

3.24467033532806e+005,-1.59793333700781e+001,-4.12133570494240e+000

3.28996424529938e+005,-1.59795523381025e+001,-4.17867344038328e+000

3.33589043469155e+005,-1.59797771480734e+001,-4.23680377663941e+000

3.38245772979638e+005,-1.59800079474658e+001,-4.29573747605261e+000

3.42967508011610e+005,-1.59802448870386e+001,-4.35548544033641e+000

3.47755156008335e+005,-1.59804881208847e+001,-4.41605871218690e+000

3.52609637080511e+005,-1.59807378064816e+001,-4.47746847690859e+000

3.57531884183106e+005,-1.59809941047411e+001,-4.53972606405582e+000

3.62522843294651e+005,-1.59812571800580e+001,-4.60284294909223e+000

3.67583473599047e+005,-1.59815272003597e+001,-4.66683075506576e+000

3.72714747669902e+005,-1.59818043371532e+001,-4.73170125430263e+000

3.77917651657445e+005,-1.59820887655731e+001,-4.79746637011781e+000

3.83193185478053e+005,-1.59823806644275e+001,-4.86413817854576e+000

3.88542363006410e+005,-1.59826802162433e+001,-4.93172891008873e+000

3.93966212270369e+005,-1.59829876073112e+001,-5.00025095148619e+000

3.99465775648511e+005,-1.59833030277285e+001,-5.06971684750298e+000

4.05042110070485e+005,-1.59836266714414e+001,-5.14013930274121e+000

4.10696287220124e+005,-1.59839587362860e+001,-5.21153118347124e+000

4.16429393741414e+005,-1.59842994240276e+001,-5.28390551948741e+000

4.22242531447321e+005,-1.59846489403986e+001,-5.35727550598704e+000

4.28136817531551e+005,-1.59850074951354e+001,-5.43165450547325e+000

4.34113384783250e+005,-1.59853753020129e+001,-5.50705604968476e+000

4.40173381804713e+005,-1.59857525788775e+001,-5.58349384155031e+000

4.46317973232124e+005,-1.59861395476788e+001,-5.66098175717372e+000

4.52548339959385e+005,-1.59865364344985e+001,-5.73953384784543e+000

4.58865679365059e+005,-1.59869434695778e+001,-5.81916434208571e+000

4.65271205542494e+005,-1.59873608873430e+001,-5.89988764771924e+000

4.71766149533147e+005,-1.59877889264285e+001,-5.98171835398242e+000

4.78351759563174e+005,-1.59882278296976e+001,-6.06467123366649e+000

4.85029301283321e+005,-1.59886778442609e+001,-6.14876124529509e+000

4.91800058012158e+005,-1.59891392214930e+001,-6.23400353534116e+000

4.98665330982714e+005,-1.59896122170462e+001,-6.32041344048308e+000

5.05626439592555e+005,-1.59900970908614e+001,-6.40800648990135e+000

5.12684721657352e+005,-1.59905941071774e+001,-6.49679840762062e+000

5.19841533667984e+005,-1.59911035345374e+001,-6.58680511489531e+000

5.27098251051240e+005,-1.59916256457922e+001,-6.67804273264313e+000

5.34456268434150e+005,-1.59921607181016e+001,-6.77052758392986e+000

5.41916999912011e+005,-1.59927090329332e+001,-6.86427619650323e+000

