Freq.,VOut,OutRef

1.00000000000000e+004,-2.63068005396151e+001,-2.68103726328725e-001

1.01395947979003e+004,-2.63068016308734e+001,-2.71846297613152e-001

1.02811382665607e+004,-2.63068027528106e+001,-2.75641112513094e-001

1.04246576084112e+004,-2.63068039062892e+001,-2.79488900289956e-001

1.05701804056138e+004,-2.63068050921958e+001,-2.83390400386252e-001

1.07177346253629e+004,-2.63068063114422e+001,-2.87346362563901e-001

1.08673486252606e+004,-2.63068075649656e+001,-2.91357547049090e-001

1.10190511587661e+004,-2.63068088537295e+001,-2.95424724681259e-001

1.11728713807222e+004,-2.63068101787248e+001,-2.99548677056618e-001

1.13288388529580e+004,-2.63068115409700e+001,-3.03730196680195e-001

1.14869835499703e+004,-2.63068129415122e+001,-3.07970087120563e-001

1.16473358646846e+004,-2.63068143814282e+001,-3.12269163158970e-001

1.18099266142953e+004,-2.63068158618247e+001,-3.16628250952225e-001

1.19747870461893e+004,-2.63068173838399e+001,-3.21048188184123e-001

1.21419488439505e+004,-2.63068189486436e+001,-3.25529824233519e-001

1.23114441334492e+004,-2.63068205574389e+001,-3.30074020331838e-001

1.24833054890161e+004,-2.63068222114623e+001,-3.34681649731098e-001

1.26575659397028e+004,-2.63068239119854e+001,-3.39353597872335e-001

1.28342589756290e+004,-2.63068256603154e+001,-3.44090762553116e-001

1.30134185544193e+004,-2.63068274577963e+001,-3.48894054101013e-001

1.31950791077289e+004,-2.63068293058096e+001,-3.53764395551525e-001

1.33792755478611e+004,-2.63068312057761e+001,-3.58702722818699e-001

1.35660432744767e+004,-2.63068331591564e+001,-3.63709984881150e-001

1.37554181813974e+004,-2.63068351674519e+001,-3.68787143961672e-001

1.39474366635040e+004,-2.63068372322064e+001,-3.73935175711649e-001

1.41421356237309e+004,-2.63068393550071e+001,-3.79155069398347e-001

1.43395524801583e+004,-2.63068415374858e+001,-3.84447828096573e-001

1.45397251732031e+004,-2.63068437813200e+001,-3.89814468879602e-001

1.47426921729110e+004,-2.63068460882348e+001,-3.95256023014482e-001

1.49484924863494e+004,-2.63068484600032e+001,-4.00773536161227e-001

1.51571656651040e+004,-2.63068508984486e+001,-4.06368068571950e-001

1.53687518128801e+004,-2.63068534054453e+001,-4.12040695296037e-001

1.55832915932100e+004,-2.63068559829204e+001,-4.17792506385495e-001

1.58008262372675e+004,-2.63068586328552e+001,-4.23624607104101e-001

1.60213975517924e+004,-2.63068613572864e+001,-4.29538118141399e-001

1.62450479271247e+004,-2.63068641583084e+001,-4.35534175824152e-001

1.64718203453514e+004,-2.63068670380743e+001,-4.41613932338577e-001

1.67017583885674e+004,-2.63068699987977e+001,-4.47778555948013e-001

1.69349062472505e+004,-2.63068730427542e+001,-4.54029231220397e-001

1.71713087287550e+004,-2.63068761722837e+001,-4.60367159252309e-001

1.74110112659224e+004,-2.63068793897918e+001,-4.66793557902035e-001

1.76540599258131e+004,-2.63068826977516e+001,-4.73309662022889e-001

1.79005014185594e+004,-2.63068860987058e+001,-4.79916723697969e-001

1.81503831063432e+004,-2.63068895952684e+001,-4.86616012484216e-001

1.84037530124975e+004,-2.63068931901272e+001,-4.93408815651876e-001

1.86606598307361e+004,-2.63068968860453e+001,-5.00296438434888e-001

1.89211529345119e+004,-2.63069006858636e+001,-5.07280204279576e-001

1.91852823865052e+004,-2.63069045925026e+001,-5.14361455099618e-001

1.94530989482457e+004,-2.63069086089652e+001,-5.21541551531351e-001

1.97246540898671e+004,-2.63069127383384e+001,-5.28821873198303e-001

1.99999999999999e+004,-2.63069169837964e+001,-5.36203818971871e-001

2.02791895958005e+004,-2.63069213486021e+001,-5.43688807243222e-001

2.05622765331213e+004,-2.63069258361104e+001,-5.51278276193112e-001

2.08493152168224e+004,-2.63069304497704e+001,-5.58973684068672e-001

2.11403608112276e+004,-2.63069351931284e+001,-5.66776509461900e-001

2.14354692507258e+004,-2.63069400698299e+001,-5.74688251595356e-001

2.17346972505211e+004,-2.63069450836232e+001,-5.82710430608270e-001

2.20381023175322e+004,-2.63069502383619e+001,-5.90844587847343e-001

2.23457427614443e+004,-2.63069555380078e+001,-5.99092286164750e-001

2.26576777059159e+004,-2.63069609866341e+001,-6.07455110214410e-001

2.29739670999406e+004,-2.63069665884285e+001,-6.15934666759002e-001

2.32946717293690e+004,-2.63069723476963e+001,-6.24532584976469e-001

2.36198532285905e+004,-2.63069782688638e+001,-6.33250516772025e-001

2.39495740923785e+004,-2.63069843564820e+001,-6.42090137095379e-001

2.42838976879009e+004,-2.63069906152294e+001,-6.51053144261387e-001

2.46228882668982e+004,-2.63069970499160e+001,-6.60141260276605e-001

2.49666109780322e+004,-2.63070036654873e+001,-6.69356231168232e-001

2.53151318794055e+004,-2.63070104670275e+001,-6.78699827318052e-001

2.56685179512580e+004,-2.63070174597638e+001,-6.88173843803710e-001

2.60268371088386e+004,-2.63070246490701e+001,-6.97780100741039e-001

2.63901582154578e+004,-2.63070320404716e+001,-7.07520443632603e-001

2.67585510957221e+004,-2.63070396396484e+001,-7.17396743723470e-001

2.71320865489533e+004,-2.63070474524407e+001,-7.27410898355579e-001

2.75108363627948e+004,-2.63070554848524e+001,-7.37564831335929e-001

2.78948733270080e+004,-2.63070637430562e+001,-7.47860493300643e-001

2.82842712474618e+004,-2.63070722333985e+001,-7.58299862091242e-001

2.86791049603164e+004,-2.63070809624035e+001,-7.68884943132890e-001

2.90794503464061e+004,-2.63070899367792e+001,-7.79617769817563e-001

2.94853843458219e+004,-2.63070991634220e+001,-7.90500403893356e-001

2.98969849726987e+004,-2.63071086494218e+001,-8.01534935859359e-001

3.03143313302078e+004,-2.63071184020680e+001,-8.12723485367161e-001

3.07375036257601e+004,-2.63071284288547e+001,-8.24068201623278e-001

3.11665831864199e+004,-2.63071387374864e+001,-8.35571263803167e-001

3.16016524745350e+004,-2.63071493358844e+001,-8.47234881467213e-001

3.20427951035848e+004,-2.63071602321922e+001,-8.59061294982929e-001

3.24900958542493e+004,-2.63071714347824e+001,-8.71052775954153e-001

3.29436406907028e+004,-2.63071829522625e+001,-8.83211627655062e-001

3.34035167771346e+004,-2.63071947934820e+001,-8.95540185471056e-001

3.38698124945009e+004,-2.63072069675391e+001,-9.08040817343827e-001

3.43426174575100e+004,-2.63072194837873e+001,-9.20715924226177e-001

3.48220225318448e+004,-2.63072323518431e+001,-9.33567940539576e-001

3.53081198516260e+004,-2.63072455815931e+001,-9.46599334639057e-001

3.58010028371187e+004,-2.63072591832015e+001,-9.59812609285183e-001

3.63007662126863e+004,-2.63072731671181e+001,-9.73210302123399e-001

3.68075060249948e+004,-2.63072875440862e+001,-9.86794986166697e-001

3.73213196614721e+004,-2.63073023251508e+001,-1.00056927028846e+000

3.78423058690237e+004,-2.63073175216672e+001,-1.01453579971934e+000

3.83705647730104e+004,-2.63073331453097e+001,-1.02869725655378e+000

3.89061978964912e+004,-2.63073492080804e+001,-1.04305636026008e+000

3.94493081797342e+004,-2.63073657223183e+001,-1.05761586820205e+000

3.99999999999998e+004,-2.63073827007094e+001,-1.07237857616111e+000

4.05583791916010e+004,-2.63074001562953e+001,-1.08734731887405e+000

4.11245530662425e+004,-2.63074181024846e+001,-1.10252497056966e+000

4.16986304336447e+004,-2.63074365530618e+001,-1.11791444551955e+000

4.22807216224550e+004,-2.63074555221989e+001,-1.13351869859224e+000

4.28709385014515e+004,-2.63074750244656e+001,-1.14934072581712e+000

4.34693945010421e+004,-2.63074950748408e+001,-1.16538356495421e+000

4.40762046350642e+004,-2.63075156887239e+001,-1.18165029607422e+000

4.46914855228886e+004,-2.63075368819468e+001,-1.19814404214413e+000

4.53153554118317e+004,-2.63075586707860e+001,-1.21486796962185e+000

4.59479341998812e+004,-2.63075810719745e+001,-1.23182528905960e+000

4.65893434587380e+004,-2.63076041027154e+001,-1.24901925571391e+000

4.72397064571810e+004,-2.63076277806950e+001,-1.26645317016548e+000

4.78991481847569e+004,-2.63076521240953e+001,-1.28413037894759e+000

4.85677953758016e+004,-2.63076771516095e+001,-1.30205427518026e+000

4.92457765337964e+004,-2.63077028824550e+001,-1.32022829921770e+000

4.99332219560642e+004,-2.63077293363888e+001,-1.33865593929976e+000

5.06302637588109e+004,-2.63077565337223e+001,-1.35734073221661e+000

5.13370359025159e+004,-2.63077844953370e+001,-1.37628626397842e+000

5.20536742176771e+004,-2.63078132427003e+001,-1.39549617049793e+000

5.27803164309155e+004,-2.63078427978824e+001,-1.41497413827820e+000

5.35171021914442e+004,-2.63078731835724e+001,-1.43472390511408e+000

5.42641730979066e+004,-2.63079044230961e+001,-1.45474926079965e+000

5.50216727255895e+004,-2.63079365404340e+001,-1.47505404784725e+000

5.57897466540159e+004,-2.63079695602393e+001,-1.49564216221451e+000

5.65685424949235e+004,-2.63080035078567e+001,-1.51651755404335e+000

5.73582099206328e+004,-2.63080384093422e+001,-1.53768422840785e+000

5.81589006928121e+004,-2.63080742914824e+001,-1.55914624607098e+000

5.89707686916437e+004,-2.63081111818155e+001,-1.58090772425408e+000

5.97939699453972e+004,-2.63081491086519e+001,-1.60297283741438e+000

6.06286626604156e+004,-2.63081881010961e+001,-1.62534581803467e+000

6.14750072515201e+004,-2.63082281890689e+001,-1.64803095742158e+000

6.23331663728396e+004,-2.63082694033298e+001,-1.67103260651788e+000

6.32033049490698e+004,-2.63083117755014e+001,-1.69435517672099e+000

6.40855902071694e+004,-2.63083553380924e+001,-1.71800314071720e+000

6.49801917084985e+004,-2.63084001245230e+001,-1.74198103332402e+000

6.58872813814055e+004,-2.63084461691506e+001,-1.76629345234423e+000

6.68070335542691e+004,-2.63084935072956e+001,-1.79094505943160e+000

6.77396249890018e+004,-2.63085421752681e+001,-1.81594058096981e+000

6.86852349150199e+004,-2.63085922103962e+001,-1.84128480895925e+000

6.96440450636895e+004,-2.63086436510540e+001,-1.86698260191921e+000

7.06162397032520e+004,-2.63086965366909e+001,-1.89303888579998e+000

7.16020056742374e+004,-2.63087509078617e+001,-1.91945865490800e+000

7.26015324253724e+004,-2.63088068062573e+001,-1.94624697284251e+000

7.36150120499896e+004,-2.63088642747369e+001,-1.97340897344486e+000

7.46426393229441e+004,-2.63089233573598e+001,-2.00094986176157e+000

7.56846117380472e+004,-2.63089840994196e+001,-2.02887491501628e+000

7.67411295460207e+004,-2.63090465474782e+001,-2.05718948359957e+000

7.78123957929823e+004,-2.63091107494016e+001,-2.08589899206785e+000

7.88986163594682e+004,-2.63091767543959e+001,-2.11500894015686e+000

7.99999999999995e+004,-2.63092446130447e+001,-2.14452490380820e+000

8.11167583832018e+004,-2.63093143773478e+001,-2.17445253620960e+000

8.22491061324848e+004,-2.63093861007602e+001,-2.20479756884729e+000

8.33972608672892e+004,-2.63094598382331e+001,-2.23556581257384e+000

8.45614432449099e+004,-2.63095356462554e+001,-2.26676315868882e+000

8.57418770029029e+004,-2.63096135828964e+001,-2.29839558003323e+000

8.69387890020841e+004,-2.63096937078499e+001,-2.33046913209947e+000

8.81524092701283e+004,-2.63097760824795e+001,-2.36298995415272e+000

8.93829710457770e+004,-2.63098607698649e+001,-2.39596427037007e+000

9.06307108236633e+004,-2.63099478348499e+001,-2.42939839099160e+000

9.18958683997622e+004,-2.63100373440911e+001,-2.46329871348720e+000

9.31786869174758e+004,-2.63101293661084e+001,-2.49767172373923e+000

9.44794129143618e+004,-2.63102239713372e+001,-2.53252399723782e+000

9.57982963695136e+004,-2.63103212321810e+001,-2.56786220029291e+000

9.71355907516031e+004,-2.63104212230663e+001,-2.60369309126146e+000

9.84915530675926e+004,-2.63105240204992e+001,-2.64002352178994e+000

9.98664439121282e+004,-2.63106297031222e+001,-2.67686043807226e+000

1.01260527517622e+005,-2.63107383517744e+001,-2.71421088212286e+000

1.02674071805032e+005,-2.63108500495520e+001,-2.75208199306727e+000

1.04107348435354e+005,-2.63109648818707e+001,-2.79048100844667e+000

1.05560632861831e+005,-2.63110829365303e+001,-2.82941526554078e+000

1.07034204382888e+005,-2.63112043037807e+001,-2.86889220270423e+000

1.08528346195813e+005,-2.63113290763896e+001,-2.90891936072212e+000

1.10043345451179e+005,-2.63114573497122e+001,-2.94950438418092e+000

1.11579493308032e+005,-2.63115892217632e+001,-2.99065502285511e+000

1.13137084989847e+005,-2.63117247932895e+001,-3.03237913311295e+000

1.14716419841265e+005,-2.63118641678465e+001,-3.07468467933702e+000

1.16317801385624e+005,-2.63120074518756e+001,-3.11757973536245e+000

1.17941537383287e+005,-2.63121547547835e+001,-3.16107248593349e+000

1.19587939890794e+005,-2.63123061890244e+001,-3.20517122817588e+000

1.21257325320831e+005,-2.63124618701837e+001,-3.24988437308731e+000

1.22950014503040e+005,-2.63126219170650e+001,-3.29522044704576e+000

1.24666332745679e+005,-2.63127864517780e+001,-3.34118809333463e+000

1.26406609898139e+005,-2.63129555998304e+001,-3.38779607368681e+000

1.28171180414339e+005,-2.63131294902204e+001,-3.43505326984564e+000

1.29960383416997e+005,-2.63133082555339e+001,-3.48296868514452e+000

1.31774562762811e+005,-2.63134920320421e+001,-3.53155144610384e+000

1.33614067108538e+005,-2.63136809598036e+001,-3.58081080404746e+000

1.35479249978003e+005,-2.63138751827679e+001,-3.63075613673562e+000

1.37370469830040e+005,-2.63140748488821e+001,-3.68139695001809e+000

1.39288090127379e+005,-2.63142801102011e+001,-3.73274287950446e+000

1.41232479406504e+005,-2.63144911229995e+001,-3.78480369225288e+000

1.43204011348474e+005,-2.63147080478879e+001,-3.83758928847886e+000

1.45203064850745e+005,-2.63149310499307e+001,-3.89110970328061e+000

1.47230024099979e+005,-2.63151602987686e+001,-3.94537510838476e+000

1.49285278645888e+005,-2.63153959687434e+001,-4.00039581390984e+000

1.51369223476094e+005,-2.63156382390263e+001,-4.05618227014885e+000

1.53482259092041e+005,-2.63158872937498e+001,-4.11274506937103e+000

1.55624791585964e+005,-2.63161433221426e+001,-4.17009494764134e+000

1.57797232718936e+005,-2.63164065186690e+001,-4.22824278665967e+000

1.59999999999999e+005,-2.63166770831707e+001,-4.28719961561892e+000

1.62233516766403e+005,-2.63169552210136e+001,-4.34697661308128e+000

1.64498212264969e+005,-2.63172411432373e+001,-4.40758510887393e+000

1.66794521734578e+005,-2.63175350667098e+001,-4.46903658600265e+000

1.69122886489819e+005,-2.63178372142845e+001,-4.53134268258559e+000

1.71483754005805e+005,-2.63181478149632e+001,-4.59451519380433e+000

1.73877578004168e+005,-2.63184671040621e+001,-4.65856607387392e+000

1.76304818540256e+005,-2.63187953233824e+001,-4.72350743803232e+000

1.78765942091554e+005,-2.63191327213855e+001,-4.78935156454696e+000

1.81261421647326e+005,-2.63194795533724e+001,-4.85611089674088e+000

1.83791736799524e+005,-2.63198360816684e+001,-4.92379804503600e+000

1.86357373834951e+005,-2.63202025758115e+001,-4.99242578901563e+000

1.88958825828723e+005,-2.63205793127469e+001,-5.06200707950387e+000

1.91596592739027e+005,-2.63209665770251e+001,-5.13255504066331e+000

1.94271181503206e+005,-2.63213646610063e+001,-5.20408297211101e+000

1.96983106135185e+005,-2.63217738650692e+001,-5.27660435105021e+000

1.99732887824256e+005,-2.63221944978257e+001,-5.35013283442111e+000

2.02521055035243e+005,-2.63226268763401e+001,-5.42468226106721e+000

2.05348143610063e+005,-2.63230713263552e+001,-5.50026665391910e+000

2.08214696870707e+005,-2.63235281825230e+001,-5.57690022219462e+000

2.11121265723661e+005,-2.63239977886412e+001,-5.65459736361492e+000

2.14068408765776e+005,-2.63244804978966e+001,-5.73337266663612e+000

2.17056692391625e+005,-2.63249766731137e+001,-5.81324091269771e+000

2.20086690902357e+005,-2.63254866870094e+001,-5.89421707848409e+000

2.23158986616063e+005,-2.63260109224547e+001,-5.97631633820278e+000

2.26274169979693e+005,-2.63265497727424e+001,-6.05955406587544e+000

2.29432839682530e+005,-2.63271036418614e+001,-6.14394583764385e+000

2.32635602771247e+005,-2.63276729447779e+001,-6.22950743408851e+000

2.35883074766574e+005,-2.63282581077229e+001,-6.31625484256108e+000

2.39175879781588e+005,-2.63288595684881e+001,-6.40420425952794e+000

2.42514650641661e+005,-2.63294777767270e+001,-6.49337209292700e+000

2.45900029006080e+005,-2.63301131942650e+001,-6.58377496453457e+000

2.49332665491357e+005,-2.63307662954158e+001,-6.67542971234369e+000

2.52813219796278e+005,-2.63314375673062e+001,-6.76835339295249e+000

2.56342360828676e+005,-2.63321275102078e+001,-6.86256328396081e+000

2.59920766833993e+005,-2.63328366378773e+001,-6.95807688637721e+000

2.63549125525621e+005,-2.63335654779044e+001,-7.05491192703228e+000

2.67228134217075e+005,-2.63343145720681e+001,-7.15308636099990e+000

2.70958499956006e+005,-2.63350844767010e+001,-7.25261837402451e+000

2.74740939660078e+005,-2.63358757630626e+001,-7.35352638495413e+000

2.78576180254757e+005,-2.63366890177207e+001,-7.45582904817738e+000

2.82464958813007e+005,-2.63375248429418e+001,-7.55954525606459e+000

2.86408022696948e+005,-2.63383838570906e+001,-7.66469414141125e+000

2.90406129701488e+005,-2.63392666950380e+001,-7.77129507988348e+000

2.94460048199957e+005,-2.63401740085792e+001,-7.87936769246354e+000

2.98570557291775e+005,-2.63411064668604e+001,-7.98893184789523e+000

3.02738446952187e+005,-2.63420647568157e+001,-8.10000766512759e+000

3.06964518184081e+005,-2.63430495836128e+001,-8.21261551575550e+000

3.11249583171928e+005,-2.63440616711097e+001,-8.32677602645654e+000

3.15594465437872e+005,-2.63451017623202e+001,-8.44251008142210e+000

3.19999999999997e+005,-2.63461706198909e+001,-8.55983882478256e+000

3.24467033532806e+005,-2.63472690265868e+001,-8.67878366302309e+000

3.28996424529938e+005,-2.63483977857891e+001,-8.79936626739169e+000

3.33589043469155e+005,-2.63495577220022e+001,-8.92160857629501e+000

3.38245772979638e+005,-2.63507496813721e+001,-9.04553279768221e+000

3.42967508011610e+005,-2.63519745322160e+001,-9.17116141141446e+000

3.47755156008335e+005,-2.63532331655617e+001,-9.29851717161978e+000

3.52609637080511e+005,-2.63545264956996e+001,-9.42762310902919e+000

3.57531884183106e+005,-2.63558554607452e+001,-9.55850253329469e+000

3.62522843294651e+005,-2.63572210232127e+001,-9.69117903528664e+000

3.67583473599047e+005,-2.63586241706014e+001,-9.82567648936744e+000

3.72714747669902e+005,-2.63600659159922e+001,-9.96201905564206e+000

3.77917651657445e+005,-2.63615472986572e+001,-1.01002311821807e+001

3.83193185478053e+005,-2.63630693846808e+001,-1.02403376072141e+001

3.88542363006410e+005,-2.63646332675924e+001,-1.03823633612979e+001

3.93966212270369e+005,-2.63662400690121e+001,-1.05263337694444e+001

3.99465775648511e+005,-2.63678909393080e+001,-1.06722744532189e+001

4.05042110070485e+005,-2.63695870582662e+001,-1.08202113328006e+001

4.10696287220124e+005,-2.63713296357732e+001,-1.09701706290024e+001

4.16429393741414e+005,-2.63731199125111e+001,-1.11221788652503e+001

4.22242531447321e+005,-2.63749591606650e+001,-1.12762628695182e+001

4.28136817531551e+005,-2.63768486846437e+001,-1.14324497762165e+001

4.34113384783250e+005,-2.63787898218129e+001,-1.15907670280313e+001

4.40173381804713e+005,-2.63807839432413e+001,-1.17512423777127e+001

4.46317973232124e+005,-2.63828324544603e+001,-1.19139038898076e+001

4.52548339959385e+005,-2.63849367962358e+001,-1.20787799423374e+001

4.58865679365059e+005,-2.63870984453540e+001,-1.22458992284141e+001

4.65271205542494e+005,-2.63893189154198e+001,-1.24152907577955e+001

4.71766149533147e+005,-2.63915997576687e+001,-1.25869838583735e+001

4.78351759563174e+005,-2.63939425617921e+001,-1.27610081775956e+001

4.85029301283321e+005,-2.63963489567755e+001,-1.29373936838134e+001

4.91800058012158e+005,-2.63988206117505e+001,-1.31161706675580e+001

4.98665330982714e+005,-2.64013592368597e+001,-1.32973697427368e+001

5.05626439592555e+005,-2.64039665841357e+001,-1.34810218477495e+001

5.12684721657352e+005,-2.64066444483925e+001,-1.36671582465210e+001

5.19841533667984e+005,-2.64093946681312e+001,-1.38558105294448e+001

5.27098251051240e+005,-2.64122191264583e+001,-1.40470106142374e+001

5.34456268434150e+005,-2.64151197520184e+001,-1.42407907466962e+001

5.41916999912011e+005,-2.64180985199390e+001,-1.44371835013609e+001

