Freq.,VOut,OutRef

1.00000000000000e+004,-1.08764381585160e+000,-1.45126732666709e-001

1.01395947979003e+004,-1.08764374706725e+000,-1.47152627235258e-001

1.02811382665607e+004,-1.08764367634909e+000,-1.49206802275660e-001

1.04246576084112e+004,-1.08764360364295e+000,-1.51289652568808e-001

1.05701804056138e+004,-1.08764352889264e+000,-1.53401578410049e-001

1.07177346253629e+004,-1.08764345204083e+000,-1.55542985679561e-001

1.08673486252606e+004,-1.08764337302858e+000,-1.57714285923619e-001

1.10190511587661e+004,-1.08764329179488e+000,-1.59915896436431e-001

1.11728713807222e+004,-1.08764320827748e+000,-1.62148240334262e-001

1.13288388529580e+004,-1.08764312241211e+000,-1.64411746641425e-001

1.14869835499703e+004,-1.08764303413294e+000,-1.66706850370080e-001

1.16473358646846e+004,-1.08764294337168e+000,-1.69033992608553e-001

1.18099266142953e+004,-1.08764285005896e+000,-1.71393620597780e-001

1.19747870461893e+004,-1.08764275412289e+000,-1.73786187825006e-001

1.21419488439505e+004,-1.08764265548980e+000,-1.76212154107055e-001

1.23114441334492e+004,-1.08764255408379e+000,-1.78671985680646e-001

1.24833054890161e+004,-1.08764244982683e+000,-1.81166155290375e-001

1.26575659397028e+004,-1.08764234263891e+000,-1.83695142279799e-001

1.28342589756290e+004,-1.08764223243765e+000,-1.86259432683904e-001

1.30134185544193e+004,-1.08764211913817e+000,-1.88859519324222e-001

1.31950791077289e+004,-1.08764200265354e+000,-1.91495901899672e-001

1.33792755478611e+004,-1.08764188289410e+000,-1.94169087087065e-001

1.35660432744767e+004,-1.08764175976785e+000,-1.96879588634296e-001

1.37554181813974e+004,-1.08764163318023e+000,-1.99627927461661e-001

1.39474366635040e+004,-1.08764150303368e+000,-2.02414631763356e-001

1.41421356237309e+004,-1.08764136922843e+000,-2.05240237103543e-001

1.43395524801583e+004,-1.08764123166139e+000,-2.08105286526023e-001

1.45397251732031e+004,-1.08764109022701e+000,-2.11010330652891e-001

1.47426921729110e+004,-1.08764094481643e+000,-2.13955927794443e-001

1.49484924863494e+004,-1.08764079531795e+000,-2.16942644053916e-001

1.51571656651040e+004,-1.08764064161653e+000,-2.19971053438604e-001

1.53687518128801e+004,-1.08764048359415e+000,-2.23041737966809e-001

1.55832915932100e+004,-1.08764032112933e+000,-2.26155287783216e-001

1.58008262372675e+004,-1.08764015409702e+000,-2.29312301271215e-001

1.60213975517924e+004,-1.08763998236910e+000,-2.32513385165167e-001

1.62450479271247e+004,-1.08763980581324e+000,-2.35759154672774e-001

1.64718203453514e+004,-1.08763962429398e+000,-2.39050233587011e-001

1.67017583885674e+004,-1.08763943767176e+000,-2.42387254409821e-001

1.69349062472505e+004,-1.08763924580294e+000,-2.45770858474553e-001

1.71713087287550e+004,-1.08763904854013e+000,-2.49201696065252e-001

1.74110112659224e+004,-1.08763884573185e+000,-2.52680426544378e-001

1.76540599258131e+004,-1.08763863722194e+000,-2.56207718480378e-001

1.79005014185594e+004,-1.08763842285028e+000,-2.59784249773076e-001

1.81503831063432e+004,-1.08763820245210e+000,-2.63410707786878e-001

1.84037530124975e+004,-1.08763797585780e+000,-2.67087789482167e-001

1.86606598307361e+004,-1.08763774289349e+000,-2.70816201547002e-001

1.89211529345119e+004,-1.08763750337986e+000,-2.74596660537328e-001

1.91852823865052e+004,-1.08763725713299e+000,-2.78429893009752e-001

1.94530989482457e+004,-1.08763700396343e+000,-2.82316635666093e-001

1.97246540898671e+004,-1.08763674367663e+000,-2.86257635490752e-001

1.99999999999999e+004,-1.08763647607252e+000,-2.90253649897189e-001

2.02791895958005e+004,-1.08763620094546e+000,-2.94305446871386e-001

2.05622765331213e+004,-1.08763591808386e+000,-2.98413805121759e-001

2.08493152168224e+004,-1.08763562727044e+000,-3.02579514226155e-001

2.11403608112276e+004,-1.08763532828150e+000,-3.06803374786685e-001

2.14354692507258e+004,-1.08763502088739e+000,-3.11086198580293e-001

2.17346972505211e+004,-1.08763470485164e+000,-3.15428808718540e-001

2.20381023175322e+004,-1.08763437993153e+000,-3.19832039801457e-001

2.23457427614443e+004,-1.08763404587723e+000,-3.24296738081923e-001

2.26576777059159e+004,-1.08763370243201e+000,-3.28823761625970e-001

2.29739670999406e+004,-1.08763334933174e+000,-3.33413980479691e-001

2.32946717293690e+004,-1.08763298630513e+000,-3.38068276833752e-001

2.36198532285905e+004,-1.08763261307318e+000,-3.42787545195082e-001

2.39495740923785e+004,-1.08763222934902e+000,-3.47572692558003e-001

2.42838976879009e+004,-1.08763183483764e+000,-3.52424638579705e-001

2.46228882668982e+004,-1.08763142923591e+000,-3.57344315754778e-001

2.49666109780322e+004,-1.08763101223200e+000,-3.62332669597325e-001

2.53151318794055e+004,-1.08763058350537e+000,-3.67390658820607e-001

2.56685179512580e+004,-1.08763014272657e+000,-3.72519255521360e-001

2.60268371088386e+004,-1.08762968955693e+000,-3.77719445367542e-001

2.63901582154578e+004,-1.08762922364789e+000,-3.82992227789065e-001

2.67585510957221e+004,-1.08762874464158e+000,-3.88338616166068e-001

2.71320865489533e+004,-1.08762825216977e+000,-3.93759638028009e-001

2.75108363627948e+004,-1.08762774585398e+000,-3.99256335247948e-001

2.78948733270080e+004,-1.08762722530497e+000,-4.04829764245785e-001

2.82842712474618e+004,-1.08762669012280e+000,-4.10480996187782e-001

2.86791049603164e+004,-1.08762613989622e+000,-4.16211117195397e-001

2.90794503464061e+004,-1.08762557420217e+000,-4.22021228554036e-001

2.94853843458219e+004,-1.08762499260597e+000,-4.27912446922739e-001

2.98969849726987e+004,-1.08762439466065e+000,-4.33885904550589e-001

3.03143313302078e+004,-1.08762377990667e+000,-4.39942749493703e-001

3.07375036257601e+004,-1.08762314787169e+000,-4.46084145835420e-001

3.11665831864199e+004,-1.08762249806977e+000,-4.52311273912731e-001

3.16016524745350e+004,-1.08762183000169e+000,-4.58625330539316e-001

3.20427951035848e+004,-1.08762114315404e+000,-4.65027529238173e-001

3.24900958542493e+004,-1.08762043699885e+000,-4.71519100475499e-001

3.29436406907028e+004,-1.08761971099370e+000,-4.78101291894157e-001

3.34035167771346e+004,-1.08761896458047e+000,-4.84775368557583e-001

3.38698124945009e+004,-1.08761819718557e+000,-4.91542613190390e-001

3.43426174575100e+004,-1.08761740821944e+000,-4.98404326424326e-001

3.48220225318448e+004,-1.08761659707565e+000,-5.05361827051887e-001

3.53081198516260e+004,-1.08761576313102e+000,-5.12416452275818e-001

3.58010028371187e+004,-1.08761490574466e+000,-5.19569557969407e-001

3.63007662126863e+004,-1.08761402425773e+000,-5.26822518935490e-001

3.68075060249948e+004,-1.08761311799292e+000,-5.34176729171005e-001

3.73213196614721e+004,-1.08761218625385e+000,-5.41633602135690e-001

3.78423058690237e+004,-1.08761122832459e+000,-5.49194571023301e-001

3.83705647730104e+004,-1.08761024346913e+000,-5.56861089037615e-001

3.89061978964912e+004,-1.08760923093062e+000,-5.64634629671866e-001

3.94493081797342e+004,-1.08760818993124e+000,-5.72516686990996e-001

3.99999999999998e+004,-1.08760711967100e+000,-5.80508775921755e-001

4.05583791916010e+004,-1.08760601932774e+000,-5.88612432540199e-001

4.11245530662425e+004,-1.08760488805590e+000,-5.96829214370851e-001

4.16986304336447e+004,-1.08760372498649e+000,-6.05160700683068e-001

4.22807216224550e+004,-1.08760252922580e+000,-6.13608492797976e-001

4.28709385014515e+004,-1.08760129985522e+000,-6.22174214393335e-001

4.34693945010421e+004,-1.08760003593022e+000,-6.30859511818084e-001

4.40762046350642e+004,-1.08759873647992e+000,-6.39666054407590e-001

4.46914855228886e+004,-1.08759740050593e+000,-6.48595534805876e-001

4.53153554118317e+004,-1.08759602698193e+000,-6.57649669290561e-001

4.59479341998812e+004,-1.08759461485281e+000,-6.66830198103139e-001

4.65893434587380e+004,-1.08759316303388e+000,-6.76138885782748e-001

4.72397064571810e+004,-1.08759167040974e+000,-6.85577521508305e-001

4.78991481847569e+004,-1.08759013583400e+000,-6.95147919439370e-001

4.85677953758016e+004,-1.08758855812773e+000,-7.04851919067888e-001

4.92457765337964e+004,-1.08758693607924e+000,-7.14691385569665e-001

4.99332219560642e+004,-1.08758526844254e+000,-7.24668210165882e-001

5.06302637588109e+004,-1.08758355393681e+000,-7.34784310484375e-001

5.13370359025159e+004,-1.08758179124513e+000,-7.45041630930684e-001

5.20536742176771e+004,-1.08757997901383e+000,-7.55442143059997e-001

5.27803164309155e+004,-1.08757811585094e+000,-7.65987845959166e-001

5.35171021914442e+004,-1.08757620032556e+000,-7.76680766629178e-001

5.42641730979066e+004,-1.08757423096677e+000,-7.87522960375327e-001

5.50216727255895e+004,-1.08757220626213e+000,-7.98516511204340e-001

5.57897466540159e+004,-1.08757012465678e+000,-8.09663532224081e-001

5.65685424949235e+004,-1.08756798455217e+000,-8.20966166050911e-001

5.73582099206328e+004,-1.08756578430521e+000,-8.32426585220129e-001

5.81589006928121e+004,-1.08756352222613e+000,-8.44046992608374e-001

5.89707686916437e+004,-1.08756119657828e+000,-8.55829621852022e-001

5.97939699453972e+004,-1.08755880557592e+000,-8.67776737781758e-001

6.06286626604156e+004,-1.08755634738328e+000,-8.79890636856247e-001

6.14750072515201e+004,-1.08755382011309e+000,-8.92173647604592e-001

6.23331663728396e+004,-1.08755122182515e+000,-9.04628131074672e-001

6.32033049490698e+004,-1.08754855052485e+000,-9.17256481287271e-001

6.40855902071694e+004,-1.08754580416146e+000,-9.30061125697944e-001

6.49801917084985e+004,-1.08754298062678e+000,-9.43044525663706e-001

6.58872813814055e+004,-1.08754007775354e+000,-9.56209176916592e-001

6.68070335542691e+004,-1.08753709331356e+000,-9.69557610044864e-001

6.77396249890018e+004,-1.08753402501625e+000,-9.83092390979718e-001

6.86852349150199e+004,-1.08753087050664e+000,-9.96816121490568e-001

6.96440450636895e+004,-1.08752762736387e+000,-1.01073143968381e+000

7.06162397032520e+004,-1.08752429309904e+000,-1.02484102051382e+000

7.16020056742374e+004,-1.08752086515348e+000,-1.03914757629566e+000

7.26015324253724e+004,-1.08751734089681e+000,-1.05365385722893e+000

7.36150120499896e+004,-1.08751371762479e+000,-1.06836265192702e+000

7.46426393229441e+004,-1.08750999255753e+000,-1.08327678795403e+000

7.56846117380472e+004,-1.08750616283700e+000,-1.09839913237033e+000

7.67411295460207e+004,-1.08750222552511e+000,-1.11373259228434e+000

7.78123957929823e+004,-1.08749817760146e+000,-1.12928011541241e+000

7.88986163594682e+004,-1.08749401596099e+000,-1.14504469064691e+000

7.99999999999995e+004,-1.08748973741151e+000,-1.16102934863362e+000

8.11167583832018e+004,-1.08748533867135e+000,-1.17723716235357e+000

8.22491061324848e+004,-1.08748081636706e+000,-1.19367124771640e+000

8.33972608672892e+004,-1.08747616703041e+000,-1.21033476416148e+000

8.45614432449099e+004,-1.08747138709619e+000,-1.22723091526551e+000

8.57418770029029e+004,-1.08746647289922e+000,-1.24436294936148e+000

8.69387890020841e+004,-1.08746142067160e+000,-1.26173416016425e+000

8.81524092701283e+004,-1.08745622653997e+000,-1.27934788740561e+000

8.93829710457770e+004,-1.08745088652247e+000,-1.29720751747849e+000

9.06307108236633e+004,-1.08744539652563e+000,-1.31531648408975e+000

9.18958683997622e+004,-1.08743975234150e+000,-1.33367826892265e+000

9.31786869174758e+004,-1.08743394964415e+000,-1.35229640230871e+000

9.44794129143618e+004,-1.08742798398665e+000,-1.37117446390791e+000

9.57982963695136e+004,-1.08742185079757e+000,-1.39031608339969e+000

9.71355907516031e+004,-1.08741554537749e+000,-1.40972494118372e+000

9.84915530675926e+004,-1.08740906289541e+000,-1.42940476908953e+000

9.98664439121282e+004,-1.08740239838533e+000,-1.44935935109618e+000

1.01260527517622e+005,-1.08739554674213e+000,-1.46959252406452e+000

1.02674071805032e+005,-1.08738850271795e+000,-1.49010817847557e+000

1.04107348435354e+005,-1.08738126091812e+000,-1.51091025918271e+000

1.05560632861831e+005,-1.08737381579705e+000,-1.53200276617357e+000

1.07034204382888e+005,-1.08736616165418e+000,-1.55338975534163e+000

1.08528346195813e+005,-1.08735829262938e+000,-1.57507533927047e+000

1.10043345451179e+005,-1.08735020269894e+000,-1.59706368802691e+000

1.11579493308032e+005,-1.08734188567053e+000,-1.61935902996798e+000

1.13137084989847e+005,-1.08733333517895e+000,-1.64196565255663e+000

1.14716419841265e+005,-1.08732454468108e+000,-1.66488790319093e+000

1.16317801385624e+005,-1.08731550745094e+000,-1.68813019004406e+000

1.17941537383287e+005,-1.08730621657471e+000,-1.71169698291664e+000

1.19587939890794e+005,-1.08729666494556e+000,-1.73559281409984e+000

1.21257325320831e+005,-1.08728684525812e+000,-1.75982227925311e+000

1.22950014503040e+005,-1.08727675000314e+000,-1.78439003829190e+000

1.24666332745679e+005,-1.08726637146169e+000,-1.80930081628949e+000

1.26406609898139e+005,-1.08725570169950e+000,-1.83455940439076e+000

1.28171180414339e+005,-1.08724473256093e+000,-1.86017066073921e+000

1.29960383416997e+005,-1.08723345566276e+000,-1.88613951141744e+000

1.31774562762811e+005,-1.08722186238805e+000,-1.91247095140010e+000

1.33614067108538e+005,-1.08720994387957e+000,-1.93917004552138e+000

1.35479249978003e+005,-1.08719769103317e+000,-1.96624192945534e+000

1.37370469830040e+005,-1.08718509449098e+000,-1.99369181071074e+000

1.39288090127379e+005,-1.08717214463432e+000,-2.02152496963992e+000

1.41232479406504e+005,-1.08715883157669e+000,-2.04974676046135e+000

1.43204011348474e+005,-1.08714514515617e+000,-2.07836261229750e+000

1.45203064850745e+005,-1.08713107492791e+000,-2.10737803022773e+000

1.47230024099979e+005,-1.08711661015629e+000,-2.13679859635492e+000

1.49285278645888e+005,-1.08710173980705e+000,-2.16662997088800e+000

1.51369223476094e+005,-1.08708645253888e+000,-2.19687789324028e+000

1.53482259092041e+005,-1.08707073669499e+000,-2.22754818314290e+000

1.55624791585964e+005,-1.08705458029461e+000,-2.25864674177394e+000

1.57797232718936e+005,-1.08703797102388e+000,-2.29017955290421e+000

1.59999999999999e+005,-1.08702089622680e+000,-2.32215268405901e+000

1.62233516766403e+005,-1.08700334289576e+000,-2.35457228769682e+000

1.64498212264969e+005,-1.08698529766204e+000,-2.38744460240409e+000

1.66794521734578e+005,-1.08696674678570e+000,-2.42077595410835e+000

1.69122886489819e+005,-1.08694767614556e+000,-2.45457275730681e+000

1.71483754005805e+005,-1.08692807122874e+000,-2.48884151631451e+000

1.73877578004168e+005,-1.08690791711983e+000,-2.52358882652950e+000

1.76304818540256e+005,-1.08688719849003e+000,-2.55882137571527e+000

1.78765942091554e+005,-1.08686589958573e+000,-2.59454594530306e+000

1.81261421647326e+005,-1.08684400421694e+000,-2.63076941171196e+000

1.83791736799524e+005,-1.08682149574543e+000,-2.66749874768820e+000

1.86357373834951e+005,-1.08679835707256e+000,-2.70474102366311e+000

1.88958825828723e+005,-1.08677457062644e+000,-2.74250340913228e+000

1.91596592739027e+005,-1.08675011834944e+000,-2.78079317405184e+000

1.94271181503206e+005,-1.08672498168472e+000,-2.81961769025744e+000

1.96983106135185e+005,-1.08669914156270e+000,-2.85898443290247e+000

1.99732887824256e+005,-1.08667257838728e+000,-2.89890098191610e+000

2.02521055035243e+005,-1.08664527202129e+000,-2.93937502348487e+000

2.05348143610063e+005,-1.08661720177212e+000,-2.98041435155267e+000

2.08214696870707e+005,-1.08658834637647e+000,-3.02202686934482e+000

2.11121265723661e+005,-1.08655868398498e+000,-3.06422059091264e+000

2.14068408765776e+005,-1.08652819214637e+000,-3.10700364270117e+000

2.17056692391625e+005,-1.08649684779128e+000,-3.15038426513898e+000

2.20086690902357e+005,-1.08646462721545e+000,-3.19437081425159e+000

2.23158986616063e+005,-1.08643150606277e+000,-3.23897176329781e+000

2.26274169979693e+005,-1.08639745930757e+000,-3.28419570443025e+000

2.29432839682530e+005,-1.08636246123680e+000,-3.33005135037935e+000

2.32635602771247e+005,-1.08632648543135e+000,-3.37654753616275e+000

2.35883074766574e+005,-1.08628950474739e+000,-3.42369322081815e+000

2.39175879781588e+005,-1.08625149129671e+000,-3.47149748916327e+000

2.42514650641661e+005,-1.08621241642690e+000,-3.51996955357958e+000

2.45900029006080e+005,-1.08617225070097e+000,-3.56911875582307e+000

2.49332665491357e+005,-1.08613096387632e+000,-3.61895456886161e+000

2.52813219796278e+005,-1.08608852488336e+000,-3.66948659873864e+000

2.56342360828676e+005,-1.08604490180333e+000,-3.72072458646381e+000

2.59920766833993e+005,-1.08600006184592e+000,-3.77267840993244e+000

2.63549125525621e+005,-1.08595397132605e+000,-3.82535808587189e+000

2.67228134217075e+005,-1.08590659564004e+000,-3.87877377181712e+000

2.70958499956006e+005,-1.08585789924151e+000,-3.93293576811520e+000

2.74740939660078e+005,-1.08580784561624e+000,-3.98785451995909e+000

2.78576180254757e+005,-1.08575639725670e+000,-4.04354061945158e+000

2.82464958813007e+005,-1.08570351563600e+000,-4.10000480769898e+000

2.86408022696948e+005,-1.08564916118081e+000,-4.15725797693661e+000

2.90406129701488e+005,-1.08559329324403e+000,-4.21531117268515e+000

2.94460048199957e+005,-1.08553587007655e+000,-4.27417559593839e+000

2.98570557291775e+005,-1.08547684879853e+000,-4.33386260538419e+000

3.02738446952187e+005,-1.08541618536954e+000,-4.39438371965760e+000

3.06964518184081e+005,-1.08535383455855e+000,-4.45575061962796e+000

3.11249583171928e+005,-1.08528974991275e+000,-4.51797515071906e+000

3.15594465437872e+005,-1.08522388372573e+000,-4.58106932526482e+000

3.19999999999997e+005,-1.08515618700504e+000,-4.64504532489909e+000

3.24467033532806e+005,-1.08508660943872e+000,-4.70991550298133e+000

3.28996424529938e+005,-1.08501509936127e+000,-4.77569238705820e+000

3.33589043469155e+005,-1.08494160371860e+000,-4.84238868136250e+000

3.38245772979638e+005,-1.08486606803220e+000,-4.91001726934844e+000

3.42967508011610e+005,-1.08478843636256e+000,-4.97859121626563e+000

3.47755156008335e+005,-1.08470865127160e+000,-5.04812377177109e+000

3.52609637080511e+005,-1.08462665378420e+000,-5.11862837258038e+000

3.57531884183106e+005,-1.08454238334894e+000,-5.19011864515850e+000

3.62522843294651e+005,-1.08445577779780e+000,-5.26260840845166e+000

3.67583473599047e+005,-1.08436677330487e+000,-5.33611167665907e+000

3.72714747669902e+005,-1.08427530434438e+000,-5.41064266204750e+000

3.77917651657445e+005,-1.08418130364736e+000,-5.48621577780726e+000

3.83193185478053e+005,-1.08408470215755e+000,-5.56284564095198e+000

3.88542363006410e+005,-1.08398542898604e+000,-5.64054707526191e+000

3.93966212270369e+005,-1.08388341136542e+000,-5.71933511427108e+000

3.99465775648511e+005,-1.08377857460196e+000,-5.79922500430082e+000

4.05042110070485e+005,-1.08367084202763e+000,-5.88023220753809e+000

4.10696287220124e+005,-1.08356013495033e+000,-5.96237240516103e+000

4.16429393741414e+005,-1.08344637260337e+000,-6.04566150051181e+000

4.22242531447321e+005,-1.08332947209357e+000,-6.13011562231788e+000

4.28136817531551e+005,-1.08320934834830e+000,-6.21575112796177e+000

4.34113384783250e+005,-1.08308591406134e+000,-6.30258460680095e+000

4.40173381804713e+005,-1.08295907963725e+000,-6.39063288353890e+000

4.46317973232124e+005,-1.08282875313497e+000,-6.47991302164579e+000

4.52548339959385e+005,-1.08269484020956e+000,-6.57044232683401e+000

4.58865679365059e+005,-1.08255724405307e+000,-6.66223835058501e+000

4.65271205542494e+005,-1.08241586533385e+000,-6.75531889373017e+000

4.71766149533147e+005,-1.08227060213471e+000,-6.84970201008799e+000

4.78351759563174e+005,-1.08212134988922e+000,-6.94540601015593e+000

4.85029301283321e+005,-1.08196800131714e+000,-7.04244946485930e+000

4.91800058012158e+005,-1.08181044635822e+000,-7.14085120935793e+000

4.98665330982714e+005,-1.08164857210413e+000,-7.24063034691210e+000

5.05626439592555e+005,-1.08148226272947e+000,-7.34180625280676e+000

5.12684721657352e+005,-1.08131139942081e+000,-7.44439857833808e+000

5.19841533667984e+005,-1.08113586030438e+000,-7.54842725486036e+000

5.27098251051240e+005,-1.08095552037182e+000,-7.65391249789705e+000

5.34456268434150e+005,-1.08077025140473e+000,-7.76087481131403e+000

5.41916999912011e+005,-1.08057992189712e+000,-7.86933499155922e+000

