Freq.,VOut,OutRef

1.00000000000000e+004,-2.15757079892328e+001,-2.75318503457457e-001

1.01395947979003e+004,-2.15757090043541e+001,-2.79161789337647e-001

1.02811382665607e+004,-2.15757100480138e+001,-2.83058724758828e-001

1.04246576084112e+004,-2.15757111210141e+001,-2.87010058609557e-001

1.05701804056138e+004,-2.15757122241800e+001,-2.91016550231390e-001

1.07177346253629e+004,-2.15757133583593e+001,-2.95078969564323e-001

1.08673486252606e+004,-2.15757145244241e+001,-2.99198097294757e-001

1.10190511587661e+004,-2.15757157232705e+001,-3.03374725006931e-001

1.11728713807222e+004,-2.15757169558204e+001,-3.07609655331065e-001

1.13288388529580e+004,-2.15757182230211e+001,-3.11903702102000e-001

1.14869835499703e+004,-2.15757195258467e+001,-3.16257690513236e-001

1.16473358646846e+004,-2.15757208652989e+001,-3.20672457274550e-001

1.18099266142953e+004,-2.15757222424070e+001,-3.25148850776848e-001

1.19747870461893e+004,-2.15757236582300e+001,-3.29687731249079e-001

1.21419488439505e+004,-2.15757251138559e+001,-3.34289970928523e-001

1.23114441334492e+004,-2.15757266104039e+001,-3.38956454224954e-001

1.24833054890161e+004,-2.15757281490242e+001,-3.43688077893188e-001

1.26575659397028e+004,-2.15757297308998e+001,-3.48485751202889e-001

1.28342589756290e+004,-2.15757313572465e+001,-3.53350396115459e-001

1.30134185544193e+004,-2.15757330293146e+001,-3.58282947457979e-001

1.31950791077289e+004,-2.15757347483892e+001,-3.63284353107854e-001

1.33792755478611e+004,-2.15757365157921e+001,-3.68355574167826e-001

1.35660432744767e+004,-2.15757383328815e+001,-3.73497585157720e-001

1.37554181813974e+004,-2.15757402010544e+001,-3.78711374196820e-001

1.39474366635040e+004,-2.15757421217469e+001,-3.83997943194176e-001

1.41421356237309e+004,-2.15757440964352e+001,-3.89358308044050e-001

1.43395524801583e+004,-2.15757461266375e+001,-3.94793498815405e-001

1.45397251732031e+004,-2.15757482139141e+001,-4.00304559956863e-001

1.47426921729110e+004,-2.15757503598695e+001,-4.05892550491053e-001

1.49484924863494e+004,-2.15757525661534e+001,-4.11558544220441e-001

1.51571656651040e+004,-2.15757548344616e+001,-4.17303629934432e-001

1.53687518128801e+004,-2.15757571665377e+001,-4.23128911615563e-001

1.55832915932100e+004,-2.15757595641743e+001,-4.29035508654810e-001

1.58008262372675e+004,-2.15757620292144e+001,-4.35024556064411e-001

1.60213975517924e+004,-2.15757645635527e+001,-4.41097204696196e-001

1.62450479271247e+004,-2.15757671691375e+001,-4.47254621461016e-001

1.64718203453514e+004,-2.15757698479711e+001,-4.53497989557544e-001

1.67017583885674e+004,-2.15757726021131e+001,-4.59828508692550e-001

1.69349062472505e+004,-2.15757754336802e+001,-4.66247395316796e-001

1.71713087287550e+004,-2.15757783448490e+001,-4.72755882855908e-001

1.74110112659224e+004,-2.15757813378570e+001,-4.79355221947485e-001

1.76540599258131e+004,-2.15757844150050e+001,-4.86046680680409e-001

1.79005014185594e+004,-2.15757875786578e+001,-4.92831544841970e-001

1.81503831063432e+004,-2.15757908312475e+001,-4.99711118157334e-001

1.84037530124975e+004,-2.15757941752739e+001,-5.06686722548085e-001

1.86606598307361e+004,-2.15757976133073e+001,-5.13759698379418e-001

1.89211529345119e+004,-2.15758011479903e+001,-5.20931404720826e-001

1.91852823865052e+004,-2.15758047820396e+001,-5.28203219605417e-001

1.94530989482457e+004,-2.15758085182485e+001,-5.35576540294566e-001

1.97246540898671e+004,-2.15758123594886e+001,-5.43052783546828e-001

1.99999999999999e+004,-2.15758163087123e+001,-5.50633385888323e-001

2.02791895958005e+004,-2.15758203689549e+001,-5.58319803889729e-001

2.05622765331213e+004,-2.15758245433372e+001,-5.66113514443909e-001

2.08493152168224e+004,-2.15758288350674e+001,-5.74016015051986e-001

2.11403608112276e+004,-2.15758332474442e+001,-5.82028824106612e-001

2.14354692507258e+004,-2.15758377838586e+001,-5.90153481188224e-001

2.17346972505211e+004,-2.15758424477974e+001,-5.98391547354884e-001

2.20381023175322e+004,-2.15758472428451e+001,-6.06744605445346e-001

2.23457427614443e+004,-2.15758521726868e+001,-6.15214260382458e-001

2.26576777059159e+004,-2.15758572411115e+001,-6.23802139478952e-001

2.29739670999406e+004,-2.15758624520144e+001,-6.32509892750124e-001

2.32946717293690e+004,-2.15758678094003e+001,-6.41339193231436e-001

2.36198532285905e+004,-2.15758733173866e+001,-6.50291737298065e-001

2.39495740923785e+004,-2.15758789802062e+001,-6.59369244990607e-001

2.42838976879009e+004,-2.15758848022112e+001,-6.68573460343780e-001

2.46228882668982e+004,-2.15758907878758e+001,-6.77906151722210e-001

2.49666109780322e+004,-2.15758969418000e+001,-6.87369112158759e-001

2.53151318794055e+004,-2.15759032687131e+001,-6.96964159696834e-001

2.56685179512580e+004,-2.15759097734772e+001,-7.06693137741934e-001

2.60268371088386e+004,-2.15759164610911e+001,-7.16557915411244e-001

2.63901582154578e+004,-2.15759233366941e+001,-7.26560387893228e-001

2.67585510957221e+004,-2.15759304055699e+001,-7.36702476812237e-001

2.71320865489533e+004,-2.15759376731503e+001,-7.46986130594957e-001

2.75108363627948e+004,-2.15759451450205e+001,-7.57413324842142e-001

2.78948733270080e+004,-2.15759528269217e+001,-7.67986062711284e-001

2.82842712474618e+004,-2.15759607247571e+001,-7.78706375295679e-001

2.86791049603164e+004,-2.15759688445957e+001,-7.89576322015934e-001

2.90794503464061e+004,-2.15759771926764e+001,-8.00597991015023e-001

2.94853843458219e+004,-2.15759857754142e+001,-8.11773499554399e-001

2.98969849726987e+004,-2.15759945994038e+001,-8.23104994423151e-001

3.03143313302078e+004,-2.15760036714254e+001,-8.34594652347391e-001

3.07375036257601e+004,-2.15760129984496e+001,-8.46244680406446e-001

3.11665831864199e+004,-2.15760225876427e+001,-8.58057316455797e-001

3.16016524745350e+004,-2.15760324463727e+001,-8.70034829554575e-001

3.20427951035848e+004,-2.15760425822142e+001,-8.82179520400828e-001

3.24900958542493e+004,-2.15760530029547e+001,-8.94493721770341e-001

3.29436406907028e+004,-2.15760637166005e+001,-9.06979798964399e-001

3.34035167771346e+004,-2.15760747313829e+001,-9.19640150259885e-001

3.38698124945009e+004,-2.15760860557641e+001,-9.32477207370214e-001

3.43426174575100e+004,-2.15760976984444e+001,-9.45493435908163e-001

3.48220225318448e+004,-2.15761096683680e+001,-9.58691335859625e-001

3.53081198516260e+004,-2.15761219747308e+001,-9.72073442058208e-001

3.58010028371187e+004,-2.15761346269867e+001,-9.85642324672571e-001

3.63007662126863e+004,-2.15761476348552e+001,-9.99400589696329e-001

3.68075060249948e+004,-2.15761610083288e+001,-1.01335087944490e+000

3.73213196614721e+004,-2.15761747576804e+001,-1.02749587306295e+000

3.78423058690237e+004,-2.15761888934718e+001,-1.04183828703213e+000

3.83705647730104e+004,-2.15762034265611e+001,-1.05638087569394e+000

3.89061978964912e+004,-2.15762183681115e+001,-1.07112643177208e+000

3.94493081797342e+004,-2.15762337295994e+001,-1.08607778690757e+000

3.99999999999998e+004,-2.15762495228238e+001,-1.10123781219876e+000

4.05583791916010e+004,-2.15762657599148e+001,-1.11660941874808e+000

4.11245530662425e+004,-2.15762824533431e+001,-1.13219555821823e+000

4.16986304336447e+004,-2.15762996159297e+001,-1.14799922339497e+000

4.22807216224550e+004,-2.15763172608553e+001,-1.16402344875847e+000

4.28709385014515e+004,-2.15763354016708e+001,-1.18027131106001e+000

4.34693945010421e+004,-2.15763540523076e+001,-1.19674592990981e+000

4.40762046350642e+004,-2.15763732270879e+001,-1.21345046837146e+000

4.46914855228886e+004,-2.15763929407364e+001,-1.23038813356277e+000

4.53153554118317e+004,-2.15764132083908e+001,-1.24756217726888e+000

4.59479341998812e+004,-2.15764340456137e+001,-1.26497589656028e+000

4.65893434587380e+004,-2.15764554684046e+001,-1.28263263442040e+000

4.72397064571810e+004,-2.15764774932121e+001,-1.30053578038093e+000

4.78991481847569e+004,-2.15765001369464e+001,-1.31868877116882e+000

4.85677953758016e+004,-2.15765234169921e+001,-1.33709509135827e+000

4.92457765337964e+004,-2.15765473512220e+001,-1.35575827403279e+000

4.99332219560642e+004,-2.15765719580101e+001,-1.37468190145854e+000

5.06302637588109e+004,-2.15765972562462e+001,-1.39386960576414e+000

5.13370359025159e+004,-2.15766232653499e+001,-1.41332506963002e+000

5.20536742176771e+004,-2.15766500052858e+001,-1.43305202698813e+000

5.27803164309155e+004,-2.15766774965786e+001,-1.45305426373231e+000

5.35171021914442e+004,-2.15767057603287e+001,-1.47333561843334e+000

5.42641730979066e+004,-2.15767348182285e+001,-1.49389998307093e+000

5.50216727255895e+004,-2.15767646925788e+001,-1.51475130376840e+000

5.57897466540159e+004,-2.15767954063059e+001,-1.53589358154385e+000

5.65685424949235e+004,-2.15768269829791e+001,-1.55733087306504e+000

5.73582099206328e+004,-2.15768594468289e+001,-1.57906729142017e+000

5.81589006928121e+004,-2.15768928227647e+001,-1.60110700689601e+000

5.89707686916437e+004,-2.15769271363951e+001,-1.62345424776689e+000

5.97939699453972e+004,-2.15769624140461e+001,-1.64611330109409e+000

6.06286626604156e+004,-2.15769986827823e+001,-1.66908851353719e+000

6.14750072515201e+004,-2.15770359704266e+001,-1.69238429217580e+000

6.23331663728396e+004,-2.15770743055822e+001,-1.71600510534120e+000

6.32033049490698e+004,-2.15771137176536e+001,-1.73995548346136e+000

6.40855902071694e+004,-2.15771542368699e+001,-1.76424001991331e+000

6.49801917084985e+004,-2.15771958943070e+001,-1.78886337189352e+000

6.58872813814055e+004,-2.15772387219118e+001,-1.81383026129233e+000

6.68070335542691e+004,-2.15772827525262e+001,-1.83914547558607e+000

6.77396249890018e+004,-2.15773280199125e+001,-1.86481386873653e+000

6.86852349150199e+004,-2.15773745587785e+001,-1.89084036210700e+000

6.96440450636895e+004,-2.15774224048045e+001,-1.91722994538597e+000

7.06162397032520e+004,-2.15774715946700e+001,-1.94398767752603e+000

7.16020056742374e+004,-2.15775221660817e+001,-1.97111868769455e+000

7.26015324253724e+004,-2.15775741578024e+001,-1.99862817623584e+000

7.36150120499896e+004,-2.15776276096801e+001,-2.02652141564760e+000

7.46426393229441e+004,-2.15776825626783e+001,-2.05480375156958e+000

7.56846117380472e+004,-2.15777390589074e+001,-2.08348060378474e+000

7.67411295460207e+004,-2.15777971416564e+001,-2.11255746723441e+000

7.78123957929823e+004,-2.15778568554258e+001,-2.14203991304631e+000

7.88986163594682e+004,-2.15779182459612e+001,-2.17193358957610e+000

7.99999999999995e+004,-2.15779813602884e+001,-2.20224422346276e+000

8.11167583832018e+004,-2.15780462467486e+001,-2.23297762069729e+000

8.22491061324848e+004,-2.15781129550352e+001,-2.26413966770557e+000

8.33972608672892e+004,-2.15781815362313e+001,-2.29573633244645e+000

8.45614432449099e+004,-2.15782520428487e+001,-2.32777366552097e+000

8.57418770029029e+004,-2.15783245288672e+001,-2.36025780129961e+000

8.69387890020841e+004,-2.15783990497758e+001,-2.39319495906242e+000

8.81524092701283e+004,-2.15784756626141e+001,-2.42659144415231e+000

8.93829710457770e+004,-2.15785544260161e+001,-2.46045364914660e+000

9.06307108236633e+004,-2.15786354002540e+001,-2.49478805504027e+000

9.18958683997622e+004,-2.15787186472836e+001,-2.52960123244701e+000

9.31786869174758e+004,-2.15788042307916e+001,-2.56489984281322e+000

9.44794129143618e+004,-2.15788922162429e+001,-2.60069063964961e+000

9.57982963695136e+004,-2.15789826709304e+001,-2.63698046977667e+000

9.71355907516031e+004,-2.15790756640256e+001,-2.67377627458742e+000

9.84915530675926e+004,-2.15791712666307e+001,-2.71108509132427e+000

9.98664439121282e+004,-2.15792695518317e+001,-2.74891405437461e+000

1.01260527517622e+005,-2.15793705947538e+001,-2.78727039657950e+000

1.02674071805032e+005,-2.15794744726179e+001,-2.82616145056132e+000

1.04107348435354e+005,-2.15795812647978e+001,-2.86559465006632e+000

1.05560632861831e+005,-2.15796910528809e+001,-2.90557753132512e+000

1.07034204382888e+005,-2.15798039207284e+001,-2.94611773442889e+000

1.08528346195813e+005,-2.15799199545387e+001,-2.98722300472269e+000

1.10043345451179e+005,-2.15800392429116e+001,-3.02890119421784e+000

1.11579493308032e+005,-2.15801618769148e+001,-3.07116026301747e+000

1.13137084989847e+005,-2.15802879501520e+001,-3.11400828076447e+000

1.14716419841265e+005,-2.15804175588327e+001,-3.15745342810271e+000

1.16317801385624e+005,-2.15805508018439e+001,-3.20150399815868e+000

1.17941537383287e+005,-2.15806877808242e+001,-3.24616839804003e+000

1.19587939890794e+005,-2.15808286002394e+001,-3.29145515035133e+000

1.21257325320831e+005,-2.15809733674599e+001,-3.33737289472930e+000

1.22950014503040e+005,-2.15811221928414e+001,-3.38393038939571e+000

1.24666332745679e+005,-2.15812751898059e+001,-3.43113651272760e+000

1.26406609898139e+005,-2.15814324749267e+001,-3.47900026484809e+000

1.28171180414339e+005,-2.15815941680146e+001,-3.52753076923354e+000

1.29960383416997e+005,-2.15817603922067e+001,-3.57673727434095e+000

1.31774562762811e+005,-2.15819312740573e+001,-3.62662915525376e+000

1.33614067108538e+005,-2.15821069436321e+001,-3.67721591534548e+000

1.35479249978003e+005,-2.15822875346036e+001,-3.72850718796472e+000

1.37370469830040e+005,-2.15824731843503e+001,-3.78051273813707e+000

1.39288090127379e+005,-2.15826640340574e+001,-3.83324246428671e+000

1.41232479406504e+005,-2.15828602288214e+001,-3.88670639997823e+000

1.43204011348474e+005,-2.15830619177562e+001,-3.94091471567711e+000

1.45203064850745e+005,-2.15832692541029e+001,-3.99587772052892e+000

1.47230024099979e+005,-2.15834823953421e+001,-4.05160586416053e+000

1.49285278645888e+005,-2.15837015033095e+001,-4.10810973849711e+000

1.51369223476094e+005,-2.15839267443138e+001,-4.16540007960234e+000

1.53482259092041e+005,-2.15841582892587e+001,-4.22348776953619e+000

1.55624791585964e+005,-2.15843963137674e+001,-4.28238383823320e+000

1.57797232718936e+005,-2.15846409983104e+001,-4.34209946540000e+000

1.59999999999999e+005,-2.15848925283369e+001,-4.40264598243328e+000

1.62233516766403e+005,-2.15851510944095e+001,-4.46403487435694e+000

1.64498212264969e+005,-2.15854168923423e+001,-4.52627778177919e+000

1.66794521734578e+005,-2.15856901233428e+001,-4.58938650286983e+000

1.69122886489819e+005,-2.15859709941572e+001,-4.65337299535621e+000

1.71483754005805e+005,-2.15862597172194e+001,-4.71824937854076e+000

1.73877578004168e+005,-2.15865565108047e+001,-4.78402793533582e+000

1.76304818540256e+005,-2.15868615991858e+001,-4.85072111432042e+000

1.78765942091554e+005,-2.15871752127945e+001,-4.91834153181509e+000

1.81261421647326e+005,-2.15874975883864e+001,-4.98690197397693e+000

1.83791736799524e+005,-2.15878289692104e+001,-5.05641539891357e+000

1.86357373834951e+005,-2.15881696051818e+001,-5.12689493881759e+000

1.88958825828723e+005,-2.15885197530609e+001,-5.19835390211799e+000

1.91596592739027e+005,-2.15888796766349e+001,-5.27080577565325e+000

1.94271181503206e+005,-2.15892496469054e+001,-5.34426422686178e+000

1.96983106135185e+005,-2.15896299422796e+001,-5.41874310599110e+000

1.99732887824256e+005,-2.15900208487672e+001,-5.49425644832648e+000

2.02521055035243e+005,-2.15904226601818e+001,-5.57081847643738e+000

2.05348143610063e+005,-2.15908356783472e+001,-5.64844360244161e+000

2.08214696870707e+005,-2.15912602133090e+001,-5.72714643028945e+000

2.11121265723661e+005,-2.15916965835512e+001,-5.80694175806224e+000

2.14068408765776e+005,-2.15921451162186e+001,-5.88784458029134e+000

2.17056692391625e+005,-2.15926061473437e+001,-5.96987009029275e+000

2.20086690902357e+005,-2.15930800220805e+001,-6.05303368251903e+000

2.23158986616063e+005,-2.15935670949427e+001,-6.13735095492718e+000

2.26274169979693e+005,-2.15940677300482e+001,-6.22283771136315e+000

2.29432839682530e+005,-2.15945823013698e+001,-6.30950996396249e+000

2.32635602771247e+005,-2.15951111929913e+001,-6.39738393556500e+000

2.35883074766574e+005,-2.15956547993700e+001,-6.48647606214582e+000

2.39175879781588e+005,-2.15962135256054e+001,-6.57680299525983e+000

2.42514650641661e+005,-2.15967877877145e+001,-6.66838160450117e+000

2.45900029006080e+005,-2.15973780129132e+001,-6.76122897997494e+000

2.49332665491357e+005,-2.15979846399043e+001,-6.85536243478286e+000

2.52813219796278e+005,-2.15986081191728e+001,-6.95079950752119e+000

2.56342360828676e+005,-2.15992489132871e+001,-7.04755796478975e+000

2.59920766833993e+005,-2.15999074972079e+001,-7.14565580371347e+000

2.63549125525621e+005,-2.16005843586040e+001,-7.24511125447287e+000

2.67228134217075e+005,-2.16012799981749e+001,-7.34594278284590e+000

2.70958499956006e+005,-2.16019949299817e+001,-7.44816909275783e+000

2.74740939660078e+005,-2.16027296817838e+001,-7.55180912884028e+000

2.78576180254757e+005,-2.16034847953849e+001,-7.65688207899784e+000

2.82464958813007e+005,-2.16042608269858e+001,-7.76340737698069e+000

2.86408022696948e+005,-2.16050583475448e+001,-7.87140470496482e+000

2.90406129701488e+005,-2.16058779431468e+001,-7.98089399613585e+000

2.94460048199957e+005,-2.16067202153793e+001,-8.09189543727768e+000

2.98570557291775e+005,-2.16075857817178e+001,-8.20442947136509e+000

3.02738446952187e+005,-2.16084752759190e+001,-8.31851680015738e+000

3.06964518184081e+005,-2.16093893484216e+001,-8.43417838679438e+000

3.11249583171928e+005,-2.16103286667568e+001,-8.55143545839215e+000

3.15594465437872e+005,-2.16112939159669e+001,-8.67030950863823e+000

3.19999999999997e+005,-2.16122857990324e+001,-8.79082230038445e+000

3.24467033532806e+005,-2.16133050373082e+001,-8.91299586823705e+000

3.28996424529938e+005,-2.16143523709687e+001,-9.03685252114268e+000

3.33589043469155e+005,-2.16154285594622e+001,-9.16241484496791e+000

3.38245772979638e+005,-2.16165343819735e+001,-9.28970570507328e+000

3.42967508011610e+005,-2.16176706378972e+001,-9.41874824887801e+000

3.47755156008335e+005,-2.16188381473192e+001,-9.54956590841565e+000

3.52609637080511e+005,-2.16200377515078e+001,-9.68218240287980e+000

3.57531884183106e+005,-2.16212703134151e+001,-9.81662174115546e+000

3.62522843294651e+005,-2.16225367181866e+001,-9.95290822433924e+000

3.67583473599047e+005,-2.16238378736823e+001,-1.00910664482417e+001

3.72714747669902e+005,-2.16251747110058e+001,-1.02311213058751e+001

3.77917651657445e+005,-2.16265481850448e+001,-1.03730979899213e+001

3.83193185478053e+005,-2.16279592750201e+001,-1.05170219951807e+001

3.88542363006410e+005,-2.16294089850460e+001,-1.06629191209981e+001

3.93966212270369e+005,-2.16308983446997e+001,-1.08108154736678e+001

3.99465775648511e+005,-2.16324284096011e+001,-1.09607374688104e+001

4.05042110070485e+005,-2.16340002620035e+001,-1.11127118337256e+001

4.10696287220124e+005,-2.16356150113933e+001,-1.12667656097145e+001

4.16429393741414e+005,-2.16372737951010e+001,-1.14229261543725e+001

4.22242531447321e+005,-2.16389777789221e+001,-1.15812211438497e+001

4.28136817531551e+005,-2.16407281577485e+001,-1.17416785750761e+001

4.34113384783250e+005,-2.16425261562101e+001,-1.19043267679524e+001

4.40173381804713e+005,-2.16443730293275e+001,-1.20691943675008e+001

4.46317973232124e+005,-2.16462700631738e+001,-1.22363103459771e+001

4.52548339959385e+005,-2.16482185755488e+001,-1.24057040049395e+001

4.58865679365059e+005,-2.16502199166616e+001,-1.25774049772735e+001

4.65271205542494e+005,-2.16522754698260e+001,-1.27514432291706e+001

4.71766149533147e+005,-2.16543866521640e+001,-1.29278490620578e+001

4.78351759563174e+005,-2.16565549153218e+001,-1.31066531144768e+001

4.85029301283321e+005,-2.16587817461955e+001,-1.32878863639103e+001

4.91800058012158e+005,-2.16610686676672e+001,-1.34715801285517e+001

4.98665330982714e+005,-2.16634172393520e+001,-1.36577660690193e+001

5.05626439592555e+005,-2.16658290583550e+001,-1.38464761900084e+001

5.12684721657352e+005,-2.16683057600396e+001,-1.40377428418825e+001

5.19841533667984e+005,-2.16708490188055e+001,-1.42315987221987e+001

5.27098251051240e+005,-2.16734605488774e+001,-1.44280768771664e+001

5.34456268434150e+005,-2.16761421051042e+001,-1.46272107030359e+001

5.41916999912011e+005,-2.16788954837687e+001,-1.48290339474143e+001

