Freq.,VOut,OutRef

1.00000000000000e+004,-2.36644436661481e+001,-2.89252346000331e-001

1.01395947979003e+004,-2.36644448746966e+001,-2.93290137475452e-001

1.02811382665607e+004,-2.36644461172215e+001,-2.97384293535026e-001

1.04246576084112e+004,-2.36644473946777e+001,-3.01535600962887e-001

1.05701804056138e+004,-2.36644487080472e+001,-3.05744857522842e-001

1.07177346253629e+004,-2.36644500583399e+001,-3.10012872113282e-001

1.08673486252606e+004,-2.36644514465935e+001,-3.14340464924766e-001

1.10190511587661e+004,-2.36644528738754e+001,-3.18728467591922e-001

1.11728713807222e+004,-2.36644543412826e+001,-3.23177723360822e-001

1.13288388529580e+004,-2.36644558499433e+001,-3.27689087243371e-001

1.14869835499703e+004,-2.36644574010170e+001,-3.32263426187073e-001

1.16473358646846e+004,-2.36644589956962e+001,-3.36901619237914e-001

1.18099266142953e+004,-2.36644606352068e+001,-3.41604557712531e-001

1.19747870461893e+004,-2.36644623208090e+001,-3.46373145365458e-001

1.21419488439505e+004,-2.36644640537986e+001,-3.51208298566045e-001

1.23114441334492e+004,-2.36644658355076e+001,-3.56110946473796e-001

1.24833054890161e+004,-2.36644676673059e+001,-3.61082031214146e-001

1.26575659397028e+004,-2.36644695506014e+001,-3.66122508062922e-001

1.28342589756290e+004,-2.36644714868418e+001,-3.71233345628404e-001

1.30134185544193e+004,-2.36644734775156e+001,-3.76415526036223e-001

1.31950791077289e+004,-2.36644755241529e+001,-3.81670045118889e-001

1.33792755478611e+004,-2.36644776283271e+001,-3.86997912607718e-001

1.35660432744767e+004,-2.36644797916556e+001,-3.92400152325551e-001

1.37554181813974e+004,-2.36644820158012e+001,-3.97877802383985e-001

1.39474366635040e+004,-2.36644843024737e+001,-4.03431915382805e-001

1.41421356237309e+004,-2.36644866534308e+001,-4.09063558610191e-001

1.43395524801583e+004,-2.36644890704797e+001,-4.14773814250617e-001

1.45397251732031e+004,-2.36644915554783e+001,-4.20563779590845e-001

1.47426921729110e+004,-2.36644941103368e+001,-4.26434567230635e-001

1.49484924863494e+004,-2.36644967370191e+001,-4.32387305296190e-001

1.51571656651040e+004,-2.36644994375441e+001,-4.38423137658598e-001

1.53687518128801e+004,-2.36645022139877e+001,-4.44543224150146e-001

1.55832915932100e+004,-2.36645050684841e+001,-4.50748740789323e-001

1.58008262372675e+004,-2.36645080032274e+001,-4.57040880006325e-001

1.60213975517924e+004,-2.36645110204735e+001,-4.63420850870294e-001

1.62450479271247e+004,-2.36645141225416e+001,-4.69889879324391e-001

1.64718203453514e+004,-2.36645173118161e+001,-4.76449208417389e-001

1.67017583885674e+004,-2.36645205907484e+001,-4.83100098545844e-001

1.69349062472505e+004,-2.36645239618589e+001,-4.89843827692827e-001

1.71713087287550e+004,-2.36645274277388e+001,-4.96681691675714e-001

1.74110112659224e+004,-2.36645309910521e+001,-5.03615004392359e-001

1.76540599258131e+004,-2.36645346545378e+001,-5.10645098075137e-001

1.79005014185594e+004,-2.36645384210117e+001,-5.17773323547059e-001

1.81503831063432e+004,-2.36645422933688e+001,-5.25001050478068e-001

1.84037530124975e+004,-2.36645462745854e+001,-5.32329667650978e-001

1.86606598307361e+004,-2.36645503677218e+001,-5.39760583225676e-001

1.89211529345119e+004,-2.36645545759238e+001,-5.47295225010902e-001

1.91852823865052e+004,-2.36645589024262e+001,-5.54935040735691e-001

1.94530989482457e+004,-2.36645633505540e+001,-5.62681498330728e-001

1.97246540898671e+004,-2.36645679237263e+001,-5.70536086207216e-001

1.99999999999999e+004,-2.36645726254581e+001,-5.78500313541592e-001

2.02791895958005e+004,-2.36645774593629e+001,-5.86575710569161e-001

2.05622765331213e+004,-2.36645824291562e+001,-5.94763828872146e-001

2.08493152168224e+004,-2.36645875386576e+001,-6.03066241680812e-001

2.11403608112276e+004,-2.36645927917941e+001,-6.11484544175199e-001

2.14354692507258e+004,-2.36645981926033e+001,-6.20020353788174e-001

2.17346972505211e+004,-2.36646037452360e+001,-6.28675310518015e-001

2.20381023175322e+004,-2.36646094539596e+001,-6.37451077243492e-001

2.23457427614443e+004,-2.36646153231618e+001,-6.46349340038471e-001

2.26576777059159e+004,-2.36646213573533e+001,-6.55371808500205e-001

2.29739670999406e+004,-2.36646275611716e+001,-6.64520216073728e-001

2.32946717293690e+004,-2.36646339393846e+001,-6.73796320384705e-001

2.36198532285905e+004,-2.36646404968942e+001,-6.83201903577629e-001

2.39495740923785e+004,-2.36646472387399e+001,-6.92738772655169e-001

2.42838976879009e+004,-2.36646541701031e+001,-7.02408759826403e-001

2.46228882668982e+004,-2.36646612963104e+001,-7.12213722856191e-001

2.49666109780322e+004,-2.36646686228384e+001,-7.22155545423132e-001

2.53151318794055e+004,-2.36646761553177e+001,-7.32236137476818e-001

2.56685179512580e+004,-2.36646838995365e+001,-7.42457435608903e-001

2.60268371088386e+004,-2.36646918614464e+001,-7.52821403418529e-001

2.63901582154578e+004,-2.36647000471658e+001,-7.63330031892361e-001

2.67585510957221e+004,-2.36647084629852e+001,-7.73985339783772e-001

2.71320865489533e+004,-2.36647171153716e+001,-7.84789374000537e-001

2.75108363627948e+004,-2.36647260109740e+001,-7.95744209995743e-001

2.78948733270080e+004,-2.36647351566280e+001,-8.06851952165245e-001

2.82842712474618e+004,-2.36647445593614e+001,-8.18114734250735e-001

2.86791049603164e+004,-2.36647542263996e+001,-8.29534719748713e-001

2.90794503464061e+004,-2.36647641651705e+001,-8.41114102323596e-001

2.94853843458219e+004,-2.36647743833110e+001,-8.52855106227583e-001

2.98969849726987e+004,-2.36647848886729e+001,-8.64759986725240e-001

3.03143313302078e+004,-2.36647956893281e+001,-8.76831030527286e-001

3.07375036257601e+004,-2.36648067935752e+001,-8.89070556227001e-001

3.11665831864199e+004,-2.36648182099464e+001,-9.01480914741379e-001

3.16016524745350e+004,-2.36648299472133e+001,-9.14064489764360e-001

3.20427951035848e+004,-2.36648420143940e+001,-9.26823698219401e-001

3.24900958542493e+004,-2.36648544207598e+001,-9.39760990723460e-001

3.29436406907028e+004,-2.36648671758425e+001,-9.52878852054696e-001

3.34035167771346e+004,-2.36648802894418e+001,-9.66179801626633e-001

3.38698124945009e+004,-2.36648937716325e+001,-9.79666393971411e-001

3.43426174575100e+004,-2.36649076327725e+001,-9.93341219224704e-001

3.48220225318448e+004,-2.36649218835104e+001,-1.00720690362461e+000

3.53081198516260e+004,-2.36649365347943e+001,-1.02126611000875e+000

3.58010028371187e+004,-2.36649515978793e+001,-1.03552153832648e+000

3.63007662126863e+004,-2.36649670843371e+001,-1.04997592615138e+000

3.68075060249948e+004,-2.36649830060640e+001,-1.06463204920536e+000

3.73213196614721e+004,-2.36649993752907e+001,-1.07949272188868e+000

3.78423058690237e+004,-2.36650162045910e+001,-1.09456079781582e+000

3.83705647730104e+004,-2.36650335068923e+001,-1.10983917035984e+000

3.89061978964912e+004,-2.36650512954847e+001,-1.12533077320447e+000

3.94493081797342e+004,-2.36650695840315e+001,-1.14103858090472e+000

3.99999999999998e+004,-2.36650883865798e+001,-1.15696560945104e+000

4.05583791916010e+004,-2.36651077175710e+001,-1.17311491684719e+000

4.11245530662425e+004,-2.36651275918521e+001,-1.18948960369088e+000

4.16986304336447e+004,-2.36651480246869e+001,-1.20609281376497e+000

4.22807216224550e+004,-2.36651690317676e+001,-1.22292773463676e+000

4.28709385014515e+004,-2.36651906292273e+001,-1.23999759826312e+000

4.34693945010421e+004,-2.36652128336517e+001,-1.25730568160858e+000

4.40762046350642e+004,-2.36652356620922e+001,-1.27485530726611e+000

4.46914855228886e+004,-2.36652591320790e+001,-1.29264984409055e+000

4.53153554118317e+004,-2.36652832616343e+001,-1.31069270783906e+000

4.59479341998812e+004,-2.36653080692859e+001,-1.32898736182124e+000

4.65893434587380e+004,-2.36653335740820e+001,-1.34753731755593e+000

4.72397064571810e+004,-2.36653597956053e+001,-1.36634613543954e+000

4.78991481847569e+004,-2.36653867539880e+001,-1.38541742542223e+000

4.85677953758016e+004,-2.36654144699275e+001,-1.40475484769304e+000

4.92457765337964e+004,-2.36654429647017e+001,-1.42436211337480e+000

4.99332219560642e+004,-2.36654722601859e+001,-1.44424298522929e+000

5.06302637588109e+004,-2.36655023788689e+001,-1.46440127836866e+000

5.13370359025159e+004,-2.36655333438709e+001,-1.48484086098150e+000

5.20536742176771e+004,-2.36655651789604e+001,-1.50556565506439e+000

5.27803164309155e+004,-2.36655979085727e+001,-1.52657963716610e+000

5.35171021914442e+004,-2.36656315578290e+001,-1.54788683913901e+000

5.42641730979066e+004,-2.36656661525548e+001,-1.56949134890474e+000

5.50216727255895e+004,-2.36657017193001e+001,-1.59139731122593e+000

5.57897466540159e+004,-2.36657382853597e+001,-1.61360892849100e+000

5.65685424949235e+004,-2.36657758787937e+001,-1.63613046150902e+000

5.73582099206328e+004,-2.36658145284493e+001,-1.65896623031406e+000

5.81589006928121e+004,-2.36658542639825e+001,-1.68212061498189e+000

5.89707686916437e+004,-2.36658951158810e+001,-1.70559805645736e+000

5.97939699453972e+004,-2.36659371154873e+001,-1.72940305739068e+000

6.06286626604156e+004,-2.36659802950224e+001,-1.75354018298909e+000

6.14750072515201e+004,-2.36660246876110e+001,-1.77801406187578e+000

6.23331663728396e+004,-2.36660703273058e+001,-1.80282938696298e+000

6.32033049490698e+004,-2.36661172491145e+001,-1.82799091633431e+000

6.40855902071694e+004,-2.36661654890256e+001,-1.85350347414175e+000

6.49801917084985e+004,-2.36662150840364e+001,-1.87937195151242e+000

6.58872813814055e+004,-2.36662660721807e+001,-1.90560130746813e+000

6.68070335542691e+004,-2.36663184925583e+001,-1.93219656985589e+000

6.77396249890018e+004,-2.36663723853641e+001,-1.95916283629362e+000

6.86852349150199e+004,-2.36664277919191e+001,-1.98650527512581e+000

6.96440450636895e+004,-2.36664847547022e+001,-2.01422912639100e+000

7.06162397032520e+004,-2.36665433173815e+001,-2.04233970280663e+000

7.16020056742374e+004,-2.36666035248482e+001,-2.07084239076044e+000

7.26015324253724e+004,-2.36666654232508e+001,-2.09974265132029e+000

7.36150120499896e+004,-2.36667290600296e+001,-2.12904602125458e+000

7.46426393229441e+004,-2.36667944839534e+001,-2.15875811406582e+000

7.56846117380472e+004,-2.36668617451558e+001,-2.18888462103888e+000

7.67411295460207e+004,-2.36669308951740e+001,-2.21943131230244e+000

7.78123957929823e+004,-2.36670019869872e+001,-2.25040403790405e+000

7.88986163594682e+004,-2.36670750750573e+001,-2.28180872889913e+000

7.99999999999995e+004,-2.36671502153698e+001,-2.31365139845419e+000

8.11167583832018e+004,-2.36672274654766e+001,-2.34593814296399e+000

8.22491061324848e+004,-2.36673068845393e+001,-2.37867514318393e+000

8.33972608672892e+004,-2.36673885333740e+001,-2.41186866537610e+000

8.45614432449099e+004,-2.36674724744976e+001,-2.44552506246991e+000

8.57418770029029e+004,-2.36675587721746e+001,-2.47965077523908e+000

8.69387890020841e+004,-2.36676474924664e+001,-2.51425233349093e+000

8.81524092701283e+004,-2.36677387032805e+001,-2.54933635727413e+000

8.93829710457770e+004,-2.36678324744223e+001,-2.58490955809853e+000

9.06307108236633e+004,-2.36679288776475e+001,-2.62097874017322e+000

9.18958683997622e+004,-2.36680279867163e+001,-2.65755080165774e+000

9.31786869174758e+004,-2.36681298774494e+001,-2.69463273593102e+000

9.44794129143618e+004,-2.36682346277847e+001,-2.73223163287436e+000

9.57982963695136e+004,-2.36683423178361e+001,-2.77035468017314e+000

9.71355907516031e+004,-2.36684530299541e+001,-2.80900916463100e+000

9.84915530675926e+004,-2.36685668487875e+001,-2.84820247350422e+000

9.98664439121282e+004,-2.36686838613471e+001,-2.88794209584901e+000

1.01260527517622e+005,-2.36688041570713e+001,-2.92823562388855e+000

1.02674071805032e+005,-2.36689278278931e+001,-2.96909075439467e+000

1.04107348435354e+005,-2.36690549683091e+001,-3.01051529008724e+000

1.05560632861831e+005,-2.36691856754506e+001,-3.05251714104978e+000

1.07034204382888e+005,-2.36693200491562e+001,-3.09510432616469e+000

1.08528346195813e+005,-2.36694581920468e+001,-3.13828497456186e+000

1.10043345451179e+005,-2.36696002096020e+001,-3.18206732708798e+000

1.11579493308032e+005,-2.36697462102398e+001,-3.22645973779265e+000

1.13137084989847e+005,-2.36698963053968e+001,-3.27147067543060e+000

1.14716419841265e+005,-2.36700506096120e+001,-3.31710872498364e+000

1.16317801385624e+005,-2.36702092406119e+001,-3.36338258920022e+000

1.17941537383287e+005,-2.36703723193987e+001,-3.41030109015153e+000

1.19587939890794e+005,-2.36705399703401e+001,-3.45787317080725e+000

1.21257325320831e+005,-2.36707123212621e+001,-3.50610789662939e+000

1.22950014503040e+005,-2.36708895035439e+001,-3.55501445718450e+000

1.24666332745679e+005,-2.36710716522159e+001,-3.60460216777243e+000

1.26406609898139e+005,-2.36712589060594e+001,-3.65488047107764e+000

1.28171180414339e+005,-2.36714514077098e+001,-3.70585893883496e+000

1.29960383416997e+005,-2.36716493037625e+001,-3.75754727351618e+000

1.31774562762811e+005,-2.36718527448811e+001,-3.80995531003597e+000

1.33614067108538e+005,-2.36720618859089e+001,-3.86309301747522e+000

1.35479249978003e+005,-2.36722768859832e+001,-3.91697050082364e+000

1.37370469830040e+005,-2.36724979086529e+001,-3.97159800274276e+000

1.39288090127379e+005,-2.36727251219988e+001,-4.02698590534600e+000

1.41232479406504e+005,-2.36729586987574e+001,-4.08314473199858e+000

1.43204011348474e+005,-2.36731988164481e+001,-4.14008514913772e+000

1.45203064850745e+005,-2.36734456575031e+001,-4.19781796811002e+000

1.47230024099979e+005,-2.36736994094015e+001,-4.25635414702952e+000

1.49285278645888e+005,-2.36739602648066e+001,-4.31570479265425e+000

1.51369223476094e+005,-2.36742284217067e+001,-4.37588116228225e+000

1.53482259092041e+005,-2.36745040835599e+001,-4.43689466566666e+000

1.55624791585964e+005,-2.36747874594422e+001,-4.49875686694965e+000

1.57797232718936e+005,-2.36750787641998e+001,-4.56147948661663e+000

1.59999999999999e+005,-2.36753782186057e+001,-4.62507440346802e+000

1.62233516766403e+005,-2.36756860495195e+001,-4.68955365661109e+000

1.64498212264969e+005,-2.36760024900522e+001,-4.75492944747052e+000

1.66794521734578e+005,-2.36763277797350e+001,-4.82121414181760e+000

1.69122886489819e+005,-2.36766621646917e+001,-4.88842027181906e+000

1.71483754005805e+005,-2.36770058978172e+001,-4.95656053810272e+000

1.73877578004168e+005,-2.36773592389587e+001,-5.02564781184495e+000

1.76304818540256e+005,-2.36777224551030e+001,-5.09569513687265e+000

1.78765942091554e+005,-2.36780958205680e+001,-5.16671573178660e+000

1.81261421647326e+005,-2.36784796171989e+001,-5.23872299210146e+000

1.83791736799524e+005,-2.36788741345696e+001,-5.31173049240411e+000

1.86357373834951e+005,-2.36792796701896e+001,-5.38575198852988e+000

1.88958825828723e+005,-2.36796965297153e+001,-5.46080141975557e+000

1.91596592739027e+005,-2.36801250271672e+001,-5.53689291101049e+000

1.94271181503206e+005,-2.36805654851529e+001,-5.61404077510422e+000

1.96983106135185e+005,-2.36810182350942e+001,-5.69225951497116e+000

1.99732887824256e+005,-2.36814836174621e+001,-5.77156382593108e+000

2.02521055035243e+005,-2.36819619820156e+001,-5.85196859796643e+000

2.05348143610063e+005,-2.36824536880473e+001,-5.93348891801473e+000

2.08214696870707e+005,-2.36829591046357e+001,-6.01614007227672e+000

2.11121265723661e+005,-2.36834786109022e+001,-6.09993754853971e+000

2.14068408765776e+005,-2.36840125962760e+001,-6.18489703851404e+000

2.17056692391625e+005,-2.36845614607639e+001,-6.27103444018576e+000

2.20086690902357e+005,-2.36851256152282e+001,-6.35836586018126e+000

2.23158986616063e+005,-2.36857054816704e+001,-6.44690761614518e+000

2.26274169979693e+005,-2.36863014935218e+001,-6.53667623913223e+000

2.29432839682530e+005,-2.36869140959413e+001,-6.62768847600870e+000

2.32635602771247e+005,-2.36875437461205e+001,-6.71996129186753e+000

2.35883074766574e+005,-2.36881909135955e+001,-6.81351187245260e+000

2.39175879781588e+005,-2.36888560805667e+001,-6.90835762659406e+000

2.42514650641661e+005,-2.36895397422256e+001,-7.00451618865247e+000

2.45900029006080e+005,-2.36902424070899e+001,-7.10200542097200e+000

2.49332665491357e+005,-2.36909645973456e+001,-7.20084341634130e+000

2.52813219796278e+005,-2.36917068491977e+001,-7.30104850046110e+000

2.56342360828676e+005,-2.36924697132292e+001,-7.40263923441891e+000

2.59920766833993e+005,-2.36932537547673e+001,-7.50563441716850e+000

2.63549125525621e+005,-2.36940595542588e+001,-7.61005308801402e+000

2.67228134217075e+005,-2.36948877076541e+001,-7.71591452909729e+000

2.70958499956006e+005,-2.36957388267992e+001,-7.82323826788810e+000

2.74740939660078e+005,-2.36966135398374e+001,-7.93204407967557e+000

2.78576180254757e+005,-2.36975124916187e+001,-8.04235199006005e+000

2.82464958813007e+005,-2.36984363441195e+001,-8.15418227744461e+000

2.86408022696948e+005,-2.36993857768710e+001,-8.26755547552360e+000

2.90406129701488e+005,-2.37003614873968e+001,-8.38249237576921e+000

2.94460048199957e+005,-2.37013641916601e+001,-8.49901402991322e+000

2.98570557291775e+005,-2.37023946245205e+001,-8.61714175242250e+000

3.02738446952187e+005,-2.37034535402009e+001,-8.73689712296850e+000

3.06964518184081e+005,-2.37045417127638e+001,-8.85830198888746e+000

3.11249583171928e+005,-2.37056599365975e+001,-8.98137846763096e+000

3.15594465437872e+005,-2.37068090269133e+001,-9.10614894920543e+000

3.19999999999997e+005,-2.37079898202518e+001,-9.23263609859797e+000

3.24467033532806e+005,-2.37092031750006e+001,-9.36086285818824e+000

3.28996424529938e+005,-2.37104499719217e+001,-9.49085245014437e+000

3.33589043469155e+005,-2.37117311146898e+001,-9.62262837879970e+000

3.38245772979638e+005,-2.37130475304417e+001,-9.75621443301170e+000

3.42967508011610e+005,-2.37144001703358e+001,-9.89163468849804e+000

3.47755156008335e+005,-2.37157900101233e+001,-1.00289135101498e+001

3.52609637080511e+005,-2.37172180507293e+001,-1.01680755543197e+001

3.57531884183106e+005,-2.37186853188464e+001,-1.03091457710831e+001

3.62522843294651e+005,-2.37201928675386e+001,-1.04521494064696e+001

3.67583473599047e+005,-2.37217417768564e+001,-1.05971120046636e+001

3.72714747669902e+005,-2.37233331544639e+001,-1.07440594101716e+001

3.77917651657445e+005,-2.37249681362768e+001,-1.08930177699538e+001

3.83193185478053e+005,-2.37266478871118e+001,-1.10440135355182e+001

3.88542363006410e+005,-2.37283736013485e+001,-1.11970734649747e+001

3.93966212270369e+005,-2.37301465036016e+001,-1.13522246250466e+001

3.99465775648511e+005,-2.37319678494054e+001,-1.15094943930379e+001

4.05042110070485e+005,-2.37338389259101e+001,-1.16689104587532e+001

4.10696287220124e+005,-2.37357610525899e+001,-1.18305008263681e+001

4.16429393741414e+005,-2.37377355819620e+001,-1.19942938162477e+001

4.22242531447321e+005,-2.37397639003185e+001,-1.21603180667099e+001

4.28136817531551e+005,-2.37418474284692e+001,-1.23286025357325e+001

4.34113384783250e+005,-2.37439876224968e+001,-1.24991765025993e+001

4.40173381804713e+005,-2.37461859745232e+001,-1.26720695694836e+001

4.46317973232124e+005,-2.37484440134883e+001,-1.28473116629674e+001

4.52548339959385e+005,-2.37507633059398e+001,-1.30249330354911e+001

4.58865679365059e+005,-2.37531454568350e+001,-1.32049642667328e+001

4.65271205542494e+005,-2.37555921103546e+001,-1.33874362649134e+001

4.71766149533147e+005,-2.37581049507275e+001,-1.35723802680247e+001

4.78351759563174e+005,-2.37606857030674e+001,-1.37598278449774e+001

4.85029301283321e+005,-2.37633361342208e+001,-1.39498108966668e+001

4.91800058012158e+005,-2.37660580536266e+001,-1.41423616569516e+001

4.98665330982714e+005,-2.37688533141867e+001,-1.43375126935436e+001

5.05626439592555e+005,-2.37717238131481e+001,-1.45352969088054e+001

5.12684721657352e+005,-2.37746714929958e+001,-1.47357475404516e+001

5.19841533667984e+005,-2.37776983423567e+001,-1.49388981621521e+001

5.27098251051240e+005,-2.37808063969149e+001,-1.51447826840319e+001

5.34456268434150e+005,-2.37839977403369e+001,-1.53534353530658e+001

5.41916999912011e+005,-2.37872745052080e+001,-1.55648907533643e+001

