Freq.,VOut,OutRef

1.00000000000000e+004,-6.09639424679847e+000,-1.21427393785087e-002

1.01395947979003e+004,-6.09639424754401e+000,-1.23122456123116e-002

1.02811382665607e+004,-6.09639424831057e+000,-1.24841180606902e-002

1.04246576084112e+004,-6.09639424909890e+000,-1.26583897533651e-002

1.05701804056138e+004,-6.09639424990891e+000,-1.28350941871866e-002

1.07177346253629e+004,-6.09639425074218e+000,-1.30142653152694e-002

1.08673486252606e+004,-6.09639425159900e+000,-1.31959375734949e-002

1.10190511587661e+004,-6.09639425247939e+000,-1.33801458805839e-002

1.11728713807222e+004,-6.09639425338497e+000,-1.35669256319932e-002

1.13288388529580e+004,-6.09639425431568e+000,-1.37563127282058e-002

1.14869835499703e+004,-6.09639425527272e+000,-1.39483435632952e-002

1.16473358646846e+004,-6.09639425625613e+000,-1.41430550466822e-002

1.18099266142953e+004,-6.09639425726802e+000,-1.43404845897797e-002

1.19747870461893e+004,-6.09639425830764e+000,-1.45406701449470e-002

1.21419488439505e+004,-6.09639425937677e+000,-1.47436501780547e-002

1.23114441334492e+004,-6.09639426047643e+000,-1.49494636969407e-002

1.24833054890161e+004,-6.09639426160645e+000,-1.51581502619553e-002

1.26575659397028e+004,-6.09639426276825e+000,-1.53697499754753e-002

1.28342589756290e+004,-6.09639426396293e+000,-1.55843035018201e-002

1.30134185544193e+004,-6.09639426519075e+000,-1.58018520785883e-002

1.31950791077289e+004,-6.09639426645336e+000,-1.60224375101470e-002

1.33792755478611e+004,-6.09639426775177e+000,-1.62461021889850e-002

1.35660432744767e+004,-6.09639426908607e+000,-1.64728891053976e-002

1.37554181813974e+004,-6.09639427045830e+000,-1.67028418368609e-002

1.39474366635040e+004,-6.09639427186886e+000,-1.69360045804798e-002

1.41421356237309e+004,-6.09639427331905e+000,-1.71724221447128e-002

1.43395524801583e+004,-6.09639427481004e+000,-1.74121399641117e-002

1.45397251732031e+004,-6.09639427634271e+000,-1.76552041100609e-002

1.47426921729110e+004,-6.09639427791872e+000,-1.79016612916494e-002

1.49484924863494e+004,-6.09639427953924e+000,-1.81515588738701e-002

1.51571656651040e+004,-6.09639428120512e+000,-1.84049448848355e-002

1.53687518128801e+004,-6.09639428291778e+000,-1.86618680199411e-002

1.55832915932100e+004,-6.09639428467856e+000,-1.89223776545830e-002

1.58008262372675e+004,-6.09639428648862e+000,-1.91865238554445e-002

1.60213975517924e+004,-6.09639428834969e+000,-1.94543573839271e-002

1.62450479271247e+004,-6.09639429026310e+000,-1.97259297134818e-002

1.64718203453514e+004,-6.09639429223017e+000,-2.00012930358668e-002

1.67017583885674e+004,-6.09639429425222e+000,-2.02805002721752e-002

1.69349062472505e+004,-6.09639429633161e+000,-2.05636050756308e-002

1.71713087287550e+004,-6.09639429846905e+000,-2.08506618587048e-002

1.74110112659224e+004,-6.09639430066710e+000,-2.11417257827093e-002

1.76540599258131e+004,-6.09639430292656e+000,-2.14368527899317e-002

1.79005014185594e+004,-6.09639430524917e+000,-2.17360995980895e-002

1.81503831063432e+004,-6.09639430763697e+000,-2.20395237149348e-002

1.84037530124975e+004,-6.09639431009256e+000,-2.23471834476567e-002

1.86606598307361e+004,-6.09639431261676e+000,-2.26591379291058e-002

1.89211529345119e+004,-6.09639431521163e+000,-2.29754471099178e-002

1.91852823865052e+004,-6.09639431787957e+000,-2.32961717759404e-002

1.94530989482457e+004,-6.09639432062267e+000,-2.36213735634090e-002

1.97246540898671e+004,-6.09639432344290e+000,-2.39511149705391e-002

1.99999999999999e+004,-6.09639432634183e+000,-2.42854593707770e-002

2.02791895958005e+004,-6.09639432932244e+000,-2.46244710132505e-002

2.05622765331213e+004,-6.09639433238662e+000,-2.49682150515454e-002

2.08493152168224e+004,-6.09639433553727e+000,-2.53167575423787e-002

2.11403608112276e+004,-6.09639433877598e+000,-2.56701654740193e-002

2.14354692507258e+004,-6.09639434210571e+000,-2.60285067605620e-002

2.17346972505211e+004,-6.09639434552927e+000,-2.63918502659345e-002

2.20381023175322e+004,-6.09639434904857e+000,-2.67602658219877e-002

2.23457427614443e+004,-6.09639435266709e+000,-2.71338242247481e-002

2.26576777059159e+004,-6.09639435638682e+000,-2.75125972690952e-002

2.29739670999406e+004,-6.09639436021113e+000,-2.78966577437730e-002

2.32946717293690e+004,-6.09639436414312e+000,-2.82860794554319e-002

2.36198532285905e+004,-6.09639436818514e+000,-2.86809372464500e-002

2.39495740923785e+004,-6.09639437234064e+000,-2.90813069975976e-002

2.42838976879009e+004,-6.09639437661299e+000,-2.94872656495329e-002

2.46228882668982e+004,-6.09639438100531e+000,-2.98988912190147e-002

2.49666109780322e+004,-6.09639438552102e+000,-3.03162628109093e-002

2.53151318794055e+004,-6.09639439016310e+000,-3.07394606372706e-002

2.56685179512580e+004,-6.09639439493564e+000,-3.11685660232403e-002

2.60268371088386e+004,-6.09639439984242e+000,-3.16036614321132e-002

2.63901582154578e+004,-6.09639440488661e+000,-3.20448304823689e-002

2.67585510957221e+004,-6.09639441007248e+000,-3.24921579535285e-002

2.71320865489533e+004,-6.09639441540411e+000,-3.29457298102653e-002

2.75108363627948e+004,-6.09639442088504e+000,-3.34056332213489e-002

2.78948733270080e+004,-6.09639442651982e+000,-3.38719565666641e-002

2.82842712474618e+004,-6.09639443231300e+000,-3.43447894599239e-002

2.86791049603164e+004,-6.09639443826828e+000,-3.48242227726204e-002

2.90794503464061e+004,-6.09639444439097e+000,-3.53103486343392e-002

2.94853843458219e+004,-6.09639445068549e+000,-3.58032604680231e-002

2.98969849726987e+004,-6.09639445715666e+000,-3.63030529979747e-002

3.03143313302078e+004,-6.09639446380899e+000,-3.68098222737555e-002

3.07375036257601e+004,-6.09639447064816e+000,-3.73236656791395e-002

3.11665831864199e+004,-6.09639447767934e+000,-3.78446819613292e-002

3.16016524745350e+004,-6.09639448490752e+000,-3.83729712477863e-002

3.20427951035848e+004,-6.09639449233839e+000,-3.89086350596243e-002

3.24900958542493e+004,-6.09639449997780e+000,-3.94517763353541e-002

3.29436406907028e+004,-6.09639450783167e+000,-4.00024994510359e-002

3.34035167771346e+004,-6.09639451590523e+000,-4.05609102441275e-002

3.38698124945009e+004,-6.09639452420548e+000,-4.11271160198713e-002

3.43426174575100e+004,-6.09639453273847e+000,-4.17012255877256e-002

3.48220225318448e+004,-6.09639454151075e+000,-4.22833492744505e-002

3.53081198516260e+004,-6.09639455052876e+000,-4.28735989479665e-002

3.58010028371187e+004,-6.09639455979960e+000,-4.34720880344668e-002

3.63007662126863e+004,-6.09639456933031e+000,-4.40789315451585e-002

3.68075060249948e+004,-6.09639457912808e+000,-4.46942460966622e-002

3.73213196614721e+004,-6.09639458920026e+000,-4.53181499335726e-002

3.78423058690237e+004,-6.09639459955493e+000,-4.59507629468795e-002

3.83705647730104e+004,-6.09639461019971e+000,-4.65922067057740e-002

3.89061978964912e+004,-6.09639462114254e+000,-4.72426044752991e-002

3.94493081797342e+004,-6.09639463239213e+000,-4.79020812374225e-002

3.99999999999998e+004,-6.09639464395669e+000,-4.85707637230039e-002

4.05583791916010e+004,-6.09639465584485e+000,-4.92487804300748e-002

4.11245530662425e+004,-6.09639466806625e+000,-4.99362616458817e-002

4.16986304336447e+004,-6.09639468062995e+000,-5.06333394807157e-002

4.22807216224550e+004,-6.09639469354521e+000,-5.13401478894038e-002

4.28709385014515e+004,-6.09639470682198e+000,-5.20568226928726e-002

4.34693945010421e+004,-6.09639472047059e+000,-5.27835016074109e-002

4.40762046350642e+004,-6.09639473450099e+000,-5.35203242753574e-002

4.46914855228886e+004,-6.09639474892403e+000,-5.42674322837992e-002

4.53153554118317e+004,-6.09639476375074e+000,-5.50249691964483e-002

4.59479341998812e+004,-6.09639477899218e+000,-5.57930805822903e-002

4.65893434587380e+004,-6.09639479466000e+000,-5.65719140402610e-002

4.72397064571810e+004,-6.09639481076579e+000,-5.73616192314716e-002

4.78991481847569e+004,-6.09639482732239e+000,-5.81623478990210e-002

4.85677953758016e+004,-6.09639484434154e+000,-5.89742539131840e-002

4.92457765337964e+004,-6.09639486183649e+000,-5.97974932843355e-002

4.99332219560642e+004,-6.09639487982065e+000,-6.06322242006818e-002

5.06302637588109e+004,-6.09639489830733e+000,-6.14786070613304e-002

5.13370359025159e+004,-6.09639491731057e+000,-6.23368045007535e-002

5.20536742176771e+004,-6.09639493684460e+000,-6.32069814244658e-002

5.27803164309155e+004,-6.09639495692433e+000,-6.40893050376894e-002

5.35171021914442e+004,-6.09639497756478e+000,-6.49839448800736e-002

5.42641730979066e+004,-6.09639499878184e+000,-6.58910728542345e-002

5.50216727255895e+004,-6.09639502059092e+000,-6.68108632672148e-002

5.57897466540159e+004,-6.09639504300867e+000,-6.77434928538557e-002

5.65685424949235e+004,-6.09639506605203e+000,-6.86891408146660e-002

5.73582099206328e+004,-6.09639508973850e+000,-6.96479888513121e-002

5.81589006928121e+004,-6.09639511408523e+000,-7.06202212053081e-002

5.89707686916437e+004,-6.09639513911143e+000,-7.16060246789466e-002

5.97939699453972e+004,-6.09639516483512e+000,-7.26055886915701e-002

6.06286626604156e+004,-6.09639519127573e+000,-7.36191052998940e-002

6.14750072515201e+004,-6.09639521845325e+000,-7.46467692399573e-002

6.23331663728396e+004,-6.09639524638785e+000,-7.56887779670738e-002

6.32033049490698e+004,-6.09639527510070e+000,-7.67453316881432e-002

6.40855902071694e+004,-6.09639530461275e+000,-7.78166334094085e-002

6.49801917084985e+004,-6.09639533494661e+000,-7.89028889610518e-002

6.58872813814055e+004,-6.09639536612465e+000,-8.00043070513152e-002

6.68070335542691e+004,-6.09639539817027e+000,-8.11210992967807e-002

6.77396249890018e+004,-6.09639543110700e+000,-8.22534802698107e-002

6.86852349150199e+004,-6.09639546495947e+000,-8.34016675331940e-002

6.96440450636895e+004,-6.09639549975303e+000,-8.45658816843945e-002

7.06162397032520e+004,-6.09639553551347e+000,-8.57463463993573e-002

7.16020056742374e+004,-6.09639557226738e+000,-8.69432884742016e-002

7.26015324253724e+004,-6.09639561004169e+000,-8.81569378707156e-002

7.36150120499896e+004,-6.09639564886457e+000,-8.93875277553912e-002

7.46426393229441e+004,-6.09639568876497e+000,-9.06352945467429e-002

7.56846117380472e+004,-6.09639572977209e+000,-9.19004779645854e-002

7.67411295460207e+004,-6.09639577191632e+000,-9.31833210693978e-002

7.78123957929823e+004,-6.09639581522853e+000,-9.44840703147251e-002

7.88986163594682e+004,-6.09639585974085e+000,-9.58029755881697e-002

7.99999999999995e+004,-6.09639590548583e+000,-9.71402902654256e-002

8.11167583832018e+004,-6.09639595249722e+000,-9.84962712543618e-002

8.22491061324848e+004,-6.09639600080953e+000,-9.98711790458951e-002

8.33972608672892e+004,-6.09639605045802e+000,-1.01265277765639e-001

8.45614432449099e+004,-6.09639610147893e+000,-1.02678835222163e-001

8.57418770029029e+004,-6.09639615390980e+000,-1.04112122956401e-001

8.69387890020841e+004,-6.09639620778857e+000,-1.05565416299744e-001

8.81524092701283e+004,-6.09639626315472e+000,-1.07038994420161e-001

8.93829710457770e+004,-6.09639632004835e+000,-1.08533140379857e-001

9.06307108236633e+004,-6.09639637851090e+000,-1.10048141187512e-001

9.18958683997622e+004,-6.09639643858457e+000,-1.11584287855153e-001

9.31786869174758e+004,-6.09639650031293e+000,-1.13141875450793e-001

9.44794129143618e+004,-6.09639656374046e+000,-1.14721203157971e-001

9.57982963695136e+004,-6.09639662891292e+000,-1.16322574330157e-001

9.71355907516031e+004,-6.09639669587737e+000,-1.17946296550307e-001

9.84915530675926e+004,-6.09639676468175e+000,-1.19592681691028e-001

9.98664439121282e+004,-6.09639683537521e+000,-1.21262045972489e-001

1.01260527517622e+005,-6.09639690800838e+000,-1.22954710022744e-001

1.02674071805032e+005,-6.09639698263332e+000,-1.24670998936970e-001

1.04107348435354e+005,-6.09639705930301e+000,-1.26411242345878e-001

1.05560632861831e+005,-6.09639713807193e+000,-1.28175774472963e-001

1.07034204382888e+005,-6.09639721899592e+000,-1.29964934200724e-001

1.08528346195813e+005,-6.09639730213209e+000,-1.31779065135243e-001

1.10043345451179e+005,-6.09639738753917e+000,-1.33618515670778e-001

1.11579493308032e+005,-6.09639747527733e+000,-1.35483639056638e-001

1.13137084989847e+005,-6.09639756540812e+000,-1.37374793465896e-001

1.14716419841265e+005,-6.09639765799455e+000,-1.39292342063354e-001

1.16317801385624e+005,-6.09639775310109e+000,-1.41236653074669e-001

1.17941537383287e+005,-6.09639785079422e+000,-1.43208099853699e-001

1.19587939890794e+005,-6.09639795114151e+000,-1.45207060959509e-001

1.21257325320831e+005,-6.09639805421241e+000,-1.47233920224201e-001

1.22950014503040e+005,-6.09639816007781e+000,-1.49289066828640e-001

1.24666332745679e+005,-6.09639826881073e+000,-1.51372895372563e-001

1.26406609898139e+005,-6.09639838048552e+000,-1.53485805955457e-001

1.28171180414339e+005,-6.09639849517835e+000,-1.55628204249375e-001

1.29960383416997e+005,-6.09639861296740e+000,-1.57800501575763e-001

1.31774562762811e+005,-6.09639873393228e+000,-1.60003114987273e-001

1.33614067108538e+005,-6.09639885815460e+000,-1.62236467343958e-001

1.35479249978003e+005,-6.09639898571787e+000,-1.64500987394680e-001

1.37370469830040e+005,-6.09639911670757e+000,-1.66797109858388e-001

1.39288090127379e+005,-6.09639925121117e+000,-1.69125275507151e-001

1.41232479406504e+005,-6.09639938931750e+000,-1.71485931253768e-001

1.43204011348474e+005,-6.09639953111811e+000,-1.73879530228964e-001

1.45203064850745e+005,-6.09639967670610e+000,-1.76306531874395e-001

1.47230024099979e+005,-6.09639982617700e+000,-1.78767402025480e-001

1.49285278645888e+005,-6.09639997962780e+000,-1.81262613005624e-001

1.51369223476094e+005,-6.09640013715793e+000,-1.83792643710215e-001

1.53482259092041e+005,-6.09640029886908e+000,-1.86357979698822e-001

1.55624791585964e+005,-6.09640046486490e+000,-1.88959113289484e-001

1.57797232718936e+005,-6.09640063525082e+000,-1.91596543653748e-001

1.59999999999999e+005,-6.09640081013510e+000,-1.94270776904161e-001

1.62233516766403e+005,-6.09640098962746e+000,-1.96982326200039e-001

1.64498212264969e+005,-6.09640117384035e+000,-1.99731711836268e-001

1.66794521734578e+005,-6.09640136288819e+000,-2.02519461346993e-001

1.69122886489819e+005,-6.09640155688765e+000,-2.05346109604175e-001

1.71483754005805e+005,-6.09640175595738e+000,-2.08212198920608e-001

1.73877578004168e+005,-6.09640196021863e+000,-2.11118279148345e-001

1.76304818540256e+005,-6.09640216979464e+000,-2.14064907787766e-001

1.78765942091554e+005,-6.09640238481079e+000,-2.17052650091296e-001

1.81261421647326e+005,-6.09640260539483e+000,-2.20082079169300e-001

1.83791736799524e+005,-6.09640283167656e+000,-2.23153776099950e-001

1.86357373834951e+005,-6.09640306378808e+000,-2.26268330038685e-001

1.88958825828723e+005,-6.09640330186354e+000,-2.29426338330134e-001

1.91596592739027e+005,-6.09640354603934e+000,-2.32628406619467e-001

1.94271181503206e+005,-6.09640379645386e+000,-2.35875148969525e-001

1.96983106135185e+005,-6.09640405324761e+000,-2.39167187974308e-001

1.99732887824256e+005,-6.09640431656315e+000,-2.42505154877543e-001

2.02521055035243e+005,-6.09640458654485e+000,-2.45889689693167e-001

2.05348143610063e+005,-6.09640486333930e+000,-2.49321441322893e-001

2.08214696870707e+005,-6.09640514709467e+000,-2.52801067681873e-001

2.11121265723661e+005,-6.09640543796120e+000,-2.56329235820309e-001

2.14068408765776e+005,-6.09640573609058e+000,-2.59906622051513e-001

2.17056692391625e+005,-6.09640604163633e+000,-2.63533912077028e-001

2.20086690902357e+005,-6.09640635475341e+000,-2.67211801117123e-001

2.23158986616063e+005,-6.09640667559840e+000,-2.70940994040533e-001

2.26274169979693e+005,-6.09640700432872e+000,-2.74722205500645e-001

2.29432839682530e+005,-6.09640734110377e+000,-2.78556160062111e-001

2.32635602771247e+005,-6.09640768608317e+000,-2.82443592347506e-001

2.35883074766574e+005,-6.09640803942807e+000,-2.86385247165964e-001

2.39175879781588e+005,-6.09640840129993e+000,-2.90381879659623e-001

2.42514650641661e+005,-6.09640877186111e+000,-2.94434255440724e-001

2.45900029006080e+005,-6.09640915127412e+000,-2.98543150738886e-001

2.49332665491357e+005,-6.09640953970171e+000,-3.02709352544270e-001

2.52813219796278e+005,-6.09640993730649e+000,-3.06933658757153e-001

2.56342360828676e+005,-6.09641034425096e+000,-3.11216878334558e-001

2.59920766833993e+005,-6.09641076069664e+000,-3.15559831446251e-001

2.63549125525621e+005,-6.09641118680458e+000,-3.19963349623397e-001

2.67228134217075e+005,-6.09641162273460e+000,-3.24428275916575e-001

2.70958499956006e+005,-6.09641206864475e+000,-3.28955465055511e-001

2.74740939660078e+005,-6.09641252469160e+000,-3.33545783604115e-001

2.78576180254757e+005,-6.09641299102919e+000,-3.38200110127108e-001

2.82464958813007e+005,-6.09641346780920e+000,-3.42919335350768e-001

2.86408022696948e+005,-6.09641395517997e+000,-3.47704362332306e-001

2.90406129701488e+005,-6.09641445328667e+000,-3.52556106624829e-001

2.94460048199957e+005,-6.09641496227015e+000,-3.57475496451844e-001

2.98570557291775e+005,-6.09641548226696e+000,-3.62463472877894e-001

3.02738446952187e+005,-6.09641601340844e+000,-3.67520989985089e-001

3.06964518184081e+005,-6.09641655582045e+000,-3.72649015050092e-001

3.11249583171928e+005,-6.09641710962239e+000,-3.77848528725256e-001

3.15594465437872e+005,-6.09641767492659e+000,-3.83120525222169e-001

3.19999999999997e+005,-6.09641825183805e+000,-3.88466012493315e-001

3.24467033532806e+005,-6.09641884045302e+000,-3.93886012423266e-001

3.28996424529938e+005,-6.09641944085881e+000,-3.99381561016452e-001

3.33589043469155e+005,-6.09642005313235e+000,-4.04953708592104e-001

3.38245772979638e+005,-6.09642067734008e+000,-4.10603519975508e-001

3.42967508011610e+005,-6.09642131353593e+000,-4.16332074702319e-001

3.47755156008335e+005,-6.09642196176153e+000,-4.22140467211593e-001

3.52609637080511e+005,-6.09642262204409e+000,-4.28029807056296e-001

3.57531884183106e+005,-6.09642329439614e+000,-4.34001219103069e-001

3.62522843294651e+005,-6.09642397881369e+000,-4.40055843746396e-001

3.67583473599047e+005,-6.09642467527524e+000,-4.46194837117643e-001

3.72714747669902e+005,-6.09642538374079e+000,-4.52419371298743e-001

3.77917651657445e+005,-6.09642610414969e+000,-4.58730634543944e-001

3.83193185478053e+005,-6.09642683642019e+000,-4.65129831494340e-001

3.88542363006410e+005,-6.09642758044683e+000,-4.71618183408827e-001

3.93966212270369e+005,-6.09642833609986e+000,-4.78196928382897e-001

3.99465775648511e+005,-6.09642910322272e+000,-4.84867321585321e-001

4.05042110070485e+005,-6.09642988163067e+000,-4.91630635487501e-001

4.10696287220124e+005,-6.09643067110913e+000,-4.98488160099289e-001

4.16429393741414e+005,-6.09643147141105e+000,-5.05441203212187e-001

4.22242531447321e+005,-6.09643228225540e+000,-5.12491090638973e-001

4.28136817531551e+005,-6.09643310332503e+000,-5.19639166460650e-001

4.34113384783250e+005,-6.09643393426398e+000,-5.26886793278094e-001

4.40173381804713e+005,-6.09643477467555e+000,-5.34235352463183e-001

4.46317973232124e+005,-6.09643562411963e+000,-5.41686244417337e-001

4.52548339959385e+005,-6.09643648211012e+000,-5.49240888831338e-001

4.58865679365059e+005,-6.09643734811221e+000,-5.56900724950804e-001

4.65271205542494e+005,-6.09643822153967e+000,-5.64667211842978e-001

4.71766149533147e+005,-6.09643910175176e+000,-5.72541828670158e-001

4.78351759563174e+005,-6.09643998805019e+000,-5.80526074965147e-001

4.85029301283321e+005,-6.09644087967592e+000,-5.88621470911645e-001

4.91800058012158e+005,-6.09644177580583e+000,-5.96829557628151e-001

4.98665330982714e+005,-6.09644267554924e+000,-6.05151897456479e-001

5.05626439592555e+005,-6.09644357794421e+000,-6.13590074254880e-001

5.12684721657352e+005,-6.09644448195389e+000,-6.22145693694208e-001

5.19841533667984e+005,-6.09644538646229e+000,-6.30820383561404e-001

5.27098251051240e+005,-6.09644629027074e+000,-6.39615794061958e-001

5.34456268434150e+005,-6.09644719209313e+000,-6.48533598134558e-001

5.41916999912011e+005,-6.09644809055167e+000,-6.57575491764697e-001

