Freq.,VOut,OutRef

1.00000000000000e+004,-1.58640137217111e+001,-1.61390864464098e-001

1.01395947979003e+004,-1.58640139126750e+001,-1.63643793903337e-001

1.02811382665607e+004,-1.58640141090075e+001,-1.65928172935463e-001

1.04246576084112e+004,-1.58640143108596e+001,-1.68244440573641e-001

1.05701804056138e+004,-1.58640145183864e+001,-1.70593041961464e-001

1.07177346253629e+004,-1.58640147317474e+001,-1.72974428455989e-001

1.08673486252606e+004,-1.58640149511066e+001,-1.75389057712258e-001

1.10190511587661e+004,-1.58640151766328e+001,-1.77837393775861e-001

1.11728713807222e+004,-1.58640154084990e+001,-1.80319907170666e-001

1.13288388529580e+004,-1.58640156468838e+001,-1.82837074986526e-001

1.14869835499703e+004,-1.58640158919702e+001,-1.85389380973758e-001

1.16473358646846e+004,-1.58640161439468e+001,-1.87977315634711e-001

1.18099266142953e+004,-1.58640164030071e+001,-1.90601376319798e-001

1.19747870461893e+004,-1.58640166693504e+001,-1.93262067320988e-001

1.21419488439505e+004,-1.58640169431813e+001,-1.95959899969660e-001

1.23114441334492e+004,-1.58640172247104e+001,-1.98695392734645e-001

1.24833054890161e+004,-1.58640175141542e+001,-2.01469071321312e-001

1.26575659397028e+004,-1.58640178117349e+001,-2.04281468776114e-001

1.28342589756290e+004,-1.58640181176814e+001,-2.07133125581906e-001

1.30134185544193e+004,-1.58640184322290e+001,-2.10024589768897e-001

1.31950791077289e+004,-1.58640187556194e+001,-2.12956417015168e-001

1.33792755478611e+004,-1.58640190881010e+001,-2.15929170758505e-001

1.35660432744767e+004,-1.58640194299297e+001,-2.18943422297174e-001

1.37554181813974e+004,-1.58640197813681e+001,-2.21999750906952e-001

1.39474366635040e+004,-1.58640201426862e+001,-2.25098743948698e-001

1.41421356237309e+004,-1.58640205141620e+001,-2.28240996981912e-001

1.43395524801583e+004,-1.58640208960807e+001,-2.31427113879357e-001

1.45397251732031e+004,-1.58640212887362e+001,-2.34657706941335e-001

1.47426921729110e+004,-1.58640216924302e+001,-2.37933397018100e-001

1.49484924863494e+004,-1.58640221074729e+001,-2.41254813623223e-001

1.51571656651040e+004,-1.58640225341836e+001,-2.44622595057843e-001

1.53687518128801e+004,-1.58640229728899e+001,-2.48037388534523e-001

1.55832915932100e+004,-1.58640234239293e+001,-2.51499850297300e-001

1.58008262372675e+004,-1.58640238876485e+001,-2.55010645751145e-001

1.60213975517924e+004,-1.58640243644037e+001,-2.58570449590235e-001

1.62450479271247e+004,-1.58640248545616e+001,-2.62179945924417e-001

1.64718203453514e+004,-1.58640253584988e+001,-2.65839828413394e-001

1.67017583885674e+004,-1.58640258766026e+001,-2.69550800399004e-001

1.69349062472505e+004,-1.58640264092715e+001,-2.73313575039560e-001

1.71713087287550e+004,-1.58640269569146e+001,-2.77128875449564e-001

1.74110112659224e+004,-1.58640275199530e+001,-2.80997434835519e-001

1.76540599258131e+004,-1.58640280988194e+001,-2.84919996637046e-001

1.79005014185594e+004,-1.58640286939587e+001,-2.88897314673228e-001

1.81503831063432e+004,-1.58640293058284e+001,-2.92930153281930e-001

1.84037530124975e+004,-1.58640299348987e+001,-2.97019287471961e-001

1.86606598307361e+004,-1.58640305816532e+001,-3.01165503068295e-001

1.89211529345119e+004,-1.58640312465889e+001,-3.05369596864537e-001

1.91852823865052e+004,-1.58640319302169e+001,-3.09632376775861e-001

1.94530989482457e+004,-1.58640326330626e+001,-3.13954661994022e-001

1.97246540898671e+004,-1.58640333556663e+001,-3.18337283143659e-001

1.99999999999999e+004,-1.58640340985831e+001,-3.22781082445329e-001

2.02791895958005e+004,-1.58640348623842e+001,-3.27286913872947e-001

2.05622765331213e+004,-1.58640356476565e+001,-3.31855643320280e-001

2.08493152168224e+004,-1.58640364550036e+001,-3.36488148766270e-001

2.11403608112276e+004,-1.58640372850460e+001,-3.41185320444578e-001

2.14354692507258e+004,-1.58640381384216e+001,-3.45948061014615e-001

2.17346972505211e+004,-1.58640390157861e+001,-3.50777285733127e-001

2.20381023175322e+004,-1.58640399178140e+001,-3.55673922632448e-001

2.23457427614443e+004,-1.58640408451984e+001,-3.60638912696478e-001

2.26576777059159e+004,-1.58640417986520e+001,-3.65673210043847e-001

2.29739670999406e+004,-1.58640427789076e+001,-3.70777782107865e-001

2.32946717293690e+004,-1.58640437867183e+001,-3.75953609826428e-001

2.36198532285905e+004,-1.58640448228588e+001,-3.81201687826283e-001

2.39495740923785e+004,-1.58640458881254e+001,-3.86523024616636e-001

2.42838976879009e+004,-1.58640469833364e+001,-3.91918642782932e-001

2.46228882668982e+004,-1.58640481093338e+001,-3.97389579180063e-001

2.49666109780322e+004,-1.58640492669827e+001,-4.02936885136730e-001

2.53151318794055e+004,-1.58640504571726e+001,-4.08561626652526e-001

2.56685179512580e+004,-1.58640516808183e+001,-4.14264884605012e-001

2.60268371088386e+004,-1.58640529388598e+001,-4.20047754956897e-001

2.63901582154578e+004,-1.58640542322640e+001,-4.25911348965497e-001

2.67585510957221e+004,-1.58640555620246e+001,-4.31856793398112e-001

2.71320865489533e+004,-1.58640569291636e+001,-4.37885230745848e-001

2.75108363627948e+004,-1.58640583347313e+001,-4.43997819445360e-001

2.78948733270080e+004,-1.58640597798077e+001,-4.50195734099767e-001

2.82842712474618e+004,-1.58640612655032e+001,-4.56480165704187e-001

2.86791049603164e+004,-1.58640627929593e+001,-4.62852321875490e-001

2.90794503464061e+004,-1.58640643633496e+001,-4.69313427082696e-001

2.94853843458219e+004,-1.58640659778806e+001,-4.75864722882934e-001

2.98969849726987e+004,-1.58640676377928e+001,-4.82507468159501e-001

3.03143313302078e+004,-1.58640693443615e+001,-4.89242939363473e-001

3.07375036257601e+004,-1.58640710988979e+001,-4.96072430758452e-001

3.11665831864199e+004,-1.58640729027499e+001,-5.02997254670232e-001

3.16016524745350e+004,-1.58640747573033e+001,-5.10018741736272e-001

3.20427951035848e+004,-1.58640766639828e+001,-5.17138241163992e-001

3.24900958542493e+004,-1.58640786242532e+001,-5.24357120987491e-001

3.29436406907028e+004,-1.58640806396204e+001,-5.31676768330413e-001

3.34035167771346e+004,-1.58640827116327e+001,-5.39098589672793e-001

3.38698124945009e+004,-1.58640848418816e+001,-5.46624011121536e-001

3.43426174575100e+004,-1.58640870320034e+001,-5.54254478682659e-001

3.48220225318448e+004,-1.58640892836806e+001,-5.61991458538693e-001

3.53081198516260e+004,-1.58640915986429e+001,-5.69836437330856e-001

3.58010028371187e+004,-1.58640939786681e+001,-5.77790922444445e-001

3.63007662126863e+004,-1.58640964255844e+001,-5.85856442297751e-001

3.68075060249948e+004,-1.58640989412713e+001,-5.94034546633939e-001

3.73213196614721e+004,-1.58641015276608e+001,-6.02326806820318e-001

3.78423058690237e+004,-1.58641041867395e+001,-6.10734816149413e-001

3.83705647730104e+004,-1.58641069205495e+001,-6.19260190142528e-001

3.89061978964912e+004,-1.58641097311902e+001,-6.27904566862831e-001

3.94493081797342e+004,-1.58641126208202e+001,-6.36669607226893e-001

3.99999999999998e+004,-1.58641155916587e+001,-6.45556995323466e-001

4.05583791916010e+004,-1.58641186459867e+001,-6.54568438738891e-001

4.11245530662425e+004,-1.58641217861500e+001,-6.63705668880547e-001

4.16986304336447e+004,-1.58641250145596e+001,-6.72970441313052e-001

4.22807216224550e+004,-1.58641283336944e+001,-6.82364536091959e-001

4.28709385014515e+004,-1.58641317461029e+001,-6.91889758105136e-001

4.34693945010421e+004,-1.58641352544052e+001,-7.01547937420508e-001

4.40762046350642e+004,-1.58641388612948e+001,-7.11340929635191e-001

4.46914855228886e+004,-1.58641425695408e+001,-7.21270616232104e-001

4.53153554118317e+004,-1.58641463819900e+001,-7.31338904940258e-001

4.59479341998812e+004,-1.58641503015692e+001,-7.41547730100322e-001

4.65893434587380e+004,-1.58641543312872e+001,-7.51899053034828e-001

4.72397064571810e+004,-1.58641584742373e+001,-7.62394862425331e-001

4.78991481847569e+004,-1.58641627335996e+001,-7.73037174691680e-001

4.85677953758016e+004,-1.58641671126432e+001,-7.83828034380295e-001

4.92457765337964e+004,-1.58641716147291e+001,-7.94769514553776e-001

4.99332219560642e+004,-1.58641762433126e+001,-8.05863717189118e-001

5.06302637588109e+004,-1.58641810019459e+001,-8.17112773580897e-001

5.13370359025159e+004,-1.58641858942806e+001,-8.28518844748128e-001

5.20536742176771e+004,-1.58641909240712e+001,-8.40084121848131e-001

5.27803164309155e+004,-1.58641960951769e+001,-8.51810826597305e-001

5.35171021914442e+004,-1.58642014115656e+001,-8.63701211695597e-001

5.42641730979066e+004,-1.58642068773161e+001,-8.75757561257922e-001

5.50216727255895e+004,-1.58642124966218e+001,-8.87982191251017e-001

5.57897466540159e+004,-1.58642182737936e+001,-9.00377449937125e-001

5.65685424949235e+004,-1.58642242132631e+001,-9.12945718323868e-001

5.73582099206328e+004,-1.58642303195864e+001,-9.25689410617951e-001

5.81589006928121e+004,-1.58642365974471e+001,-9.38610974689444e-001

5.89707686916437e+004,-1.58642430516601e+001,-9.51712892538611e-001

5.97939699453972e+004,-1.58642496871752e+001,-9.64997680770511e-001

6.06286626604156e+004,-1.58642565090809e+001,-9.78467891077284e-001

6.14750072515201e+004,-1.58642635226084e+001,-9.92126110725477e-001

6.23331663728396e+004,-1.58642707331353e+001,-1.00597496305056e+000

6.32033049490698e+004,-1.58642781461900e+001,-1.02001710795854e+000

6.40855902071694e+004,-1.58642857674555e+001,-1.03425524243491e+000

6.49801917084985e+004,-1.58642936027741e+001,-1.04869210105922e+000

6.58872813814055e+004,-1.58643016581519e+001,-1.06333045652774e+000

6.68070335542691e+004,-1.58643099397629e+001,-1.07817312018407e+000

6.77396249890018e+004,-1.58643184539540e+001,-1.09322294255556e+000

6.86852349150199e+004,-1.58643272072499e+001,-1.10848281389707e+000

6.96440450636895e+004,-1.58643362063579e+001,-1.12395566474340e+000

7.06162397032520e+004,-1.58643454581728e+001,-1.13964446647005e+000

7.16020056742374e+004,-1.58643549697828e+001,-1.15555223185767e+000

7.26015324253724e+004,-1.58643647484740e+001,-1.17168201566940e+000

7.36150120499896e+004,-1.58643748017366e+001,-1.18803691523298e+000

7.46426393229441e+004,-1.58643851372702e+001,-1.20462007103128e+000

7.56846117380472e+004,-1.58643957629898e+001,-1.22143466730155e+000

7.67411295460207e+004,-1.58644066870317e+001,-1.23848393264351e+000

7.78123957929823e+004,-1.58644179177598e+001,-1.25577114063254e+000

7.88986163594682e+004,-1.58644294637717e+001,-1.27329961044667e+000

7.99999999999995e+004,-1.58644413339055e+001,-1.29107270749686e+000

8.11167583832018e+004,-1.58644535372460e+001,-1.30909384406867e+000

8.22491061324848e+004,-1.58644660831323e+001,-1.32736647997336e+000

8.33972608672892e+004,-1.58644789811640e+001,-1.34589412320514e+000

8.45614432449099e+004,-1.58644922412090e+001,-1.36468033061004e+000

8.57418770029029e+004,-1.58645058734110e+001,-1.38372870856263e+000

8.69387890020841e+004,-1.58645198881967e+001,-1.40304291365190e+000

8.81524092701283e+004,-1.58645342962840e+001,-1.42262665337812e+000

8.93829710457770e+004,-1.58645491086898e+001,-1.44248368685575e+000

9.06307108236633e+004,-1.58645643367388e+001,-1.46261782553021e+000

9.18958683997622e+004,-1.58645799920713e+001,-1.48303293390185e+000

9.31786869174758e+004,-1.58645960866526e+001,-1.50373293025826e+000

9.44794129143618e+004,-1.58646126327815e+001,-1.52472178742190e+000

9.57982963695136e+004,-1.58646296430998e+001,-1.54600353350185e+000

9.71355907516031e+004,-1.58646471306020e+001,-1.56758225265932e+000

9.84915530675926e+004,-1.58646651086443e+001,-1.58946208588305e+000

9.98664439121282e+004,-1.58646835909551e+001,-1.61164723177460e+000

1.01260527517622e+005,-1.58647025916458e+001,-1.63414194734362e+000

1.02674071805032e+005,-1.58647221252200e+001,-1.65695054881669e+000

1.04107348435354e+005,-1.58647422065858e+001,-1.68007741245319e+000

1.05560632861831e+005,-1.58647628510658e+001,-1.70352697537595e+000

1.07034204382888e+005,-1.58647840744091e+001,-1.72730373641000e+000

1.08528346195813e+005,-1.58648058928033e+001,-1.75141225693483e+000

1.10043345451179e+005,-1.58648283228855e+001,-1.77585716174751e+000

1.11579493308032e+005,-1.58648513817560e+001,-1.80064313993618e+000

1.13137084989847e+005,-1.58648750869900e+001,-1.82577494576835e+000

1.14716419841265e+005,-1.58648994566513e+001,-1.85125739958662e+000

1.16317801385624e+005,-1.58649245093052e+001,-1.87709538872143e+000

1.17941537383287e+005,-1.58649502640327e+001,-1.90329386841207e+000

1.19587939890794e+005,-1.58649767404443e+001,-1.92985786274230e+000

1.21257325320831e+005,-1.58650039586947e+001,-1.95679246558773e+000

1.22950014503040e+005,-1.58650319394978e+001,-1.98410284157518e+000

1.24666332745679e+005,-1.58650607041416e+001,-2.01179422705689e+000

1.26406609898139e+005,-1.58650902745044e+001,-2.03987193109559e+000

1.28171180414339e+005,-1.58651206730703e+001,-2.06834133646404e+000

1.29960383416997e+005,-1.58651519229464e+001,-2.09720790065684e+000

1.31774562762811e+005,-1.58651840478794e+001,-2.12647715691657e+000

1.33614067108538e+005,-1.58652170722730e+001,-2.15615471527370e+000

1.35479249978003e+005,-1.58652510212062e+001,-2.18624626359913e+000

1.37370469830040e+005,-1.58652859204510e+001,-2.21675756867193e+000

1.39288090127379e+005,-1.58653217964918e+001,-2.24769447725996e+000

1.41232479406504e+005,-1.58653586765445e+001,-2.27906291721699e+000

1.43204011348474e+005,-1.58653965885763e+001,-2.31086889859064e+000

1.45203064850745e+005,-1.58654355613263e+001,-2.34311851474902e+000

1.47230024099979e+005,-1.58654756243260e+001,-2.37581794351890e+000

1.49285278645888e+005,-1.58655168079212e+001,-2.40897344834098e+000

1.51369223476094e+005,-1.58655591432936e+001,-2.44259137943912e+000

1.53482259092041e+005,-1.58656026624834e+001,-2.47667817500545e+000

1.55624791585964e+005,-1.58656473984129e+001,-2.51124036240037e+000

1.57797232718936e+005,-1.58656933849095e+001,-2.54628455936954e+000

1.59999999999999e+005,-1.58657406567307e+001,-2.58181747527402e+000

1.62233516766403e+005,-1.58657892495886e+001,-2.61784591234099e+000

1.64498212264969e+005,-1.58658392001758e+001,-2.65437676692504e+000

1.66794521734578e+005,-1.58658905461916e+001,-2.69141703079099e+000

1.69122886489819e+005,-1.58659433263690e+001,-2.72897379240928e+000

1.71483754005805e+005,-1.58659975805019e+001,-2.76705423827130e+000

1.73877578004168e+005,-1.58660533494741e+001,-2.80566565421893e+000

1.76304818540256e+005,-1.58661106752876e+001,-2.84481542679342e+000

1.78765942091554e+005,-1.58661696010932e+001,-2.88451104460038e+000

1.81261421647326e+005,-1.58662301712201e+001,-2.92476009969275e+000

1.83791736799524e+005,-1.58662924312076e+001,-2.96557028897041e+000

1.86357373834951e+005,-1.58663564278374e+001,-3.00694941559993e+000

1.88958825828723e+005,-1.58664222091660e+001,-3.04890539044962e+000

1.91596592739027e+005,-1.58664898245584e+001,-3.09144623354514e+000

1.94271181503206e+005,-1.58665593247231e+001,-3.13458007554239e+000

1.96983106135185e+005,-1.58666307617466e+001,-3.17831515921873e+000

1.99732887824256e+005,-1.58667041891302e+001,-3.22265984098474e+000

2.02521055035243e+005,-1.58667796618270e+001,-3.26762259241278e+000

2.05348143610063e+005,-1.58668572362795e+001,-3.31321200178726e+000

2.08214696870707e+005,-1.58669369704593e+001,-3.35943677567107e+000

2.11121265723661e+005,-1.58670189239057e+001,-3.40630574049590e+000

2.14068408765776e+005,-1.58671031577678e+001,-3.45382784416799e+000

2.17056692391625e+005,-1.58671897348452e+001,-3.50201215769761e+000

2.20086690902357e+005,-1.58672787196316e+001,-3.55086787684613e+000

2.23158986616063e+005,-1.58673701783579e+001,-3.60040432379532e+000

2.26274169979693e+005,-1.58674641790374e+001,-3.65063094883588e+000

2.29432839682530e+005,-1.58675607915115e+001,-3.70155733207844e+000

2.32635602771247e+005,-1.58676600874966e+001,-3.75319318518379e+000

2.35883074766574e+005,-1.58677621406323e+001,-3.80554835311614e+000

2.39175879781588e+005,-1.58678670265302e+001,-3.85863281591611e+000

2.42514650641661e+005,-1.58679748228244e+001,-3.91245669049721e+000

2.45900029006080e+005,-1.58680856092227e+001,-3.96703023246296e+000

2.49332665491357e+005,-1.58681994675596e+001,-4.02236383794624e+000

2.52813219796278e+005,-1.58683164818494e+001,-4.07846804547182e+000

2.56342360828676e+005,-1.58684367383416e+001,-4.13535353784041e+000

2.59920766833993e+005,-1.58685603255772e+001,-4.19303114403639e+000

2.63549125525621e+005,-1.58686873344455e+001,-4.25151184115758e+000

2.67228134217075e+005,-1.58688178582436e+001,-4.31080675636882e+000

2.70958499956006e+005,-1.58689519927359e+001,-4.37092716887936e+000

2.74740939660078e+005,-1.58690898362156e+001,-4.43188451194312e+000

2.78576180254757e+005,-1.58692314895673e+001,-4.49369037488280e+000

2.82464958813007e+005,-1.58693770563307e+001,-4.55635650513929e+000

2.86408022696948e+005,-1.58695266427666e+001,-4.61989481034441e+000

2.90406129701488e+005,-1.58696803579230e+001,-4.68431736041794e+000

2.94460048199957e+005,-1.58698383137036e+001,-4.74963638969084e+000

2.98570557291775e+005,-1.58700006249372e+001,-4.81586429905272e+000

3.02738446952187e+005,-1.58701674094489e+001,-4.88301365812433e+000

3.06964518184081e+005,-1.58703387881324e+001,-4.95109720745608e+000

3.11249583171928e+005,-1.58705148850240e+001,-5.02012786075336e+000

3.15594465437872e+005,-1.58706958273785e+001,-5.09011870712557e+000

3.19999999999997e+005,-1.58708817457456e+001,-5.16108301336450e+000

3.24467033532806e+005,-1.58710727740485e+001,-5.23303422624716e+000

3.28996424529938e+005,-1.58712690496647e+001,-5.30598597486619e+000

3.33589043469155e+005,-1.58714707135070e+001,-5.37995207298839e+000

3.38245772979638e+005,-1.58716779101070e+001,-5.45494652143963e+000

3.42967508011610e+005,-1.58718907877002e+001,-5.53098351051807e+000

3.47755156008335e+005,-1.58721094983123e+001,-5.60807742243577e+000

3.52609637080511e+005,-1.58723341978476e+001,-5.68624283378866e+000

3.57531884183106e+005,-1.58725650461789e+001,-5.76549451805471e+000

3.62522843294651e+005,-1.58728022072390e+001,-5.84584744812245e+000

3.67583473599047e+005,-1.58730458491142e+001,-5.92731679884812e+000

3.72714747669902e+005,-1.58732961441389e+001,-6.00991794964307e+000

3.77917651657445e+005,-1.58735532689933e+001,-6.09366648709049e+000

3.83193185478053e+005,-1.58738174048009e+001,-6.17857820759467e+000

3.88542363006410e+005,-1.58740887372299e+001,-6.26466912005970e+000

3.93966212270369e+005,-1.58743674565946e+001,-6.35195544859953e+000

3.99465775648511e+005,-1.58746537579601e+001,-6.44045363528126e+000

4.05042110070485e+005,-1.58749478412478e+001,-6.53018034289930e+000

4.10696287220124e+005,-1.58752499113434e+001,-6.62115245778344e+000

4.16429393741414e+005,-1.58755601782067e+001,-6.71338709263877e+000

4.22242531447321e+005,-1.58758788569831e+001,-6.80690158942075e+000

4.28136817531551e+005,-1.58762061681173e+001,-6.90171352224422e+000

4.34113384783250e+005,-1.58765423374690e+001,-6.99784070032570e+000

4.40173381804713e+005,-1.58768875964307e+001,-7.09530117096309e+000

4.46317973232124e+005,-1.58772421820472e+001,-7.19411322254994e+000

4.52548339959385e+005,-1.58776063371373e+001,-7.29429538762613e+000

4.58865679365059e+005,-1.58779803104183e+001,-7.39586644596617e+000

4.65271205542494e+005,-1.58783643566317e+001,-7.49884542770531e+000

4.71766149533147e+005,-1.58787587366718e+001,-7.60325161650241e+000

4.78351759563174e+005,-1.58791637177160e+001,-7.70910455274374e+000

4.85029301283321e+005,-1.58795795733581e+001,-7.81642403678534e+000

4.91800058012158e+005,-1.58800065837436e+001,-7.92523013223551e+000

4.98665330982714e+005,-1.58804450357068e+001,-8.03554316927966e+000

5.05626439592555e+005,-1.58808952229120e+001,-8.14738374804520e+000

5.12684721657352e+005,-1.58813574459954e+001,-8.26077274201038e+000

5.19841533667984e+005,-1.58818320127111e+001,-8.37573130145618e+000

5.27098251051240e+005,-1.58823192380785e+001,-8.49228085696219e+000

5.34456268434150e+005,-1.58828194445342e+001,-8.61044312294729e+000

5.41916999912011e+005,-1.58833329620847e+001,-8.73024010125718e+000

