Freq.,VOut,OutRef

1.00000000000000e+004,-2.34339876958680e+001,-4.17243264927039e-001

1.01395947979003e+004,-2.34339900366604e+001,-4.23067716214055e-001

1.02811382665607e+004,-2.34339924432599e+001,-4.28973471788229e-001

1.04246576084112e+004,-2.34339949175164e+001,-4.34961666529443e-001

1.05701804056138e+004,-2.34339974613319e+001,-4.41033451155434e-001

1.07177346253629e+004,-2.34340000766620e+001,-4.47189992444907e-001

1.08673486252606e+004,-2.34340027655170e+001,-4.53432473459371e-001

1.10190511587661e+004,-2.34340055299639e+001,-4.59762093770523e-001

1.11728713807222e+004,-2.34340083721279e+001,-4.66180069691960e-001

1.13288388529580e+004,-2.34340112941935e+001,-4.72687634512327e-001

1.14869835499703e+004,-2.34340142984072e+001,-4.79286038731571e-001

1.16473358646846e+004,-2.34340173870782e+001,-4.85976550299083e-001

1.18099266142953e+004,-2.34340205625808e+001,-4.92760454861793e-001

1.19747870461893e+004,-2.34340238273560e+001,-4.99639056007030e-001

1.21419488439505e+004,-2.34340271839135e+001,-5.06613675513816e-001

1.23114441334492e+004,-2.34340306348335e+001,-5.13685653606818e-001

1.24833054890161e+004,-2.34340341827685e+001,-5.20856349214689e-001

1.26575659397028e+004,-2.34340378304459e+001,-5.28127140227882e-001

1.28342589756290e+004,-2.34340415806696e+001,-5.35499423766718e-001

1.30134185544193e+004,-2.34340454363225e+001,-5.42974616445586e-001

1.31950791077289e+004,-2.34340494003681e+001,-5.50554154650227e-001

1.33792755478611e+004,-2.34340534758538e+001,-5.58239494806830e-001

1.35660432744767e+004,-2.34340576659121e+001,-5.66032113666867e-001

1.37554181813974e+004,-2.34340619737640e+001,-5.73933508587975e-001

1.39474366635040e+004,-2.34340664027207e+001,-5.81945197821489e-001

1.41421356237309e+004,-2.34340709561866e+001,-5.90068720804462e-001

1.43395524801583e+004,-2.34340756376620e+001,-5.98305638453788e-001

1.45397251732031e+004,-2.34340804507451e+001,-6.06657533467584e-001

1.47426921729110e+004,-2.34340853991358e+001,-6.15126010626538e-001

1.49484924863494e+004,-2.34340904866375e+001,-6.23712697104012e-001

1.51571656651040e+004,-2.34340957171610e+001,-6.32419242776099e-001

1.53687518128801e+004,-2.34341010947266e+001,-6.41247320540057e-001

1.55832915932100e+004,-2.34341066234678e+001,-6.50198626633579e-001

1.58008262372675e+004,-2.34341123076342e+001,-6.59274880960603e-001

1.60213975517924e+004,-2.34341181515950e+001,-6.68477827422153e-001

1.62450479271247e+004,-2.34341241598420e+001,-6.77809234249352e-001

1.64718203453514e+004,-2.34341303369935e+001,-6.87270894343119e-001

1.67017583885674e+004,-2.34341366877972e+001,-6.96864625618560e-001

1.69349062472505e+004,-2.34341432171347e+001,-7.06592271351951e-001

1.71713087287550e+004,-2.34341499300245e+001,-7.16455700535676e-001

1.74110112659224e+004,-2.34341568316264e+001,-7.26456808235986e-001

1.76540599258131e+004,-2.34341639272449e+001,-7.36597515956824e-001

1.79005014185594e+004,-2.34341712223339e+001,-7.46879772006130e-001

1.81503831063432e+004,-2.34341787225004e+001,-7.57305551871837e-001

1.84037530124975e+004,-2.34341864335090e+001,-7.67876858599711e-001

1.86606598307361e+004,-2.34341943612865e+001,-7.78595723175889e-001

1.89211529345119e+004,-2.34342025119259e+001,-7.89464204917795e-001

1.91852823865052e+004,-2.34342108916918e+001,-8.00484391868171e-001

1.94530989482457e+004,-2.34342195070248e+001,-8.11658401194392e-001

1.97246540898671e+004,-2.34342283645462e+001,-8.22988379595697e-001

1.99999999999999e+004,-2.34342374710639e+001,-8.34476503711875e-001

2.02791895958005e+004,-2.34342468335766e+001,-8.46124980543469e-001

2.05622765331213e+004,-2.34342564592801e+001,-8.57936047871417e-001

2.08493152168224e+004,-2.34342663555722e+001,-8.69911974687720e-001

2.11403608112276e+004,-2.34342765300587e+001,-8.82055061628721e-001

2.14354692507258e+004,-2.34342869905591e+001,-8.94367641416368e-001

2.17346972505211e+004,-2.34342977451125e+001,-9.06852079304380e-001

2.20381023175322e+004,-2.34343088019841e+001,-9.19510773531376e-001

2.23457427614443e+004,-2.34343201696715e+001,-9.32346155778903e-001

2.26576777059159e+004,-2.34343318569107e+001,-9.45360691638300e-001

2.29739670999406e+004,-2.34343438726836e+001,-9.58556881081978e-001

2.32946717293690e+004,-2.34343562262240e+001,-9.71937258941343e-001

2.36198532285905e+004,-2.34343689270257e+001,-9.85504395391858e-001

2.39495740923785e+004,-2.34343819848490e+001,-9.99260896445304e-001

2.42838976879009e+004,-2.34343954097284e+001,-1.01320940444747e+000

2.46228882668982e+004,-2.34344092119805e+001,-1.02735259858418e+000

2.49666109780322e+004,-2.34344234022118e+001,-1.04169319539312e+000

2.53151318794055e+004,-2.34344379913265e+001,-1.05623394928373e+000

2.56685179512580e+004,-2.34344529905357e+001,-1.07097765306232e+000

2.60268371088386e+004,-2.34344684113651e+001,-1.08592713846789e+000

2.63901582154578e+004,-2.34344842656643e+001,-1.10108527671213e+000

2.67585510957221e+004,-2.34345005656161e+001,-1.11645497902803e+000

2.71320865489533e+004,-2.34345173237450e+001,-1.13203919722644e+000

2.75108363627948e+004,-2.34345345529281e+001,-1.14784092425977e+000

2.78948733270080e+004,-2.34345522664037e+001,-1.16386319479314e+000

2.82842712474618e+004,-2.34345704777823e+001,-1.18010908578434e+000

2.86791049603164e+004,-2.34345892010567e+001,-1.19658171707126e+000

2.90794503464061e+004,-2.34346084506127e+001,-1.21328425196781e+000

2.94853843458219e+004,-2.34346282412405e+001,-1.23021989786561e+000

2.98969849726987e+004,-2.34346485881454e+001,-1.24739190684831e+000

3.03143313302078e+004,-2.34346695069602e+001,-1.26480357631111e+000

3.07375036257601e+004,-2.34346910137566e+001,-1.28245824958882e+000

3.11665831864199e+004,-2.34347131250578e+001,-1.30035931659530e+000

3.16016524745350e+004,-2.34347358578510e+001,-1.31851021446741e+000

3.20427951035848e+004,-2.34347592296010e+001,-1.33691442822132e+000

3.24900958542493e+004,-2.34347832582625e+001,-1.35557549141671e+000

3.29436406907028e+004,-2.34348079622950e+001,-1.37449698682958e+000

3.34035167771346e+004,-2.34348333606761e+001,-1.39368254713512e+000

3.38698124945009e+004,-2.34348594729167e+001,-1.41313585559789e+000

3.43426174575100e+004,-2.34348863190754e+001,-1.43286064677489e+000

3.48220225318448e+004,-2.34349139197744e+001,-1.45286070722482e+000

3.53081198516260e+004,-2.34349422962146e+001,-1.47313987622987e+000

3.58010028371187e+004,-2.34349714701927e+001,-1.49370204652451e+000

3.63007662126863e+004,-2.34350014641173e+001,-1.51455116503582e+000

3.68075060249948e+004,-2.34350323010262e+001,-1.53569123363525e+000

3.73213196614721e+004,-2.34350640046040e+001,-1.55712630989738e+000

3.78423058690237e+004,-2.34350965992006e+001,-1.57886050787158e+000

3.83705647730104e+004,-2.34351301098493e+001,-1.60089799886313e+000

3.89061978964912e+004,-2.34351645622863e+001,-1.62324301222474e+000

3.94493081797342e+004,-2.34351999829706e+001,-1.64589983615980e+000

3.99999999999998e+004,-2.34352363991037e+001,-1.66887281853529e+000

4.05583791916010e+004,-2.34352738386508e+001,-1.69216636770676e+000

4.11245530662425e+004,-2.34353123303622e+001,-1.71578495335389e+000

4.16986304336447e+004,-2.34353519037952e+001,-1.73973310732689e+000

4.22807216224550e+004,-2.34353925893367e+001,-1.76401542450584e+000

4.28709385014515e+004,-2.34354344182267e+001,-1.78863656367011e+000

4.34693945010421e+004,-2.34354774225818e+001,-1.81360124838014e+000

4.40762046350642e+004,-2.34355216354201e+001,-1.83891426787089e+000

4.46914855228886e+004,-2.34355670906861e+001,-1.86458047795800e+000

4.53153554118317e+004,-2.34356138232773e+001,-1.89060480195468e+000

4.59479341998812e+004,-2.34356618690699e+001,-1.91699223160305e+000

4.65893434587380e+004,-2.34357112649474e+001,-1.94374782801497e+000

4.72397064571810e+004,-2.34357620488278e+001,-1.97087672262892e+000

4.78991481847569e+004,-2.34358142596929e+001,-1.99838411817716e+000

4.85677953758016e+004,-2.34358679376185e+001,-2.02627528966666e+000

4.92457765337964e+004,-2.34359231238043e+001,-2.05455558537307e+000

4.99332219560642e+004,-2.34359798606060e+001,-2.08323042784803e+000

5.06302637588109e+004,-2.34360381915672e+001,-2.11230531493993e+000

5.13370359025159e+004,-2.34360981614529e+001,-2.14178582082764e+000

5.20536742176771e+004,-2.34361598162836e+001,-2.17167759706880e+000

5.27803164309155e+004,-2.34362232033704e+001,-2.20198637366184e+000

5.35171021914442e+004,-2.34362883713512e+001,-2.23271796012101e+000

5.42641730979066e+004,-2.34363553702277e+001,-2.26387824656739e+000

5.50216727255895e+004,-2.34364242514036e+001,-2.29547320483239e+000

5.57897466540159e+004,-2.34364950677236e+001,-2.32750888957712e+000

5.65685424949235e+004,-2.34365678735142e+001,-2.35999143942661e+000

5.73582099206328e+004,-2.34366427246245e+001,-2.39292707811730e+000

5.81589006928121e+004,-2.34367196784692e+001,-2.42632211566109e+000

5.89707686916437e+004,-2.34367987940720e+001,-2.46018294952439e+000

5.97939699453972e+004,-2.34368801321110e+001,-2.49451606582182e+000

6.06286626604156e+004,-2.34369637549645e+001,-2.52932804052621e+000

6.14750072515201e+004,-2.34370497267586e+001,-2.56462554069354e+000

6.23331663728396e+004,-2.34371381134162e+001,-2.60041532570485e+000

6.32033049490698e+004,-2.34372289827068e+001,-2.63670424852303e+000

6.40855902071694e+004,-2.34373224042985e+001,-2.67349925696698e+000

6.49801917084985e+004,-2.34374184498106e+001,-2.71080739500090e+000

6.58872813814055e+004,-2.34375171928680e+001,-2.74863580404159e+000

6.68070335542691e+004,-2.34376187091577e+001,-2.78699172428074e+000

6.77396249890018e+004,-2.34377230764855e+001,-2.82588249602575e+000

6.86852349150199e+004,-2.34378303748359e+001,-2.86531556105708e+000

6.96440450636895e+004,-2.34379406864322e+001,-2.90529846400264e+000

7.06162397032520e+004,-2.34380540957993e+001,-2.94583885372877e+000

7.16020056742374e+004,-2.34381706898275e+001,-2.98694448475177e+000

7.26015324253724e+004,-2.34382905578385e+001,-3.02862321866331e+000

7.36150120499896e+004,-2.34384137916536e+001,-3.07088302557582e+000

7.46426393229441e+004,-2.34385404856623e+001,-3.11373198558701e+000

7.56846117380472e+004,-2.34386707368947e+001,-3.15717829026021e+000

7.67411295460207e+004,-2.34388046450944e+001,-3.20123024412454e+000

7.78123957929823e+004,-2.34389423127945e+001,-3.24589626619382e+000

7.88986163594682e+004,-2.34390838453944e+001,-3.29118489150371e+000

7.99999999999995e+004,-2.34392293512405e+001,-3.33710477266706e+000

8.11167583832018e+004,-2.34393789417070e+001,-3.38366468145065e+000

8.22491061324848e+004,-2.34395327312811e+001,-3.43087351036815e+000

8.33972608672892e+004,-2.34396908376486e+001,-3.47874027429504e+000

8.45614432449099e+004,-2.34398533817831e+001,-3.52727411210128e+000

8.57418770029029e+004,-2.34400204880372e+001,-3.57648428830439e+000

8.69387890020841e+004,-2.34401922842364e+001,-3.62638019474219e+000

8.81524092701283e+004,-2.34403689017749e+001,-3.67697135226623e+000

8.93829710457770e+004,-2.34405504757152e+001,-3.72826741245346e+000

9.06307108236633e+004,-2.34407371448893e+001,-3.78027815933993e+000

9.18958683997622e+004,-2.34409290520035e+001,-3.83301351117405e+000

9.31786869174758e+004,-2.34411263437449e+001,-3.88648352219086e+000

9.44794129143618e+004,-2.34413291708926e+001,-3.94069838440577e+000

9.57982963695136e+004,-2.34415376884303e+001,-3.99566842942983e+000

9.71355907516031e+004,-2.34417520556627e+001,-4.05140413030617e+000

9.84915530675926e+004,-2.34419724363347e+001,-4.10791610336641e+000

9.98664439121282e+004,-2.34421989987546e+001,-4.16521511010878e+000

1.01260527517622e+005,-2.34424319159195e+001,-4.22331205909700e+000

1.02674071805032e+005,-2.34426713656453e+001,-4.28221800788052e+000

1.04107348435354e+005,-2.34429175306990e+001,-4.34194416493607e+000

1.05560632861831e+005,-2.34431705989357e+001,-4.40250189163019e+000

1.07034204382888e+005,-2.34434307634385e+001,-4.46390270420348e+000

1.08528346195813e+005,-2.34436982226628e+001,-4.52615827577655e+000

1.10043345451179e+005,-2.34439731805838e+001,-4.58928043837655e+000

1.11579493308032e+005,-2.34442558468483e+001,-4.65328118498672e+000

1.13137084989847e+005,-2.34445464369310e+001,-4.71817267161496e+000

1.14716419841265e+005,-2.34448451722943e+001,-4.78396721938755e+000

1.16317801385624e+005,-2.34451522805527e+001,-4.85067731666083e+000

1.17941537383287e+005,-2.34454679956417e+001,-4.91831562115723e+000

1.19587939890794e+005,-2.34457925579911e+001,-4.98689496212039e+000

1.21257325320831e+005,-2.34461262147027e+001,-5.05642834249422e+000

1.22950014503040e+005,-2.34464692197331e+001,-5.12692894112120e+000

1.24666332745679e+005,-2.34468218340813e+001,-5.19841011496368e+000

1.26406609898139e+005,-2.34471843259811e+001,-5.27088540134555e+000

1.28171180414339e+005,-2.34475569710987e+001,-5.34436852021502e+000

1.29960383416997e+005,-2.34479400527356e+001,-5.41887337642943e+000

1.31774562762811e+005,-2.34483338620368e+001,-5.49441406205959e+000

1.33614067108538e+005,-2.34487386982042e+001,-5.57100485871663e+000

1.35479249978003e+005,-2.34491548687163e+001,-5.64866023989753e+000

1.37370469830040e+005,-2.34495826895532e+001,-5.72739487335299e+000

1.39288090127379e+005,-2.34500224854274e+001,-5.80722362347394e+000

1.41232479406504e+005,-2.34504745900209e+001,-5.88816155369866e+000

1.43204011348474e+005,-2.34509393462283e+001,-5.97022392894048e+000

1.45203064850745e+005,-2.34514171064066e+001,-6.05342621803335e+000

1.47230024099979e+005,-2.34519082326313e+001,-6.13778409619718e+000

1.49285278645888e+005,-2.34524130969586e+001,-6.22331344752297e+000

1.51369223476094e+005,-2.34529320816953e+001,-6.31003036747492e+000

1.53482259092041e+005,-2.34534655796750e+001,-6.39795116541134e+000

1.55624791585964e+005,-2.34540139945419e+001,-6.48709236712318e+000

1.57797232718936e+005,-2.34545777410414e+001,-6.57747071738976e+000

1.59999999999999e+005,-2.34551572453187e+001,-6.66910318255084e+000

1.62233516766403e+005,-2.34557529452241e+001,-6.76200695309546e+000

1.64498212264969e+005,-2.34563652906276e+001,-6.85619944626608e+000

1.66794521734578e+005,-2.34569947437396e+001,-6.95169830867796e+000

1.69122886489819e+005,-2.34576417794416e+001,-7.04852141895254e+000

1.71483754005805e+005,-2.34583068856236e+001,-7.14668689036523e+000

1.73877578004168e+005,-2.34589905635314e+001,-7.24621307350571e+000

1.76304818540256e+005,-2.34596933281214e+001,-7.34711855895121e+000

1.78765942091554e+005,-2.34604157084251e+001,-7.44942217995033e+000

1.81261421647326e+005,-2.34611582479225e+001,-7.55314301511873e+000

1.83791736799524e+005,-2.34619215049244e+001,-7.65830039114354e+000

1.86357373834951e+005,-2.34627060529644e+001,-7.76491388549730e+000

1.88958825828723e+005,-2.34635124812008e+001,-7.87300332915940e+000

1.91596592739027e+005,-2.34643413948281e+001,-7.98258880934502e+000

1.94271181503206e+005,-2.34651934154982e+001,-8.09369067223917e+000

1.96983106135185e+005,-2.34660691817528e+001,-8.20632952573474e+000

1.99732887824256e+005,-2.34669693494651e+001,-8.32052624217610e+000

2.02521055035243e+005,-2.34678945922929e+001,-8.43630196110227e+000

2.05348143610063e+005,-2.34688456021427e+001,-8.55367809199240e+000

2.08214696870707e+005,-2.34698230896440e+001,-8.67267631701042e+000

2.11121265723661e+005,-2.34708277846359e+001,-8.79331859374724e+000

2.14068408765776e+005,-2.34718604366645e+001,-8.91562715795951e+000

2.17056692391625e+005,-2.34729218154920e+001,-9.03962452630331e+000

2.20086690902357e+005,-2.34740127116184e+001,-9.16533349906055e+000

2.23158986616063e+005,-2.34751339368142e+001,-9.29277716285739e+000

2.26274169979693e+005,-2.34762863246663e+001,-9.42197889337108e+000

2.29432839682530e+005,-2.34774707311360e+001,-9.55296235802588e+000

2.32635602771247e+005,-2.34786880351300e+001,-9.68575151867264e+000

2.35883074766574e+005,-2.34799391390839e+001,-9.82037063425403e+000

2.39175879781588e+005,-2.34812249695591e+001,-9.95684426344943e+000

2.42514650641661e+005,-2.34825464778532e+001,-1.00951972672995e+001

2.45900029006080e+005,-2.34839046406233e+001,-1.02354548118078e+001

2.49332665491357e+005,-2.34853004605236e+001,-1.03776423705159e+001

2.52813219796278e+005,-2.34867349668568e+001,-1.05217857270510e+001

2.56342360828676e+005,-2.34882092162391e+001,-1.06679109776424e+001

2.59920766833993e+005,-2.34897242932801e+001,-1.08160445336035e+001

2.63549125525621e+005,-2.34912813112767e+001,-1.09662131237788e+001

2.67228134217075e+005,-2.34928814129219e+001,-1.11184437969497e+001

2.70958499956006e+005,-2.34945257710277e+001,-1.12727639241998e+001

2.74740939660078e+005,-2.34962155892640e+001,-1.14292012012320e+001

2.78576180254757e+005,-2.34979521029116e+001,-1.15877836506388e+001

2.82464958813007e+005,-2.34997365796308e+001,-1.17485396241185e+001

2.86408022696948e+005,-2.35015703202453e+001,-1.19114978046369e+001

2.90406129701488e+005,-2.35034546595413e+001,-1.20766872085284e+001

2.94460048199957e+005,-2.35053909670826e+001,-1.22441371875338e+001

2.98570557291775e+005,-2.35073806480411e+001,-1.24138774307713e+001

3.02738446952187e+005,-2.35094251440426e+001,-1.25859379666360e+001

3.06964518184081e+005,-2.35115259340295e+001,-1.27603491646239e+001

3.11249583171928e+005,-2.35136845351377e+001,-1.29371417370764e+001

3.15594465437872e+005,-2.35159025035913e+001,-1.31163467408405e+001

3.19999999999997e+005,-2.35181814356113e+001,-1.32979955788407e+001

3.24467033532806e+005,-2.35205229683420e+001,-1.34821200015575e+001

3.28996424529938e+005,-2.35229287807918e+001,-1.36687521084077e+001

3.33589043469155e+005,-2.35254005947905e+001,-1.38579243490223e+001

3.38245772979638e+005,-2.35279401759628e+001,-1.40496695244153e+001

3.42967508011610e+005,-2.35305493347167e+001,-1.42440207880411e+001

3.47755156008335e+005,-2.35332299272476e+001,-1.44410116467311e+001

3.52609637080511e+005,-2.35359838565592e+001,-1.46406759615086e+001

3.57531884183106e+005,-2.35388130734976e+001,-1.48430479482728e+001

3.62522843294651e+005,-2.35417195778022e+001,-1.50481621783476e+001

3.67583473599047e+005,-2.35447054191708e+001,-1.52560535788909e+001

3.72714747669902e+005,-2.35477726983396e+001,-1.54667574331546e+001

3.77917651657445e+005,-2.35509235681775e+001,-1.56803093805934e+001

3.83193185478053e+005,-2.35541602347946e+001,-1.58967454168137e+001

3.88542363006410e+005,-2.35574849586642e+001,-1.61161018933567e+001

3.93966212270369e+005,-2.35609000557586e+001,-1.63384155173106e+001

3.99465775648511e+005,-2.35644078986973e+001,-1.65637233507426e+001

4.05042110070485e+005,-2.35680109179081e+001,-1.67920628099480e+001

4.10696287220124e+005,-2.35717116028000e+001,-1.70234716645055e+001

4.16429393741414e+005,-2.35755125029472e+001,-1.72579880361356e+001

4.22242531447321e+005,-2.35794162292846e+001,-1.74956503973522e+001

4.28136817531551e+005,-2.35834254553129e+001,-1.77364975699025e+001

4.34113384783250e+005,-2.35875429183131e+001,-1.79805687229879e+001

4.40173381804713e+005,-2.35917714205702e+001,-1.82279033712566e+001

4.46317973232124e+005,-2.35961138306043e+001,-1.84785413725656e+001

4.52548339959385e+005,-2.36005730844094e+001,-1.87325229254981e+001

4.58865679365059e+005,-2.36051521866973e+001,-1.89898885666364e+001

4.65271205542494e+005,-2.36098542121480e+001,-1.92506791675774e+001

4.71766149533147e+005,-2.36146823066627e+001,-1.95149359316866e+001

4.78351759563174e+005,-2.36196396886216e+001,-1.97827003905819e+001

4.85029301283321e+005,-2.36247296501418e+001,-2.00540144003414e+001

4.91800058012158e+005,-2.36299555583371e+001,-2.03289201374267e+001

4.98665330982714e+005,-2.36353208565767e+001,-2.06074600943153e+001

5.05626439592555e+005,-2.36408290657419e+001,-2.08896770748350e+001

5.12684721657352e+005,-2.36464837854792e+001,-2.11756141891938e+001

5.19841533667984e+005,-2.36522886954488e+001,-2.14653148486970e+001

5.27098251051240e+005,-2.36582475565664e+001,-2.17588227601478e+001

5.34456268434150e+005,-2.36643642122364e+001,-2.20561819199207e+001

5.41916999912011e+005,-2.36706425895762e+001,-2.23574366077057e+001

