Freq.,VOut,OutRef

1.00000000000000e+004,-4.73958026954481e-001,-5.52688314737273e-002

1.01395947979003e+004,-4.73958017330733e-001,-5.60403558938455e-002

1.02811382665607e+004,-4.73958007436517e-001,-5.68226504050264e-002

1.04246576084112e+004,-4.73957997264058e-001,-5.76158653538515e-002

1.05701804056138e+004,-4.73957986805598e-001,-5.84201531839425e-002

1.07177346253629e+004,-4.73957976053299e-001,-5.92356684664960e-002

1.08673486252606e+004,-4.73957964998545e-001,-6.00625679333627e-002

1.10190511587661e+004,-4.73957953633088e-001,-6.09010105011678e-002

1.11728713807222e+004,-4.73957941948138e-001,-6.17511573064794e-002

1.13288388529580e+004,-4.73957929934693e-001,-6.26131717349101e-002

1.14869835499703e+004,-4.73957917583493e-001,-6.34872194536561e-002

1.16473358646846e+004,-4.73957904885097e-001,-6.43734684412310e-002

1.18099266142953e+004,-4.73957891829792e-001,-6.52720890213406e-002

1.19747870461893e+004,-4.73957878407380e-001,-6.61832538971051e-002

1.21419488439505e+004,-4.73957864607739e-001,-6.71071381797887e-002

1.23114441334492e+004,-4.73957850420112e-001,-6.80439194275905e-002

1.24833054890161e+004,-4.73957835833629e-001,-6.89937776758363e-002

1.26575659397028e+004,-4.73957820837139e-001,-6.99568954732911e-002

1.28342589756290e+004,-4.73957805419060e-001,-7.09334579179722e-002

1.30134185544193e+004,-4.73957789567563e-001,-7.19236526908097e-002

1.31950791077289e+004,-4.73957773270446e-001,-7.29276700928874e-002

1.33792755478611e+004,-4.73957756515180e-001,-7.39457030825438e-002

1.35660432744767e+004,-4.73957739288962e-001,-7.49779473104533e-002

1.37554181813974e+004,-4.73957721578568e-001,-7.60246011591408e-002

1.39474366635040e+004,-4.73957703370185e-001,-7.70858657821003e-002

1.41421356237309e+004,-4.73957684650054e-001,-7.81619451378153e-002

1.43395524801583e+004,-4.73957665403541e-001,-7.92530460351212e-002

1.45397251732031e+004,-4.73957645616002e-001,-8.03593781674761e-002

1.47426921729110e+004,-4.73957625272377e-001,-8.14811541555208e-002

1.49484924863494e+004,-4.73957604356738e-001,-8.26185895907498e-002

1.51571656651040e+004,-4.73957582853287e-001,-8.37719030708291e-002

1.53687518128801e+004,-4.73957560745284e-001,-8.49413162477378e-002

1.55832915932100e+004,-4.73957538015816e-001,-8.61270538664409e-002

1.58008262372675e+004,-4.73957514647450e-001,-8.73293438090286e-002

1.60213975517924e+004,-4.73957490622135e-001,-8.85484171397961e-002

1.62450479271247e+004,-4.73957465921584e-001,-8.97845081468835e-002

1.64718203453514e+004,-4.73957440526609e-001,-9.10378543916719e-002

1.67017583885674e+004,-4.73957414417784e-001,-9.23086967498091e-002

1.69349062472505e+004,-4.73957387575168e-001,-9.35972794592612e-002

1.71713087287550e+004,-4.73957359977859e-001,-9.49038501701011e-002

1.74110112659224e+004,-4.73957331604880e-001,-9.62286599865120e-002

1.76540599258131e+004,-4.73957302434456e-001,-9.75719635194721e-002

1.79005014185594e+004,-4.73957272444009e-001,-9.89340189349802e-002

1.81503831063432e+004,-4.73957241610539e-001,-1.00315088001875e-001

1.84037530124975e+004,-4.73957209910383e-001,-1.01715436143606e-001

1.86606598307361e+004,-4.73957177319189e-001,-1.03135332489100e-001

1.89211529345119e+004,-4.73957143811824e-001,-1.04575049924584e-001

1.91852823865052e+004,-4.73957109362779e-001,-1.06034865143776e-001

1.94530989482457e+004,-4.73957073945317e-001,-1.07515058706463e-001

1.97246540898671e+004,-4.73957037532372e-001,-1.09015915086366e-001

1.99999999999999e+004,-4.73957000095962e-001,-1.10537722728963e-001

2.02791895958005e+004,-4.73956961607162e-001,-1.12080774108060e-001

2.05622765331213e+004,-4.73956922036737e-001,-1.13645365777026e-001

2.08493152168224e+004,-4.73956881354015e-001,-1.15231798432543e-001

2.11403608112276e+004,-4.73956839527788e-001,-1.16840376967853e-001

2.14354692507258e+004,-4.73956796525949e-001,-1.18471410532000e-001

2.17346972505211e+004,-4.73956752315530e-001,-1.20125212589636e-001

2.20381023175322e+004,-4.73956706862403e-001,-1.21802100983070e-001

2.23457427614443e+004,-4.73956660131822e-001,-1.23502397989525e-001

2.26576777059159e+004,-4.73956612087778e-001,-1.25226430387038e-001

2.29739670999406e+004,-4.73956562693435e-001,-1.26974529514315e-001

2.32946717293690e+004,-4.73956511910831e-001,-1.28747031336254e-001

2.36198532285905e+004,-4.73956459701015e-001,-1.30544276507418e-001

2.39495740923785e+004,-4.73956406023768e-001,-1.32366610438791e-001

2.42838976879009e+004,-4.73956350837876e-001,-1.34214383362996e-001

2.46228882668982e+004,-4.73956294101030e-001,-1.36087950401527e-001

2.49666109780322e+004,-4.73956235769672e-001,-1.37987671633397e-001

2.53151318794055e+004,-4.73956175798888e-001,-1.39913912165799e-001

2.56685179512580e+004,-4.73956114142725e-001,-1.41867042201353e-001

2.60268371088386e+004,-4.73956050753704e-001,-1.43847437112251e-001

2.63901582154578e+004,-4.73955985583323e-001,-1.45855477509050e-001

2.67585510957221e+004,-4.73955918581417e-001,-1.47891549318012e-001

2.71320865489533e+004,-4.73955849696517e-001,-1.49956043851936e-001

2.75108363627948e+004,-4.73955778875840e-001,-1.52049357886173e-001

2.78948733270080e+004,-4.73955706064908e-001,-1.54171893736253e-001

2.82842712474618e+004,-4.73955631207837e-001,-1.56324059333625e-001

2.86791049603164e+004,-4.73955554247259e-001,-1.58506268304210e-001

2.90794503464061e+004,-4.73955475123911e-001,-1.60718940050005e-001

2.94853843458219e+004,-4.73955393777092e-001,-1.62962499826606e-001

2.98969849726987e+004,-4.73955310144410e-001,-1.65237378826990e-001

3.03143313302078e+004,-4.73955224161647e-001,-1.67544014263377e-001

3.07375036257601e+004,-4.73955135762793e-001,-1.69882849452679e-001

3.11665831864199e+004,-4.73955044879931e-001,-1.72254333900248e-001

3.16016524745350e+004,-4.73954951443433e-001,-1.74658923386770e-001

3.20427951035848e+004,-4.73954855381491e-001,-1.77097080056277e-001

3.24900958542493e+004,-4.73954756620356e-001,-1.79569272505055e-001

3.29436406907028e+004,-4.73954655084283e-001,-1.82075975870473e-001

3.34035167771346e+004,-4.73954550695236e-001,-1.84617671924567e-001

3.38698124945009e+004,-4.73954443373271e-001,-1.87194849163614e-001

3.43426174575100e+004,-4.73954333035987e-001,-1.89808002905083e-001

3.48220225318448e+004,-4.73954219598585e-001,-1.92457635381987e-001

3.53081198516260e+004,-4.73954102974253e-001,-1.95144255836966e-001

3.58010028371187e+004,-4.73953983073276e-001,-1.97868380625216e-001

3.63007662126863e+004,-4.73953859803821e-001,-2.00630533308238e-001

3.68075060249948e+004,-4.73953733071238e-001,-2.03431244758557e-001

3.73213196614721e+004,-4.73953602778373e-001,-2.06271053259636e-001

3.78423058690237e+004,-4.73953468825265e-001,-2.09150504610547e-001

3.83705647730104e+004,-4.73953331109107e-001,-2.12070152230678e-001

3.89061978964912e+004,-4.73953189524326e-001,-2.15030557265153e-001

3.94493081797342e+004,-4.73953043962258e-001,-2.18032288694507e-001

3.99999999999998e+004,-4.73952894311475e-001,-2.21075923441231e-001

4.05583791916010e+004,-4.73952740457020e-001,-2.24162046485518e-001

4.11245530662425e+004,-4.73952582280950e-001,-2.27291250972614e-001

4.16986304336447e+004,-4.73952419662150e-001,-2.30464138328877e-001

4.22807216224550e+004,-4.73952252475701e-001,-2.33681318380036e-001

4.28709385014515e+004,-4.73952080593575e-001,-2.36943409463660e-001

4.34693945010421e+004,-4.73951903884115e-001,-2.40251038551151e-001

4.40762046350642e+004,-4.73951722211690e-001,-2.43604841368633e-001

4.46914855228886e+004,-4.73951535437124e-001,-2.47005462517281e-001

4.53153554118317e+004,-4.73951343417340e-001,-2.50453555598252e-001

4.59479341998812e+004,-4.73951146005151e-001,-2.53949783339200e-001

4.65893434587380e+004,-4.73950943049328e-001,-2.57494817719971e-001

4.72397064571810e+004,-4.73950734394347e-001,-2.61089340103611e-001

4.78991481847569e+004,-4.73950519880398e-001,-2.64734041366270e-001

4.85677953758016e+004,-4.73950299343125e-001,-2.68429622030871e-001

4.92457765337964e+004,-4.73950072613615e-001,-2.72176792400920e-001

4.99332219560642e+004,-4.73949839518279e-001,-2.75976272697637e-001

5.06302637588109e+004,-4.73949599878663e-001,-2.79828793198691e-001

5.13370359025159e+004,-4.73949353511188e-001,-2.83735094379271e-001

5.20536742176771e+004,-4.73949100227241e-001,-2.87695927052725e-001

5.27803164309155e+004,-4.73948839833048e-001,-2.91712052516206e-001

5.35171021914442e+004,-4.73948572129246e-001,-2.95784242697456e-001

5.42641730979066e+004,-4.73948296910939e-001,-2.99913280302549e-001

5.50216727255895e+004,-4.73948013967518e-001,-3.04099958967090e-001

5.57897466540159e+004,-4.73947723082555e-001,-3.08345083408001e-001

5.65685424949235e+004,-4.73947424033536e-001,-3.12649469579074e-001

5.73582099206328e+004,-4.73947116591679e-001,-3.17013944828413e-001

5.81589006928121e+004,-4.73946800521868e-001,-3.21439348056542e-001

5.89707686916437e+004,-4.73946475582422e-001,-3.25926529878337e-001

5.97939699453972e+004,-4.73946141524871e-001,-3.30476352786928e-001

6.06286626604156e+004,-4.73945798093947e-001,-3.35089691318961e-001

6.14750072515201e+004,-4.73945445027081e-001,-3.39767432224145e-001

6.23331663728396e+004,-4.73945082054558e-001,-3.44510474634353e-001

6.32033049490698e+004,-4.73944708898916e-001,-3.49319730238439e-001

6.40855902071694e+004,-4.73944325275171e-001,-3.54196123455902e-001

6.49801917084985e+004,-4.73943930890294e-001,-3.59140591615855e-001

6.58872813814055e+004,-4.73943525443139e-001,-3.64154085137344e-001

6.68070335542691e+004,-4.73943108624145e-001,-3.69237567712064e-001

6.77396249890018e+004,-4.73942680115063e-001,-3.74392016490346e-001

6.86852349150199e+004,-4.73942239588973e-001,-3.79618422267945e-001

6.96440450636895e+004,-4.73941786709581e-001,-3.84917789679394e-001

7.06162397032520e+004,-4.73941321131575e-001,-3.90291137387595e-001

7.16020056742374e+004,-4.73940842499672e-001,-3.95739498284284e-001

7.26015324253724e+004,-4.73940350448963e-001,-4.01263919685450e-001

7.36150120499896e+004,-4.73939844604357e-001,-4.06865463534255e-001

7.46426393229441e+004,-4.73939324580221e-001,-4.12545206606399e-001

7.56846117380472e+004,-4.73938789980384e-001,-4.18304240715547e-001

7.67411295460207e+004,-4.73938240397481e-001,-4.24143672925847e-001

7.78123957929823e+004,-4.73937675412938e-001,-4.30064625763299e-001

7.88986163594682e+004,-4.73937094596604e-001,-4.36068237432634e-001

7.99999999999995e+004,-4.73936497506320e-001,-4.42155662036682e-001

8.11167583832018e+004,-4.73935883687687e-001,-4.48328069798541e-001

8.22491061324848e+004,-4.73935252673706e-001,-4.54586647287250e-001

8.33972608672892e+004,-4.73934603984423e-001,-4.60932597645962e-001

8.45614432449099e+004,-4.73933937126657e-001,-4.67367140823579e-001

8.57418770029029e+004,-4.73933251593484e-001,-4.73891513811189e-001

8.69387890020841e+004,-4.73932546863994e-001,-4.80506970878487e-001

8.81524092701283e+004,-4.73931822402822e-001,-4.87214783816791e-001

8.93829710457770e+004,-4.73931077659854e-001,-4.94016242183943e-001

9.06307108236633e+004,-4.73930312069769e-001,-5.00912653552251e-001

9.18958683997622e+004,-4.73929525051610e-001,-5.07905343761198e-001

9.31786869174758e+004,-4.73928716008283e-001,-5.14995657173108e-001

9.44794129143618e+004,-4.73927884326411e-001,-5.22184956931316e-001

9.57982963695136e+004,-4.73927029375572e-001,-5.29474625224021e-001

9.71355907516031e+004,-4.73926150507955e-001,-5.36866063550206e-001

9.84915530675926e+004,-4.73925247057919e-001,-5.44360692990491e-001

9.98664439121282e+004,-4.73924318341510e-001,-5.51959954480419e-001

1.01260527517622e+005,-4.73923363655951e-001,-5.59665309088840e-001

1.02674071805032e+005,-4.73922382279082e-001,-5.67478238299583e-001

1.04107348435354e+005,-4.73921373468925e-001,-5.75400244297496e-001

1.05560632861831e+005,-4.73920336463144e-001,-5.83432850257626e-001

1.07034204382888e+005,-4.73919270478477e-001,-5.91577600639493e-001

1.08528346195813e+005,-4.73918174710067e-001,-5.99836061485667e-001

1.10043345451179e+005,-4.73917048331152e-001,-6.08209820722734e-001

1.11579493308032e+005,-4.73915890492138e-001,-6.16700488469228e-001

1.13137084989847e+005,-4.73914700320334e-001,-6.25309697344773e-001

1.14716419841265e+005,-4.73913476919073e-001,-6.34039102786703e-001

1.16317801385624e+005,-4.73912219367244e-001,-6.42890383368955e-001

1.17941537383287e+005,-4.73910926718451e-001,-6.51865241126692e-001

1.19587939890794e+005,-4.73909598000636e-001,-6.60965401883739e-001

1.21257325320831e+005,-4.73908232215155e-001,-6.70192615587542e-001

1.22950014503040e+005,-4.73906828336107e-001,-6.79548656646468e-001

1.24666332745679e+005,-4.73905385309670e-001,-6.89035324272439e-001

1.26406609898139e+005,-4.73903902053522e-001,-6.98654442828127e-001

1.28171180414339e+005,-4.73902377455699e-001,-7.08407862181145e-001

1.29960383416997e+005,-4.73900810374282e-001,-7.18297458059390e-001

1.31774562762811e+005,-4.73899199636120e-001,-7.28325132415789e-001

1.33614067108538e+005,-4.73897544036491e-001,-7.38492813794315e-001

1.35479249978003e+005,-4.73895842337987e-001,-7.48802457703627e-001

1.37370469830040e+005,-4.73894093269834e-001,-7.59256046994759e-001

1.39288090127379e+005,-4.73892295526804e-001,-7.69855592245752e-001

1.41232479406504e+005,-4.73890447768571e-001,-7.80603132149000e-001

1.43204011348474e+005,-4.73888548618686e-001,-7.91500733906947e-001

1.45203064850745e+005,-4.73886596663564e-001,-8.02550493631698e-001

1.47230024099979e+005,-4.73884590451737e-001,-8.13754536750451e-001

1.49285278645888e+005,-4.73882528492803e-001,-8.25115018417171e-001

1.51369223476094e+005,-4.73880409256319e-001,-8.36634123929798e-001

1.53482259092041e+005,-4.73878231170920e-001,-8.48314069153637e-001

1.55624791585964e+005,-4.73875992623202e-001,-8.60157100950502e-001

1.57797232718936e+005,-4.73873691956779e-001,-8.72165497613110e-001

1.59999999999999e+005,-4.73871327471010e-001,-8.84341569307858e-001

1.62233516766403e+005,-4.73868897420085e-001,-8.96687658521720e-001

1.64498212264969e+005,-4.73866400011796e-001,-9.09206140516283e-001

1.66794521734578e+005,-4.73863833406346e-001,-9.21899423788473e-001

1.69122886489819e+005,-4.73861195715160e-001,-9.34769950538234e-001

1.71483754005805e+005,-4.73858484999873e-001,-9.47820197140297e-001

1.73877578004168e+005,-4.73855699270890e-001,-9.61052674626783e-001

1.76304818540256e+005,-4.73852836486157e-001,-9.74469929173224e-001

1.78765942091554e+005,-4.73849894550014e-001,-9.88074542592586e-001

1.81261421647326e+005,-4.73846871311732e-001,-1.00186913283740e+000

1.83791736799524e+005,-4.73843764564216e-001,-1.01585635450750e+000

1.86357373834951e+005,-4.73840572042759e-001,-1.03003889936542e+000

1.88958825828723e+005,-4.73837291423559e-001,-1.04441949685954e+000

1.91596592739027e+005,-4.73833920322257e-001,-1.05900091465480e+000

1.94271181503206e+005,-4.73830456292570e-001,-1.07378595917043e+000

1.96983106135185e+005,-4.73826896824927e-001,-1.08877747612453e+000

1.99732887824256e+005,-4.73823239344764e-001,-1.10397835108929e+000

2.02521055035243e+005,-4.73819481211109e-001,-1.11939151005093e+000

2.05348143610063e+005,-4.73815619715082e-001,-1.13501991997960e+000

2.08214696870707e+005,-4.73811652078305e-001,-1.15086658940625e+000

2.11121265723661e+005,-4.73807575451239e-001,-1.16693456900875e+000

2.14068408765776e+005,-4.73803386911644e-001,-1.18322695220593e+000

2.17056692391625e+005,-4.73799083462855e-001,-1.19974687575961e+000

2.20086690902357e+005,-4.73794662032095e-001,-1.21649752038662e+000

2.23158986616063e+005,-4.73790119468988e-001,-1.23348211137738e+000

2.26274169979693e+005,-4.73785452543481e-001,-1.25070391922607e+000

2.29432839682530e+005,-4.73780657944342e-001,-1.26816626026740e+000

2.32635602771247e+005,-4.73775732277344e-001,-1.28587249732360e+000

2.35883074766574e+005,-4.73770672063443e-001,-1.30382604036072e+000

2.39175879781588e+005,-4.73765473736867e-001,-1.32203034715428e+000

2.42514650641661e+005,-4.73760133643447e-001,-1.34048892396390e+000

2.45900029006080e+005,-4.73754648038587e-001,-1.35920532621838e+000

2.49332665491357e+005,-4.73749013085489e-001,-1.37818315921000e+000

2.52813219796278e+005,-4.73743224853171e-001,-1.39742607879901e+000

2.56342360828676e+005,-4.73737279314518e-001,-1.41693779212853e+000

2.59920766833993e+005,-4.73731172344457e-001,-1.43672205834868e+000

2.63549125525621e+005,-4.73724899717814e-001,-1.45678268935267e+000

2.67228134217075e+005,-4.73718457107444e-001,-1.47712355052191e+000

2.70958499956006e+005,-4.73711840082301e-001,-1.49774856148222e+000

2.74740939660078e+005,-4.73705044105219e-001,-1.51866169687216e+000

2.78576180254757e+005,-4.73698064531036e-001,-1.53986698712028e+000

2.82464958813007e+005,-4.73690896604550e-001,-1.56136851923499e+000

2.86408022696948e+005,-4.73683535458452e-001,-1.58317043760540e+000

2.90406129701488e+005,-4.73675976111228e-001,-1.60527694481347e+000

2.94460048199957e+005,-4.73668213465195e-001,-1.62769230245763e+000

2.98570557291775e+005,-4.73660242304356e-001,-1.65042083198895e+000

3.02738446952187e+005,-4.73652057292390e-001,-1.67346691555870e+000

3.06964518184081e+005,-4.73643652970534e-001,-1.69683499687801e+000

3.11249583171928e+005,-4.73635023755633e-001,-1.72052958208966e+000

3.15594465437872e+005,-4.73626163937964e-001,-1.74455524065356e+000

3.19999999999997e+005,-4.73617067679259e-001,-1.76891660624351e+000

3.24467033532806e+005,-4.73607729010668e-001,-1.79361837765705e+000

3.28996424529938e+005,-4.73598141830697e-001,-1.81866531973930e+000

3.33589043469155e+005,-4.73588299903339e-001,-1.84406226431848e+000

3.38245772979638e+005,-4.73578196855890e-001,-1.86981411115634e+000

3.42967508011610e+005,-4.73567826177131e-001,-1.89592582891097e+000

3.47755156008335e+005,-4.73557181215400e-001,-1.92240245611365e+000

3.52609637080511e+005,-4.73546255176628e-001,-1.94924910216038e+000

3.57531884183106e+005,-4.73535041122501e-001,-1.97647094831627e+000

3.62522843294651e+005,-4.73523531968662e-001,-2.00407324873512e+000

3.67583473599047e+005,-4.73511720482879e-001,-2.03206133149345e+000

3.72714747669902e+005,-4.73499599283340e-001,-2.06044059963835e+000

3.77917651657445e+005,-4.73487160836914e-001,-2.08921653225166e+000

3.83193185478053e+005,-4.73474397457601e-001,-2.11839468552760e+000

3.88542363006410e+005,-4.73461301304946e-001,-2.14798069386706e+000

3.93966212270369e+005,-4.73447864382434e-001,-2.17798027098609e+000

3.99465775648511e+005,-4.73434078536077e-001,-2.20839921104149e+000

4.05042110070485e+005,-4.73419935453210e-001,-2.23924338977051e+000

4.10696287220124e+005,-4.73405426660873e-001,-2.27051876564818e+000

4.16429393741414e+005,-4.73390543525012e-001,-2.30223138105970e+000

4.22242531447321e+005,-4.73375277248973e-001,-2.33438736349017e+000

4.28136817531551e+005,-4.73359618872663e-001,-2.36699292673009e+000

4.34113384783250e+005,-4.73343559271685e-001,-2.40005437209834e+000

4.40173381804713e+005,-4.73327089156309e-001,-2.43357808968203e+000

4.46317973232124e+005,-4.73310199070855e-001,-2.46757055959347e+000

4.52548339959385e+005,-4.73292879393109e-001,-2.50203835324450e+000

4.58865679365059e+005,-4.73275120333738e-001,-2.53698813463849e+000

4.65271205542494e+005,-4.73256911936006e-001,-2.57242666168056e+000

4.71766149533147e+005,-4.73238244075392e-001,-2.60836078750496e+000

4.78351759563174e+005,-4.73219106459597e-001,-2.64479746182187e+000

4.85029301283321e+005,-4.73199488628499e-001,-2.68174373228110e+000

4.91800058012158e+005,-4.73179379954161e-001,-2.71920674585620e+000

4.98665330982714e+005,-4.73158769641356e-001,-2.75719375024569e+000

5.05626439592555e+005,-4.73137646727770e-001,-2.79571209529428e+000

5.12684721657352e+005,-4.73116000084751e-001,-2.83476923443305e+000

5.19841533667984e+005,-4.73093818417848e-001,-2.87437272613937e+000

5.27098251051240e+005,-4.73071090267694e-001,-2.91453023541579e+000

5.34456268434150e+005,-4.73047804011182e-001,-2.95524953528871e+000

5.41916999912011e+005,-4.73023947862415e-001,-2.99653850832846e+000

