Freq.,VOut,OutRef

1.00000000000000e+004,-9.56188972148163e+000,-1.41542733267661e-001

1.01395947979003e+004,-9.56188960870379e+000,-1.43518596444665e-001

1.02811382665607e+004,-9.56188949275523e+000,-1.45522041654609e-001

1.04246576084112e+004,-9.56188937354680e+000,-1.47553453929558e-001

1.05701804056138e+004,-9.56188925098708e+000,-1.49613223673369e-001

1.07177346253629e+004,-9.56188912498157e+000,-1.51701746744554e-001

1.08673486252606e+004,-9.56188899543356e+000,-1.53819424523504e-001

1.10190511587661e+004,-9.56188886224343e+000,-1.55966663995814e-001

1.11728713807222e+004,-9.56188872530868e+000,-1.58143877828431e-001

1.13288388529580e+004,-9.56188858452434e+000,-1.60351484446581e-001

1.14869835499703e+004,-9.56188843978170e+000,-1.62589908121183e-001

1.16473358646846e+004,-9.56188829096988e+000,-1.64859579040497e-001

1.18099266142953e+004,-9.56188813797426e+000,-1.67160933401698e-001

1.19747870461893e+004,-9.56188798067718e+000,-1.69494413490376e-001

1.21419488439505e+004,-9.56188781895798e+000,-1.71860467763780e-001

1.23114441334492e+004,-9.56188765269203e+000,-1.74259550943185e-001

1.24833054890161e+004,-9.56188748175177e+000,-1.76692124093955e-001

1.26575659397028e+004,-9.56188730600556e+000,-1.79158654721237e-001

1.28342589756290e+004,-9.56188712531830e+000,-1.81659616854216e-001

1.30134185544193e+004,-9.56188693955118e+000,-1.84195491138646e-001

1.31950791077289e+004,-9.56188674856130e+000,-1.86766764932344e-001

1.33792755478611e+004,-9.56188655220193e+000,-1.89373932393467e-001

1.35660432744767e+004,-9.56188635032205e+000,-1.92017494580680e-001

1.37554181813974e+004,-9.56188614276627e+000,-1.94697959547592e-001

1.39474366635040e+004,-9.56188592937533e+000,-1.97415842436915e-001

1.41421356237309e+004,-9.56188570998506e+000,-2.00171665585272e-001

1.43395524801583e+004,-9.56188548442663e+000,-2.02965958621005e-001

1.45397251732031e+004,-9.56188525252682e+000,-2.05799258563870e-001

1.47426921729110e+004,-9.56188501410710e+000,-2.08672109932440e-001

1.49484924863494e+004,-9.56188476898454e+000,-2.11585064843538e-001

1.51571656651040e+004,-9.56188451697032e+000,-2.14538683125091e-001

1.53687518128801e+004,-9.56188425787093e+000,-2.17533532416668e-001

1.55832915932100e+004,-9.56188399148690e+000,-2.20570188284701e-001

1.58008262372675e+004,-9.56188371761376e+000,-2.23649234326965e-001

1.60213975517924e+004,-9.56188343604079e+000,-2.26771262290838e-001

1.62450479271247e+004,-9.56188314655139e+000,-2.29936872183958e-001

1.64718203453514e+004,-9.56188284892306e+000,-2.33146672388919e-001

1.67017583885674e+004,-9.56188254292704e+000,-2.36401279780598e-001

1.69349062472505e+004,-9.56188222832811e+000,-2.39701319845830e-001

1.71713087287550e+004,-9.56188190488421e+000,-2.43047426804514e-001

1.74110112659224e+004,-9.56188157234679e+000,-2.46440243727423e-001

1.76540599258131e+004,-9.56188123046011e+000,-2.49880422664496e-001

1.79005014185594e+004,-9.56188087896145e+000,-2.53368624765694e-001

1.81503831063432e+004,-9.56188051758026e+000,-2.56905520414159e-001

1.84037530124975e+004,-9.56188014603906e+000,-2.60491789346395e-001

1.86606598307361e+004,-9.56187976405190e+000,-2.64128120792212e-001

1.89211529345119e+004,-9.56187937132522e+000,-2.67815213600303e-001

1.91852823865052e+004,-9.56187896755703e+000,-2.71553776375700e-001

1.94530989482457e+004,-9.56187855243695e+000,-2.75344527615037e-001

1.97246540898671e+004,-9.56187812564572e+000,-2.79188195845825e-001

1.99999999999999e+004,-9.56187768685515e+000,-2.83085519765071e-001

2.02791895958005e+004,-9.56187723572798e+000,-2.87037248380989e-001

2.05622765331213e+004,-9.56187677191729e+000,-2.91044141158872e-001

2.08493152168224e+004,-9.56187629506653e+000,-2.95106968164683e-001

2.11403608112276e+004,-9.56187580480893e+000,-2.99226510215996e-001

2.14354692507258e+004,-9.56187530076760e+000,-3.03403559028660e-001

2.17346972505211e+004,-9.56187478255508e+000,-3.07638917371042e-001

2.20381023175322e+004,-9.56187424977278e+000,-3.11933399218747e-001

2.23457427614443e+004,-9.56187370201101e+000,-3.16287829909936e-001

2.26576777059159e+004,-9.56187313884880e+000,-3.20703046302713e-001

2.29739670999406e+004,-9.56187255985298e+000,-3.25179896939729e-001

2.32946717293690e+004,-9.56187196457828e+000,-3.29719242208394e-001

2.36198532285905e+004,-9.56187135256721e+000,-3.34321954505277e-001

2.39495740923785e+004,-9.56187072334894e+000,-3.38988918408333e-001

2.42838976879009e+004,-9.56187007643990e+000,-3.43721030840451e-001

2.46228882668982e+004,-9.56186941134252e+000,-3.48519201248596e-001

2.49666109780322e+004,-9.56186872754536e+000,-3.53384351773718e-001

2.53151318794055e+004,-9.56186802452264e+000,-3.58317417430240e-001

2.56685179512580e+004,-9.56186730173387e+000,-3.63319346284115e-001

2.60268371088386e+004,-9.56186655862314e+000,-3.68391099637716e-001

2.63901582154578e+004,-9.56186579461911e+000,-3.73533652211676e-001

2.67585510957221e+004,-9.56186500913427e+000,-3.78747992334331e-001

2.71320865489533e+004,-9.56186420156468e+000,-3.84035122130015e-001

2.75108363627948e+004,-9.56186337128928e+000,-3.89396057713541e-001

2.78948733270080e+004,-9.56186251766963e+000,-3.94831829384134e-001

2.82842712474618e+004,-9.56186164004934e+000,-4.00343481823547e-001

2.86791049603164e+004,-9.56186073775349e+000,-4.05932074297605e-001

2.90794503464061e+004,-9.56185981008827e+000,-4.11598680859132e-001

2.94853843458219e+004,-9.56185885634021e+000,-4.17344390554908e-001

2.98969849726987e+004,-9.56185787577604e+000,-4.23170307633617e-001

3.03143313302078e+004,-9.56185686764164e+000,-4.29077551760058e-001

3.07375036257601e+004,-9.56185583116171e+000,-4.35067258229401e-001

3.11665831864199e+004,-9.56185476553923e+000,-4.41140578185290e-001

3.16016524745350e+004,-9.56185366995462e+000,-4.47298678841653e-001

3.20427951035848e+004,-9.56185254356537e+000,-4.53542743706151e-001

3.24900958542493e+004,-9.56185138550535e+000,-4.59873972807585e-001

3.29436406907028e+004,-9.56185019488384e+000,-4.66293582928617e-001

3.34035167771346e+004,-9.56184897078522e+000,-4.72802807837321e-001

3.38698124945009e+004,-9.56184771226809e+000,-4.79402898525172e-001

3.43426174575100e+004,-9.56184641836458e+000,-4.86095123447340e-001

3.48220225318448e+004,-9.56184508807958e+000,-4.92880768767128e-001

3.53081198516260e+004,-9.56184372038996e+000,-4.99761138602610e-001

3.58010028371187e+004,-9.56184231424387e+000,-5.06737555277141e-001

3.63007662126863e+004,-9.56184086855978e+000,-5.13811359574421e-001

3.68075060249948e+004,-9.56183938222576e+000,-5.20983910995375e-001

3.73213196614721e+004,-9.56183785409876e+000,-5.28256588019152e-001

3.78423058690237e+004,-9.56183628300343e+000,-5.35630788368752e-001

3.83705647730104e+004,-9.56183466773126e+000,-5.43107929280950e-001

3.89061978964912e+004,-9.56183300703996e+000,-5.50689447775502e-001

3.94493081797342e+004,-9.56183129965213e+000,-5.58376800934749e-001

3.99999999999998e+004,-9.56182954425450e+000,-5.66171466181429e-001

4.05583791916010e+004,-9.56182773949698e+000,-5.74074941562727e-001

4.11245530662425e+004,-9.56182588399112e+000,-5.82088746041088e-001

4.16986304336447e+004,-9.56182397630978e+000,-5.90214419782309e-001

4.22807216224550e+004,-9.56182201498552e+000,-5.98453524453889e-001

4.28709385014515e+004,-9.56181999850956e+000,-6.06807643524952e-001

4.34693945010421e+004,-9.56181792533087e+000,-6.15278382569298e-001

4.40762046350642e+004,-9.56181579385452e+000,-6.23867369576783e-001

4.46914855228886e+004,-9.56181360244090e+000,-6.32576255263295e-001

4.53153554118317e+004,-9.56181134940401e+000,-6.41406713391218e-001

4.59479341998812e+004,-9.56180903301083e+000,-6.50360441086463e-001

4.65893434587380e+004,-9.56180665147912e+000,-6.59439159170450e-001

4.72397064571810e+004,-9.56180420297678e+000,-6.68644612486968e-001

4.78991481847569e+004,-9.56180168562013e+000,-6.77978570238031e-001

4.85677953758016e+004,-9.56179909747221e+000,-6.87442826326644e-001

4.92457765337964e+004,-9.56179643654185e+000,-6.97039199698317e-001

4.99332219560642e+004,-9.56179370078180e+000,-7.06769534692041e-001

5.06302637588109e+004,-9.56179088808708e+000,-7.16635701395645e-001

5.13370359025159e+004,-9.56178799629348e+000,-7.26639596004868e-001

5.20536742176771e+004,-9.56178502317595e+000,-7.36783141187032e-001

5.27803164309155e+004,-9.56178196644675e+000,-7.47068286452068e-001

5.35171021914442e+004,-9.56177882375374e+000,-7.57497008525995e-001

5.42641730979066e+004,-9.56177559267863e+000,-7.68071311732278e-001

5.50216727255895e+004,-9.56177227073489e+000,-7.78793228376371e-001

5.57897466540159e+004,-9.56176885536623e+000,-7.89664819136007e-001

5.65685424949235e+004,-9.56176534394432e+000,-8.00688173458005e-001

5.73582099206328e+004,-9.56176173376665e+000,-8.11865409961231e-001

5.81589006928121e+004,-9.56175802205489e+000,-8.23198676840864e-001

5.89707686916437e+004,-9.56175420595218e+000,-8.34690152285502e-001

5.97939699453972e+004,-9.56175028252156e+000,-8.46342044891447e-001

6.06286626604156e+004,-9.56174624874319e+000,-8.58156594090631e-001

6.14750072515201e+004,-9.56174210151208e+000,-8.70136070581240e-001

6.23331663728396e+004,-9.56173783763600e+000,-8.82282776761969e-001

6.32033049490698e+004,-9.56173345383279e+000,-8.94599047176281e-001

6.40855902071694e+004,-9.56172894672772e+000,-9.07087248962097e-001

6.49801917084985e+004,-9.56172431285121e+000,-9.19749782304875e-001

6.58872813814055e+004,-9.56171954863574e+000,-9.32589080901468e-001

6.68070335542691e+004,-9.56171465041345e+000,-9.45607612426039e-001

6.77396249890018e+004,-9.56170961441311e+000,-9.58807879006214e-001

6.86852349150199e+004,-9.56170443675724e+000,-9.72192417703348e-001

6.96440450636895e+004,-9.56169911345924e+000,-9.85763800999991e-001

7.06162397032520e+004,-9.56169364041997e+000,-9.99524637296986e-001

7.16020056742374e+004,-9.56168801342500e+000,-1.01347757141181e+000

7.26015324253724e+004,-9.56168222814093e+000,-1.02762528509018e+000

7.36150120499896e+004,-9.56167628011262e+000,-1.04197049751864e+000

7.46426393229441e+004,-9.56167016475895e+000,-1.05651596585178e+000

7.56846117380472e+004,-9.56166387737003e+000,-1.07126448573814e+000

7.67411295460207e+004,-9.56165741310289e+000,-1.08621889186186e+000

7.78123957929823e+004,-9.56165076697842e+000,-1.10138205848387e+000

7.88986163594682e+004,-9.56164393387694e+000,-1.11675689999862e+000

7.99999999999995e+004,-9.56163690853446e+000,-1.13234637149208e+000

8.11167583832018e+004,-9.56162968553864e+000,-1.14815346931165e+000

8.22491061324848e+004,-9.56162225932447e+000,-1.16418123164176e+000

8.33972608672892e+004,-9.56161462417012e+000,-1.18043273908791e+000

8.45614432449099e+004,-9.56160677419235e+000,-1.19691111527072e+000

8.57418770029029e+004,-9.56159870334190e+000,-1.21361952742641e+000

8.69387890020841e+004,-9.56159040539922e+000,-1.23056118701438e+000

8.81524092701283e+004,-9.56158187396887e+000,-1.24773935033835e+000

8.93829710457770e+004,-9.56157310247535e+000,-1.26515731916985e+000

9.06307108236633e+004,-9.56156408415761e+000,-1.28281844138469e+000

9.18958683997622e+004,-9.56155481206373e+000,-1.30072611160776e+000

9.31786869174758e+004,-9.56154527904555e+000,-1.31888377186598e+000

9.44794129143618e+004,-9.56153547775355e+000,-1.33729491224903e+000

9.57982963695136e+004,-9.56152540063040e+000,-1.35596307158338e+000

9.71355907516031e+004,-9.56151503990563e+000,-1.37489183811234e+000

9.84915530675926e+004,-9.56150438758941e+000,-1.39408485018586e+000

9.98664439121282e+004,-9.56149343546634e+000,-1.41354579696183e+000

1.01260527517622e+005,-9.56148217508911e+000,-1.43327841911556e+000

1.02674071805032e+005,-9.56147059777176e+000,-1.45328650956038e+000

1.04107348435354e+005,-9.56145869458305e+000,-1.47357391417769e+000

1.05560632861831e+005,-9.56144645633954e+000,-1.49414453255591e+000

1.07034204382888e+005,-9.56143387359834e+000,-1.51500231874347e+000

1.08528346195813e+005,-9.56142093664974e+000,-1.53615128200843e+000

1.10043345451179e+005,-9.56140763550968e+000,-1.55759548761101e+000

1.11579493308032e+005,-9.56139395991208e+000,-1.57933905758541e+000

1.13137084989847e+005,-9.56137989930052e+000,-1.60138617153564e+000

1.14716419841265e+005,-9.56136544282026e+000,-1.62374106743826e+000

1.16317801385624e+005,-9.56135057930966e+000,-1.64640804245988e+000

1.17941537383287e+005,-9.56133529729149e+000,-1.66939145378372e+000

1.19587939890794e+005,-9.56131958496389e+000,-1.69269571944988e+000

1.21257325320831e+005,-9.56130343019128e+000,-1.71632531920552e+000

1.22950014503040e+005,-9.56128682049466e+000,-1.74028479536883e+000

1.24666332745679e+005,-9.56126974304203e+000,-1.76457875370278e+000

1.26406609898139e+005,-9.56125218463815e+000,-1.78921186430403e+000

1.28171180414339e+005,-9.56123413171447e+000,-1.81418886250115e+000

1.29960383416997e+005,-9.56121557031821e+000,-1.83951454976866e+000

1.31774562762811e+005,-9.56119648610149e+000,-1.86519379465182e+000

1.33614067108538e+005,-9.56117686431022e+000,-1.89123153370442e+000

1.35479249978003e+005,-9.56115668977239e+000,-1.91763277244093e+000

1.37370469830040e+005,-9.56113594688609e+000,-1.94440258630171e+000

1.39288090127379e+005,-9.56111461960741e+000,-1.97154612163073e+000

1.41232479406504e+005,-9.56109269143760e+000,-1.99906859666911e+000

1.43204011348474e+005,-9.56107014541023e+000,-2.02697530256018e+000

1.45203064850745e+005,-9.56104696407800e+000,-2.05527160437015e+000

1.47230024099979e+005,-9.56102312949858e+000,-2.08396294212392e+000

1.49285278645888e+005,-9.56099862322072e+000,-2.11305483185398e+000

1.51369223476094e+005,-9.56097342626978e+000,-2.14255286666395e+000

1.53482259092041e+005,-9.56094751913250e+000,-2.17246271780882e+000

1.55624791585964e+005,-9.56092088174166e+000,-2.20279013579001e+000

1.57797232718936e+005,-9.56089349346048e+000,-2.23354095146321e+000

1.59999999999999e+005,-9.56086533306587e+000,-2.26472107716605e+000

1.62233516766403e+005,-9.56083637873191e+000,-2.29633650785940e+000

1.64498212264969e+005,-9.56080660801249e+000,-2.32839332228409e+000

1.66794521734578e+005,-9.56077599782352e+000,-2.36089768413564e+000

1.69122886489819e+005,-9.56074452442457e+000,-2.39385584325573e+000

1.71483754005805e+005,-9.56071216340009e+000,-2.42727413683858e+000

1.73877578004168e+005,-9.56067888963989e+000,-2.46115899065656e+000

1.76304818540256e+005,-9.56064467731949e+000,-2.49551692030116e+000

1.78765942091554e+005,-9.56060949987899e+000,-2.53035453244488e+000

1.81261421647326e+005,-9.56057333000255e+000,-2.56567852611626e+000

1.83791736799524e+005,-9.56053613959621e+000,-2.60149569399782e+000

1.86357373834951e+005,-9.56049789976554e+000,-2.63781292373914e+000

1.88958825828723e+005,-9.56045858079274e+000,-2.67463719928968e+000

1.91596592739027e+005,-9.56041815211270e+000,-2.71197560225137e+000

1.94271181503206e+005,-9.56037658228857e+000,-2.74983531324992e+000

1.96983106135185e+005,-9.56033383898666e+000,-2.78822361332477e+000

1.99732887824256e+005,-9.56028988895063e+000,-2.82714788533997e+000

2.02521055035243e+005,-9.56024469797451e+000,-2.86661561541533e+000

2.05348143610063e+005,-9.56019823087555e+000,-2.90663439437738e+000

2.08214696870707e+005,-9.56015045146568e+000,-2.94721191923178e+000

2.11121265723661e+005,-9.56010132252258e+000,-2.98835599465600e+000

2.14068408765776e+005,-9.56005080575978e+000,-3.03007453451402e+000

2.17056692391625e+005,-9.55999886179544e+000,-3.07237556339289e+000

2.20086690902357e+005,-9.55994545012103e+000,-3.11526721816118e+000

2.23158986616063e+005,-9.55989052906827e+000,-3.15875774954926e+000

2.26274169979693e+005,-9.55983405577548e+000,-3.20285552375458e+000

2.29432839682530e+005,-9.55977598615323e+000,-3.24756902406608e+000

2.32635602771247e+005,-9.55971627484802e+000,-3.29290685251736e+000

2.35883074766574e+005,-9.55965487520611e+000,-3.33887773155869e+000

2.39175879781588e+005,-9.55959173923525e+000,-3.38549050575657e+000

2.42514650641661e+005,-9.55952681756564e+000,-3.43275414351787e+000

2.45900029006080e+005,-9.55946005941011e+000,-3.48067773883598e+000

2.49332665491357e+005,-9.55939141252237e+000,-3.52927051306676e+000

2.52813219796278e+005,-9.55932082315460e+000,-3.57854181672709e+000

2.56342360828676e+005,-9.55924823601346e+000,-3.62850113132162e+000

2.59920766833993e+005,-9.55917359421504e+000,-3.67915807119472e+000

2.63549125525621e+005,-9.55909683923810e+000,-3.73052238541154e+000

2.67228134217075e+005,-9.55901791087627e+000,-3.78260395966507e+000

2.70958499956006e+005,-9.55893674718861e+000,-3.83541281821229e+000

2.74740939660078e+005,-9.55885328444881e+000,-3.88895912583823e+000

2.78576180254757e+005,-9.55876745709266e+000,-3.94325318984997e+000

2.82464958813007e+005,-9.55867919766422e+000,-3.99830546209993e+000

2.86408022696948e+005,-9.55858843676020e+000,-4.05412654103848e+000

2.90406129701488e+005,-9.55849510297261e+000,-4.11072717379881e+000

2.94460048199957e+005,-9.55839912282996e+000,-4.16811825831129e+000

2.98570557291775e+005,-9.55830042073629e+000,-4.22631084545095e+000

3.02738446952187e+005,-9.55819891890878e+000,-4.28531614121636e+000

3.06964518184081e+005,-9.55809453731315e+000,-4.34514550894204e+000

3.11249583171928e+005,-9.55798719359736e+000,-4.40581047154382e+000

3.15594465437872e+005,-9.55787680302315e+000,-4.46732271379874e+000

3.19999999999997e+005,-9.55776327839565e+000,-4.52969408465962e+000

3.24467033532806e+005,-9.55764652999070e+000,-4.59293659960489e+000

3.28996424529938e+005,-9.55752646548008e+000,-4.65706244302481e+000

3.33589043469155e+005,-9.55740298985468e+000,-4.72208397064398e+000

3.38245772979638e+005,-9.55727600534501e+000,-4.78801371198162e+000

3.42967508011610e+005,-9.55714541133949e+000,-4.85486437285042e+000

3.47755156008335e+005,-9.55701110430031e+000,-4.92264883789344e+000

3.52609637080511e+005,-9.55687297767682e+000,-4.99138017316160e+000

3.57531884183106e+005,-9.55673092181613e+000,-5.06107162873135e+000

3.62522843294651e+005,-9.55658482387121e+000,-5.13173664136328e+000

3.67583473599047e+005,-9.55643456770596e+000,-5.20338883720456e+000

3.72714747669902e+005,-9.55628003379797e+000,-5.27604203453147e+000

3.77917651657445e+005,-9.55612109913780e+000,-5.34971024653920e+000

3.83193185478053e+005,-9.55595763712556e+000,-5.42440768417399e+000

3.88542363006410e+005,-9.55578951746439e+000,-5.50014875901269e+000

3.93966212270369e+005,-9.55561660605062e+000,-5.57694808618850e+000

3.99465775648511e+005,-9.55543876486080e+000,-5.65482048736466e+000

4.05042110070485e+005,-9.55525585183544e+000,-5.73378099375662e+000

4.10696287220124e+005,-9.55506772075900e+000,-5.81384484920535e+000

4.16429393741414e+005,-9.55487422113674e+000,-5.89502751330038e+000

4.22242531447321e+005,-9.55467519806767e+000,-5.97734466455593e+000

4.28136817531551e+005,-9.55447049211365e+000,-6.06081220364073e+000

4.34113384783250e+005,-9.55425993916513e+000,-6.14544625666147e+000

4.40173381804713e+005,-9.55404337030242e+000,-6.23126317850324e+000

4.46317973232124e+005,-9.55382061165338e+000,-6.31827955622638e+000

4.52548339959385e+005,-9.55359148424637e+000,-6.40651221252332e+000

4.58865679365059e+005,-9.55335580385963e+000,-6.49597820923406e+000

4.65271205542494e+005,-9.55311338086592e+000,-6.58669485092340e+000

4.71766149533147e+005,-9.55286402007267e+000,-6.67867968852200e+000

4.78351759563174e+005,-9.55260752055770e+000,-6.77195052303124e+000

4.85029301283321e+005,-9.55234367550003e+000,-6.86652540929483e+000

4.91800058012158e+005,-9.55207227200639e+000,-6.96242265983673e+000

4.98665330982714e+005,-9.55179309093209e+000,-7.05966084877112e+000

5.05626439592555e+005,-9.55150590669738e+000,-7.15825881578158e+000

5.12684721657352e+005,-9.55121048709869e+000,-7.25823567017382e+000

5.19841533667984e+005,-9.55090659311413e+000,-7.35961079500435e+000

5.27098251051240e+005,-9.55059397870420e+000,-7.46240385128484e+000

5.34456268434150e+005,-9.55027239060664e+000,-7.56663478226622e+000

5.41916999912011e+005,-9.54994156812575e+000,-7.67232381780411e+000

