Freq.,VOut,OutRef

1.00000000000000e+004,-2.61819554420499e+001,-2.61163992145089e-002

1.01395947979003e+004,-2.61819555038724e+001,-2.64809682858060e-002

1.02811382665607e+004,-2.61819555674326e+001,-2.68506264559310e-002

1.04246576084112e+004,-2.61819556327799e+001,-2.72254447591516e-002

1.05701804056138e+004,-2.61819556999638e+001,-2.76054952288756e-002

1.07177346253629e+004,-2.61819557690369e+001,-2.79908508925431e-002

1.08673486252606e+004,-2.61819558400516e+001,-2.83815858071638e-002

1.10190511587661e+004,-2.61819559130625e+001,-2.87777750604603e-002

1.11728713807222e+004,-2.61819559881258e+001,-2.91794947852983e-002

1.13288388529580e+004,-2.61819560652990e+001,-2.95868221811093e-002

1.14869835499703e+004,-2.61819561446419e+001,-2.99998355185787e-002

1.16473358646846e+004,-2.61819562262155e+001,-3.04186141661959e-002

1.18099266142953e+004,-2.61819563100817e+001,-3.08432386015229e-002

1.19747870461893e+004,-2.61819563963056e+001,-3.12737904201043e-002

1.21419488439505e+004,-2.61819564849537e+001,-3.17103523565304e-002

1.23114441334492e+004,-2.61819565760935e+001,-3.21530083066425e-002

1.24833054890161e+004,-2.61819566697957e+001,-3.26018433284057e-002

1.26575659397028e+004,-2.61819567661312e+001,-3.30569436770631e-002

1.28342589756290e+004,-2.61819568651754e+001,-3.35183967984183e-002

1.30134185544193e+004,-2.61819569670036e+001,-3.39862913706112e-002

1.31950791077289e+004,-2.61819570716942e+001,-3.44607173038495e-002

1.33792755478611e+004,-2.61819571793275e+001,-3.49417657640538e-002

1.35660432744767e+004,-2.61819572899866e+001,-3.54295291867527e-002

1.37554181813974e+004,-2.61819574037564e+001,-3.59241013028258e-002

1.39474366635040e+004,-2.61819575207242e+001,-3.64255771467207e-002

1.41421356237309e+004,-2.61819576409801e+001,-3.69340530804908e-002

1.43395524801583e+004,-2.61819577646163e+001,-3.74496268120085e-002

1.45397251732031e+004,-2.61819578917276e+001,-3.79723974131816e-002

1.47426921729110e+004,-2.61819580224123e+001,-3.85024653329394e-002

1.49484924863494e+004,-2.61819581567704e+001,-3.90399324285709e-002

1.51571656651040e+004,-2.61819582949053e+001,-3.95849019759769e-002

1.53687518128801e+004,-2.61819584369230e+001,-4.01374786918427e-002

1.55832915932100e+004,-2.61819585829329e+001,-4.06977687536720e-002

1.58008262372675e+004,-2.61819587330468e+001,-4.12658798236452e-002

1.60213975517924e+004,-2.61819588873801e+001,-4.18419210640503e-002

1.62450479271247e+004,-2.61819590460517e+001,-4.24260031582867e-002

1.64718203453514e+004,-2.61819592091832e+001,-4.30182383385985e-002

1.67017583885674e+004,-2.61819593769004e+001,-4.36187403977383e-002

1.69349062472505e+004,-2.61819595493317e+001,-4.42276247221452e-002

1.71713087287550e+004,-2.61819597266094e+001,-4.48450083069108e-002

1.74110112659224e+004,-2.61819599088704e+001,-4.54710097741812e-002

1.76540599258131e+004,-2.61819600962544e+001,-4.61057494065028e-002

1.79005014185594e+004,-2.61819602889052e+001,-4.67493491649706e-002

1.81503831063432e+004,-2.61819604869709e+001,-4.74019327098896e-002

1.84037530124975e+004,-2.61819606906038e+001,-4.80636254272923e-002

1.86606598307361e+004,-2.61819608999600e+001,-4.87345544545945e-002

1.89211529345119e+004,-2.61819611152010e+001,-4.94148486971660e-002

1.91852823865052e+004,-2.61819613364914e+001,-5.01046388679145e-002

1.94530989482457e+004,-2.61819615640015e+001,-5.08040574965105e-002

1.97246540898671e+004,-2.61819617979063e+001,-5.15132389621761e-002

1.99999999999999e+004,-2.61819620383852e+001,-5.22323195209433e-002

2.02791895958005e+004,-2.61819622856229e+001,-5.29614373301583e-002

2.05622765331213e+004,-2.61819625398094e+001,-5.37007324713004e-002

2.08493152168224e+004,-2.61819628011400e+001,-5.44503469821315e-002

2.11403608112276e+004,-2.61819630698155e+001,-5.52104248818030e-002

2.14354692507258e+004,-2.61819633460420e+001,-5.59811121980757e-002

2.17346972505211e+004,-2.61819636300317e+001,-5.67625569969643e-002

2.20381023175322e+004,-2.61819639220029e+001,-5.75549094072394e-002

2.23457427614443e+004,-2.61819642221798e+001,-5.83583216523145e-002

2.26576777059159e+004,-2.61819645307929e+001,-5.91729480809990e-002

2.29739670999406e+004,-2.61819648480789e+001,-5.99989451943089e-002

2.32946717293690e+004,-2.61819651742821e+001,-6.08364716724773e-002

2.36198532285905e+004,-2.61819655096524e+001,-6.16856884152563e-002

2.39495740923785e+004,-2.61819658544477e+001,-6.25467585601677e-002

2.42838976879009e+004,-2.61819662089325e+001,-6.34198475241896e-002

2.46228882668982e+004,-2.61819665733792e+001,-6.43051230295439e-002

2.49666109780322e+004,-2.61819669480673e+001,-6.52027551386313e-002

2.53151318794055e+004,-2.61819673332849e+001,-6.61129162824879e-002

2.56685179512580e+004,-2.61819677293276e+001,-6.70357813000595e-002

2.60268371088386e+004,-2.61819681364995e+001,-6.79715274657693e-002

2.63901582154578e+004,-2.61819685551133e+001,-6.89203345275399e-002

2.67585510957221e+004,-2.61819689854899e+001,-6.98823847416470e-002

2.71320865489533e+004,-2.61819694279601e+001,-7.08578629015192e-002

2.75108363627948e+004,-2.61819698828633e+001,-7.18469563794377e-002

2.78948733270080e+004,-2.61819703505490e+001,-7.28498551583639e-002

2.82842712474618e+004,-2.61819708313758e+001,-7.38667518734335e-002

2.86791049603164e+004,-2.61819713257132e+001,-7.48978418409103e-002

2.90794503464061e+004,-2.61819718339399e+001,-7.59433231054653e-002

2.94853843458219e+004,-2.61819723564467e+001,-7.70033964655778e-002

2.98969849726987e+004,-2.61819728936340e+001,-7.80782655257938e-002

3.03143313302078e+004,-2.61819734459145e+001,-7.91681367236463e-002

3.07375036257601e+004,-2.61819740137115e+001,-8.02732193783796e-002

3.11665831864199e+004,-2.61819745974610e+001,-8.13937257226269e-002

3.16016524745350e+004,-2.61819751976107e+001,-8.25298709492495e-002

3.20427951035848e+004,-2.61819758146213e+001,-8.36818732500657e-002

3.24900958542493e+004,-2.61819764489660e+001,-8.48499538577884e-002

3.29436406907028e+004,-2.61819771011312e+001,-8.60343370889546e-002

3.34035167771346e+004,-2.61819777716174e+001,-8.72352503833076e-002

3.38698124945009e+004,-2.61819784609388e+001,-8.84529243533491e-002

3.43426174575100e+004,-2.61819791696243e+001,-8.96875928205555e-002

3.48220225318448e+004,-2.61819798982169e+001,-9.09394928697124e-002

3.53081198516260e+004,-2.61819806472760e+001,-9.22088648828307e-002

3.58010028371187e+004,-2.61819814173755e+001,-9.34959525955827e-002

3.63007662126863e+004,-2.61819822091060e+001,-9.48010031368427e-002

3.68075060249948e+004,-2.61819830230748e+001,-9.61242670767926e-002

3.73213196614721e+004,-2.61819838599054e+001,-9.74659984793006e-002

3.78423058690237e+004,-2.61819847202398e+001,-9.88264549431293e-002

3.83705647730104e+004,-2.61819856047373e+001,-1.00205897656888e-001

3.89061978964912e+004,-2.61819865140757e+001,-1.01604591447175e-001

3.94493081797342e+004,-2.61819874489520e+001,-1.03022804826290e-001

3.99999999999998e+004,-2.61819884100827e+001,-1.04460810046253e-001

4.05583791916010e+004,-2.61819893982043e+001,-1.05918883150540e-001

4.11245530662425e+004,-2.61819904140738e+001,-1.07397304024637e-001

4.16986304336447e+004,-2.61819914584695e+001,-1.08896356452524e-001

4.22807216224550e+004,-2.61819925321915e+001,-1.10416328165639e-001

4.28709385014515e+004,-2.61819936360623e+001,-1.11957510902382e-001

4.34693945010421e+004,-2.61819947709271e+001,-1.13520200461696e-001

4.40762046350642e+004,-2.61819959376552e+001,-1.15104696759330e-001

4.46914855228886e+004,-2.61819971371401e+001,-1.16711303881343e-001

4.53153554118317e+004,-2.61819983702999e+001,-1.18340330151214e-001

4.59479341998812e+004,-2.61819996380788e+001,-1.19992088176116e-001

4.65893434587380e+004,-2.61820009414473e+001,-1.21666894916086e-001

4.72397064571810e+004,-2.61820022814027e+001,-1.23365071739430e-001

4.78991481847569e+004,-2.61820036589708e+001,-1.25086944482542e-001

4.85677953758016e+004,-2.61820050752055e+001,-1.26832843516010e-001

4.92457765337964e+004,-2.61820065311904e+001,-1.28603103804298e-001

4.99332219560642e+004,-2.61820080280391e+001,-1.30398064969231e-001

5.06302637588109e+004,-2.61820095668968e+001,-1.32218071353894e-001

5.13370359025159e+004,-2.61820111489400e+001,-1.34063472090128e-001

5.20536742176771e+004,-2.61820127753788e+001,-1.35934621159835e-001

5.27803164309155e+004,-2.61820144474563e+001,-1.37831877468985e-001

5.35171021914442e+004,-2.61820161664509e+001,-1.39755604908495e-001

5.42641730979066e+004,-2.61820179336763e+001,-1.41706172425845e-001

5.50216727255895e+004,-2.61820197504830e+001,-1.43683954094704e-001

5.57897466540159e+004,-2.61820216182590e+001,-1.45689329187008e-001

5.65685424949235e+004,-2.61820235384312e+001,-1.47722682239567e-001

5.73582099206328e+004,-2.61820255124662e+001,-1.49784403131885e-001

5.81589006928121e+004,-2.61820275418713e+001,-1.51874887157443e-001

5.89707686916437e+004,-2.61820296281960e+001,-1.53994535095678e-001

5.97939699453972e+004,-2.61820317730327e+001,-1.56143753292356e-001

6.06286626604156e+004,-2.61820339780185e+001,-1.58322953730730e-001

6.14750072515201e+004,-2.61820362448359e+001,-1.60532554112368e-001

6.23331663728396e+004,-2.61820385752140e+001,-1.62772977935104e-001

6.32033049490698e+004,-2.61820409709299e+001,-1.65044654572074e-001

6.40855902071694e+004,-2.61820434338110e+001,-1.67348019348627e-001

6.49801917084985e+004,-2.61820459657346e+001,-1.69683513630693e-001

6.58872813814055e+004,-2.61820485686303e+001,-1.72051584903160e-001

6.68070335542691e+004,-2.61820512444816e+001,-1.74452686853791e-001

6.77396249890018e+004,-2.61820539953271e+001,-1.76887279457314e-001

6.86852349150199e+004,-2.61820568232616e+001,-1.79355829064701e-001

6.96440450636895e+004,-2.61820597304385e+001,-1.81858808486412e-001

7.06162397032520e+004,-2.61820627190704e+001,-1.84396697082977e-001

7.16020056742374e+004,-2.61820657914320e+001,-1.86969980851228e-001

7.26015324253724e+004,-2.61820689498603e+001,-1.89579152519739e-001

7.36150120499896e+004,-2.61820721967577e+001,-1.92224711634870e-001

7.46426393229441e+004,-2.61820755345927e+001,-1.94907164658715e-001

7.56846117380472e+004,-2.61820789659021e+001,-1.97627025059103e-001

7.67411295460207e+004,-2.61820824932934e+001,-2.00384813406033e-001

7.78123957929823e+004,-2.61820861194458e+001,-2.03181057468963e-001

7.88986163594682e+004,-2.61820898471126e+001,-2.06016292313502e-001

7.99999999999995e+004,-2.61820936791236e+001,-2.08891060400188e-001

8.11167583832018e+004,-2.61820976183862e+001,-2.11805911686842e-001

8.22491061324848e+004,-2.61821016678885e+001,-2.14761403725433e-001

8.33972608672892e+004,-2.61821058307007e+001,-2.17758101770333e-001

8.45614432449099e+004,-2.61821101099782e+001,-2.20796578876952e-001

8.57418770029029e+004,-2.61821145089629e+001,-2.23877416010766e-001

8.69387890020841e+004,-2.61821190309861e+001,-2.27001202154290e-001

8.81524092701283e+004,-2.61821236794711e+001,-2.30168534410095e-001

8.93829710457770e+004,-2.61821284579350e+001,-2.33380018117127e-001

9.06307108236633e+004,-2.61821333699921e+001,-2.36636266954062e-001

9.18958683997622e+004,-2.61821384193556e+001,-2.39937903059110e-001

9.31786869174758e+004,-2.61821436098410e+001,-2.43285557135408e-001

9.44794129143618e+004,-2.61821489453682e+001,-2.46679868572892e-001

9.57982963695136e+004,-2.61821544299651e+001,-2.50121485558831e-001

9.71355907516031e+004,-2.61821600677696e+001,-2.53611065200029e-001

9.84915530675926e+004,-2.61821658630332e+001,-2.57149273637602e-001

9.98664439121282e+004,-2.61821718201234e+001,-2.60736786172956e-001

1.01260527517622e+005,-2.61821779435277e+001,-2.64374287383015e-001

1.02674071805032e+005,-2.61821842378557e+001,-2.68062471248786e-001

1.04107348435354e+005,-2.61821907078432e+001,-2.71802041278512e-001

1.05560632861831e+005,-2.61821973583553e+001,-2.75593710633279e-001

1.07034204382888e+005,-2.61822041943893e+001,-2.79438202255907e-001

1.08528346195813e+005,-2.61822112210790e+001,-2.83336249000890e-001

1.10043345451179e+005,-2.61822184436977e+001,-2.87288593763979e-001

1.11579493308032e+005,-2.61822258676621e+001,-2.91295989613703e-001

1.13137084989847e+005,-2.61822334985361e+001,-2.95359199928498e-001

1.14716419841265e+005,-2.61822413420344e+001,-2.99478998529220e-001

1.16317801385624e+005,-2.61822494040270e+001,-3.03656169816602e-001

1.17941537383287e+005,-2.61822576905421e+001,-3.07891508913547e-001

1.19587939890794e+005,-2.61822662077719e+001,-3.12185821798160e-001

1.21257325320831e+005,-2.61822749620751e+001,-3.16539925452004e-001

1.22950014503040e+005,-2.61822839599824e+001,-3.20954648001054e-001

1.24666332745679e+005,-2.61822932082003e+001,-3.25430828860593e-001

1.26406609898139e+005,-2.61823027136163e+001,-3.29969318879387e-001

1.28171180414339e+005,-2.61823124833028e+001,-3.34570980492548e-001

1.29960383416997e+005,-2.61823225245218e+001,-3.39236687869273e-001

1.31774562762811e+005,-2.61823328447309e+001,-3.43967327060972e-001

1.33614067108538e+005,-2.61823434515867e+001,-3.48763796159502e-001

1.35479249978003e+005,-2.61823543529509e+001,-3.53627005448503e-001

1.37370469830040e+005,-2.61823655568951e+001,-3.58557877559820e-001

1.39288090127379e+005,-2.61823770717061e+001,-3.63557347633420e-001

1.41232479406504e+005,-2.61823889058916e+001,-3.68626363473391e-001

1.43204011348474e+005,-2.61824010681853e+001,-3.73765885712275e-001

1.45203064850745e+005,-2.61824135675525e+001,-3.78976887972801e-001

1.47230024099979e+005,-2.61824264131965e+001,-3.84260357031616e-001

1.49285278645888e+005,-2.61824396145638e+001,-3.89617292985998e-001

1.51369223476094e+005,-2.61824531813504e+001,-3.95048709420733e-001

1.53482259092041e+005,-2.61824671235077e+001,-4.00555633579552e-001

1.55624791585964e+005,-2.61824814512492e+001,-4.06139106533524e-001

1.57797232718936e+005,-2.61824961750565e+001,-4.11800183354559e-001

1.59999999999999e+005,-2.61825113056857e+001,-4.17539933290638e-001

1.62233516766403e+005,-2.61825268541743e+001,-4.23359439940286e-001

1.64498212264969e+005,-2.61825428318479e+001,-4.29259801430231e-001

1.66794521734578e+005,-2.61825592503269e+001,-4.35242130596261e-001

1.69122886489819e+005,-2.61825761215338e+001,-4.41307555159847e-001

1.71483754005805e+005,-2.61825934577000e+001,-4.47457217915667e-001

1.73877578004168e+005,-2.61826112713731e+001,-4.53692276911457e-001

1.76304818540256e+005,-2.61826295754244e+001,-4.60013905635298e-001

1.78765942091554e+005,-2.61826483830568e+001,-4.66423293201228e-001

1.81261421647326e+005,-2.61826677078114e+001,-4.72921644539911e-001

1.83791736799524e+005,-2.61826875635764e+001,-4.79510180587097e-001

1.86357373834951e+005,-2.61827079645941e+001,-4.86190138475815e-001

1.88958825828723e+005,-2.61827289254695e+001,-4.92962771729813e-001

1.91596592739027e+005,-2.61827504611782e+001,-4.99829350457209e-001

1.94271181503206e+005,-2.61827725870744e+001,-5.06791161548215e-001

1.96983106135185e+005,-2.61827953188999e+001,-5.13849508871189e-001

1.99732887824256e+005,-2.61828186727918e+001,-5.21005713473277e-001

2.02521055035243e+005,-2.61828426652920e+001,-5.28261113779004e-001

2.05348143610063e+005,-2.61828673133548e+001,-5.35617065795298e-001

2.08214696870707e+005,-2.61828926343565e+001,-5.43074943311663e-001

2.11121265723661e+005,-2.61829186461046e+001,-5.50636138105589e-001

2.14068408765776e+005,-2.61829453668455e+001,-5.58302060150466e-001

2.17056692391625e+005,-2.61829728152750e+001,-5.66074137821334e-001

2.20086690902357e+005,-2.61830010105467e+001,-5.73953818103366e-001

2.23158986616063e+005,-2.61830299722815e+001,-5.81942566803370e-001

2.26274169979693e+005,-2.61830597205767e+001,-5.90041868760585e-001

2.29432839682530e+005,-2.61830902760159e+001,-5.98253228057158e-001

2.32635602771247e+005,-2.61831216596779e+001,-6.06578168235838e-001

2.35883074766574e+005,-2.61831538931467e+001,-6.15018232510549e-001

2.39175879781588e+005,-2.61831869985208e+001,-6.23574983985686e-001

2.42514650641661e+005,-2.61832209984227e+001,-6.32250005872244e-001

2.45900029006080e+005,-2.61832559160089e+001,-6.41044901705321e-001

2.49332665491357e+005,-2.61832917749793e+001,-6.49961295564902e-001

2.52813219796278e+005,-2.61833285995866e+001,-6.59000832296686e-001

2.56342360828676e+005,-2.61833664146465e+001,-6.68165177730673e-001

2.59920766833993e+005,-2.61834052455469e+001,-6.77456018907598e-001

2.63549125525621e+005,-2.61834451182574e+001,-6.86875064299982e-001

2.67228134217075e+005,-2.61834860593391e+001,-6.96424044037964e-001

2.70958499956006e+005,-2.61835280959541e+001,-7.06104710133705e-001

2.74740939660078e+005,-2.61835712558745e+001,-7.15918836708728e-001

2.78576180254757e+005,-2.61836155674918e+001,-7.25868220221604e-001

2.82464958813007e+005,-2.61836610598263e+001,-7.35954679695178e-001

2.86408022696948e+005,-2.61837077625360e+001,-7.46180056946085e-001

2.90406129701488e+005,-2.61837557059251e+001,-7.56546216815876e-001

2.94460048199957e+005,-2.61838049209532e+001,-7.67055047400834e-001

2.98570557291775e+005,-2.61838554392431e+001,-7.77708460285725e-001

3.02738446952187e+005,-2.61839072930900e+001,-7.88508390773654e-001

3.06964518184081e+005,-2.61839605154685e+001,-7.99456798122471e-001

3.11249583171928e+005,-2.61840151400409e+001,-8.10555665778960e-001

3.15594465437872e+005,-2.61840712011642e+001,-8.21807001614373e-001

3.19999999999997e+005,-2.61841287338975e+001,-8.33212838159931e-001

3.24467033532806e+005,-2.61841877740084e+001,-8.44775232846451e-001

3.28996424529938e+005,-2.61842483579796e+001,-8.56496268241973e-001

3.33589043469155e+005,-2.61843105230143e+001,-8.68378052291459e-001

3.38245772979638e+005,-2.61843743070422e+001,-8.80422718558606e-001

3.42967508011610e+005,-2.61844397487235e+001,-8.92632426468075e-001

3.47755156008335e+005,-2.61845068874542e+001,-9.05009361548220e-001

3.52609637080511e+005,-2.61845757633694e+001,-9.17555735676260e-001

3.57531884183106e+005,-2.61846464173463e+001,-9.30273787326024e-001

3.62522843294651e+005,-2.61847188910069e+001,-9.43165781814502e-001

3.67583473599047e+005,-2.61847932267199e+001,-9.56234011552673e-001

3.72714747669902e+005,-2.61848694676016e+001,-9.69480796296940e-001

3.77917651657445e+005,-2.61849476575160e+001,-9.82908483402975e-001

3.83193185478053e+005,-2.61850278410747e+001,-9.96519448081979e-001

3.88542363006410e+005,-2.61851100636350e+001,-1.01031609365886e+000

3.93966212270369e+005,-2.61851943712978e+001,-1.02430085183261e+000

3.99465775648511e+005,-2.61852808109040e+001,-1.03847618294230e+000

4.05042110070485e+005,-2.61853694300304e+001,-1.05284457623177e+000

4.10696287220124e+005,-2.61854602769843e+001,-1.06740855012129e+000

4.16429393741414e+005,-2.61855534007964e+001,-1.08217065248097e+000

4.22242531447321e+005,-2.61856488512136e+001,-1.09713346091019e+000

4.28136817531551e+005,-2.61857466786898e+001,-1.11229958301719e+000

4.34113384783250e+005,-2.61858469343756e+001,-1.12767165670902e+000

4.40173381804713e+005,-2.61859496701069e+001,-1.14325235048131e+000

4.46317973232124e+005,-2.61860549383914e+001,-1.15904436371735e+000

4.52548339959385e+005,-2.61861627923949e+001,-1.17505042699087e+000

4.58865679365059e+005,-2.61862732859249e+001,-1.19127330237591e+000

4.65271205542494e+005,-2.61863864734130e+001,-1.20771578376425e+000

4.71766149533147e+005,-2.61865024098963e+001,-1.22438069718888e+000

4.78351759563174e+005,-2.61866211509964e+001,-1.24127090115757e+000

4.85029301283321e+005,-2.61867427528972e+001,-1.25838928699279e+000

4.91800058012158e+005,-2.61868672723204e+001,-1.27573877918240e+000

4.98665330982714e+005,-2.61869947665002e+001,-1.29332233574102e+000

5.05626439592555e+005,-2.61871252931549e+001,-1.31114294857960e+000

5.12684721657352e+005,-2.61872589104579e+001,-1.32920364388883e+000

5.19841533667984e+005,-2.61873956770062e+001,-1.34750748253337e+000

5.27098251051240e+005,-2.61875356517862e+001,-1.36605756046152e+000

5.34456268434150e+005,-2.61876788941399e+001,-1.38485700912381e+000

5.41916999912011e+005,-2.61878254637259e+001,-1.40390899591278e+000

