Freq.,VOut,OutRef

1.00000000000000e+004,-2.39064333127052e+001,-4.64095517316977e-001

1.01395947979003e+004,-2.39064362227614e+001,-4.70573985269984e-001

1.02811382665607e+004,-2.39064392146282e+001,-4.77142886546077e-001

1.04246576084112e+004,-2.39064422906054e+001,-4.83803483432146e-001

1.05701804056138e+004,-2.39064454530577e+001,-4.90557055829490e-001

1.07177346253629e+004,-2.39064487044159e+001,-4.97404901503930e-001

1.08673486252606e+004,-2.39064520471795e+001,-5.04348336329953e-001

1.10190511587661e+004,-2.39064554839180e+001,-5.11388694546339e-001

1.11728713807222e+004,-2.39064590172733e+001,-5.18527329009974e-001

1.13288388529580e+004,-2.39064626499613e+001,-5.25765611459480e-001

1.14869835499703e+004,-2.39064663847747e+001,-5.33104932772711e-001

1.16473358646846e+004,-2.39064702245842e+001,-5.40546703240065e-001

1.18099266142953e+004,-2.39064741723416e+001,-5.48092352829867e-001

1.19747870461893e+004,-2.39064782310815e+001,-5.55743331465920e-001

1.21419488439505e+004,-2.39064824039237e+001,-5.63501109303459e-001

1.23114441334492e+004,-2.39064866940758e+001,-5.71367177015057e-001

1.24833054890161e+004,-2.39064911048358e+001,-5.79343046071606e-001

1.26575659397028e+004,-2.39064956395938e+001,-5.87430249036636e-001

1.28342589756290e+004,-2.39065003018359e+001,-5.95630339857501e-001

1.30134185544193e+004,-2.39065050951457e+001,-6.03944894166013e-001

1.31950791077289e+004,-2.39065100232077e+001,-6.12375509578724e-001

1.33792755478611e+004,-2.39065150898100e+001,-6.20923806003264e-001

1.35660432744767e+004,-2.39065202988470e+001,-6.29591425952412e-001

1.37554181813974e+004,-2.39065256543229e+001,-6.38380034853260e-001

1.39474366635040e+004,-2.39065311603540e+001,-6.47291321373673e-001

1.41421356237309e+004,-2.39065368211728e+001,-6.56326997740403e-001

1.43395524801583e+004,-2.39065426411304e+001,-6.65488800070675e-001

1.45397251732031e+004,-2.39065486247003e+001,-6.74778488703881e-001

1.47426921729110e+004,-2.39065547764818e+001,-6.84197848539863e-001

1.49484924863494e+004,-2.39065611012034e+001,-6.93748689380649e-001

1.51571656651040e+004,-2.39065676037266e+001,-7.03432846277602e-001

1.53687518128801e+004,-2.39065742890494e+001,-7.13252179883577e-001

1.55832915932100e+004,-2.39065811623104e+001,-7.23208576809441e-001

1.58008262372675e+004,-2.39065882287925e+001,-7.33303949985931e-001

1.60213975517924e+004,-2.39065954939273e+001,-7.43540239030101e-001

1.62450479271247e+004,-2.39066029632990e+001,-7.53919410616681e-001

1.64718203453514e+004,-2.39066106426485e+001,-7.64443458856517e-001

1.67017583885674e+004,-2.39066185378783e+001,-7.75114405677527e-001

1.69349062472505e+004,-2.39066266550568e+001,-7.85934301212497e-001

1.71713087287550e+004,-2.39066350004228e+001,-7.96905224191745e-001

1.74110112659224e+004,-2.39066435803906e+001,-8.08029282342367e-001

1.76540599258131e+004,-2.39066524015545e+001,-8.19308612790530e-001

1.79005014185594e+004,-2.39066614706947e+001,-8.30745382472101e-001

1.81503831063432e+004,-2.39066707947814e+001,-8.42341788547935e-001

1.84037530124975e+004,-2.39066803809808e+001,-8.54100058823264e-001

1.86606598307361e+004,-2.39066902366607e+001,-8.66022452176359e-001

1.89211529345119e+004,-2.39067003693958e+001,-8.78111258989644e-001

1.91852823865052e+004,-2.39067107869737e+001,-8.90368801588593e-001

1.94530989482457e+004,-2.39067214974009e+001,-9.02797434686589e-001

1.97246540898671e+004,-2.39067325089089e+001,-9.15399545836321e-001

1.99999999999999e+004,-2.39067438299604e+001,-9.28177555885661e-001

2.02791895958005e+004,-2.39067554692563e+001,-9.41133919441871e-001

2.05622765331213e+004,-2.39067674357414e+001,-9.54271125341511e-001

2.08493152168224e+004,-2.39067797386123e+001,-9.67591697125897e-001

2.11403608112276e+004,-2.39067923873241e+001,-9.81098193524180e-001

2.14354692507258e+004,-2.39068053915973e+001,-9.94793208944127e-001

2.17346972505211e+004,-2.39068187614256e+001,-1.00867937396684e+000

2.20381023175322e+004,-2.39068325070837e+001,-1.02275935585083e+000

2.23457427614443e+004,-2.39068466391350e+001,-1.03703585904160e+000

2.26576777059159e+004,-2.39068611684395e+001,-1.05151162568892e+000

2.29739670999406e+004,-2.39068761061626e+001,-1.06618943617117e+000

2.32946717293690e+004,-2.39068914637832e+001,-1.08107210962807e+000

2.36198532285905e+004,-2.39069072531030e+001,-1.09616250449691e+000

2.39495740923785e+004,-2.39069234862552e+001,-1.11146351906090e+000

2.42838976879009e+004,-2.39069401757137e+001,-1.12697809200260e+000

2.46228882668982e+004,-2.39069573343031e+001,-1.14270920296453e+000

2.49666109780322e+004,-2.39069749752084e+001,-1.15865987311955e+000

2.53151318794055e+004,-2.39069931119847e+001,-1.17483316574662e+000

2.56685179512580e+004,-2.39070117585684e+001,-1.19123218681648e+000

2.60268371088386e+004,-2.39070309292869e+001,-1.20786008558489e+000

2.63901582154578e+004,-2.39070506388706e+001,-1.22472005519318e+000

2.67585510957221e+004,-2.39070709024634e+001,-1.24181533327710e+000

2.71320865489533e+004,-2.39070917356349e+001,-1.25914920258619e+000

2.75108363627948e+004,-2.39071131543918e+001,-1.27672499160856e+000

2.78948733270080e+004,-2.39071351751908e+001,-1.29454607520632e+000

2.82842712474618e+004,-2.39071578149505e+001,-1.31261587525920e+000

2.86791049603164e+004,-2.39071810910650e+001,-1.33093786131727e+000

2.90794503464061e+004,-2.39072050214170e+001,-1.34951555126007e+000

2.94853843458219e+004,-2.39072296243914e+001,-1.36835251197071e+000

2.98969849726987e+004,-2.39072549188897e+001,-1.38745236001141e+000

3.03143313302078e+004,-2.39072809243440e+001,-1.40681876231586e+000

3.07375036257601e+004,-2.39073076607324e+001,-1.42645543688449e+000

3.11665831864199e+004,-2.39073351485941e+001,-1.44636615349442e+000

3.16016524745350e+004,-2.39073634090451e+001,-1.46655473441555e+000

3.20427951035848e+004,-2.39073924637945e+001,-1.48702505513812e+000

3.24900958542493e+004,-2.39074223351610e+001,-1.50778104511097e+000

3.29436406907028e+004,-2.39074530460901e+001,-1.52882668848661e+000

3.34035167771346e+004,-2.39074846201717e+001,-1.55016602488079e+000

3.38698124945009e+004,-2.39075170816582e+001,-1.57180315013818e+000

3.43426174575100e+004,-2.39075504554828e+001,-1.59374221711174e+000

3.48220225318448e+004,-2.39075847672789e+001,-1.61598743645137e+000

3.53081198516260e+004,-2.39076200433999e+001,-1.63854307740288e+000

3.58010028371187e+004,-2.39076563109388e+001,-1.66141346861818e+000

3.63007662126863e+004,-2.39076935977494e+001,-1.68460299897676e+000

3.68075060249948e+004,-2.39077319324676e+001,-1.70811611841809e+000

3.73213196614721e+004,-2.39077713445331e+001,-1.73195733878495e+000

3.78423058690237e+004,-2.39078118642121e+001,-1.75613123467829e+000

3.83705647730104e+004,-2.39078535226205e+001,-1.78064244432461e+000

3.89061978964912e+004,-2.39078963517476e+001,-1.80549567045330e+000

3.94493081797342e+004,-2.39079403844807e+001,-1.83069568118675e+000

3.99999999999998e+004,-2.39079856546300e+001,-1.85624731094384e+000

4.05583791916010e+004,-2.39080321969550e+001,-1.88215546135167e+000

4.11245530662425e+004,-2.39080800471905e+001,-1.90842510217421e+000

4.16986304336447e+004,-2.39081292420742e+001,-1.93506127225086e+000

4.22807216224550e+004,-2.39081798193749e+001,-1.96206908044671e+000

4.28709385014515e+004,-2.39082318179211e+001,-1.98945370661833e+000

4.34693945010421e+004,-2.39082852776311e+001,-2.01722040258972e+000

4.40762046350642e+004,-2.39083402395429e+001,-2.04537449314391e+000

4.46914855228886e+004,-2.39083967458462e+001,-2.07392137702467e+000

4.53153554118317e+004,-2.39084548399144e+001,-2.10286652795484e+000

4.59479341998812e+004,-2.39085145663374e+001,-2.13221549566615e+000

4.65893434587380e+004,-2.39085759709561e+001,-2.16197390694270e+000

4.72397064571810e+004,-2.39086391008976e+001,-2.19214746667957e+000

4.78991481847569e+004,-2.39087040046102e+001,-2.22274195895474e+000

4.85677953758016e+004,-2.39087707319016e+001,-2.25376324811461e+000

4.92457765337964e+004,-2.39088393339762e+001,-2.28521727987426e+000

4.99332219560642e+004,-2.39089098634742e+001,-2.31711008243407e+000

5.06302637588109e+004,-2.39089823745121e+001,-2.34944776760701e+000

5.13370359025159e+004,-2.39090569227237e+001,-2.38223653196488e+000

5.20536742176771e+004,-2.39091335653025e+001,-2.41548265799682e+000

5.27803164309155e+004,-2.39092123610456e+001,-2.44919251528480e+000

5.35171021914442e+004,-2.39092933703984e+001,-2.48337256169250e+000

5.42641730979066e+004,-2.39093766555004e+001,-2.51802934457199e+000

5.50216727255895e+004,-2.39094622802329e+001,-2.55316950198445e+000

5.57897466540159e+004,-2.39095503102675e+001,-2.58879976393715e+000

5.65685424949235e+004,-2.39096408131161e+001,-2.62492695363710e+000

5.73582099206328e+004,-2.39097338581823e+001,-2.66155798876005e+000

5.81589006928121e+004,-2.39098295168144e+001,-2.69869988273634e+000

5.89707686916437e+004,-2.39099278623596e+001,-2.73635974605274e+000

5.97939699453972e+004,-2.39100289702195e+001,-2.77454478757221e+000

6.06286626604156e+004,-2.39101329179079e+001,-2.81326231586992e+000

6.14750072515201e+004,-2.39102397851095e+001,-2.85251974058541e+000

6.23331663728396e+004,-2.39103496537404e+001,-2.89232457379309e+000

6.32033049490698e+004,-2.39104626080105e+001,-2.93268443139098e+000

6.40855902071694e+004,-2.39105787344875e+001,-2.97360703450398e+000

6.49801917084985e+004,-2.39106981221621e+001,-3.01510021090920e+000

6.58872813814055e+004,-2.39108208625166e+001,-3.05717189647469e+000

6.68070335542691e+004,-2.39109470495931e+001,-3.09983013662028e+000

6.77396249890018e+004,-2.39110767800656e+001,-3.14308308779366e+000

6.86852349150199e+004,-2.39112101533133e+001,-3.18693901896670e+000

6.96440450636895e+004,-2.39113472714953e+001,-3.23140631315023e+000

7.06162397032520e+004,-2.39114882396288e+001,-3.27649346892570e+000

7.16020056742374e+004,-2.39116331656679e+001,-3.32220910199896e+000

7.26015324253724e+004,-2.39117821605858e+001,-3.36856194677014e+000

7.36150120499896e+004,-2.39119353384585e+001,-3.41556085792472e+000

7.46426393229441e+004,-2.39120928165514e+001,-3.46321481204265e+000

7.56846117380472e+004,-2.39122547154074e+001,-3.51153290922856e+000

7.67411295460207e+004,-2.39124211589384e+001,-3.56052437475996e+000

7.78123957929823e+004,-2.39125922745188e+001,-3.61019856075676e+000

7.88986163594682e+004,-2.39127681930815e+001,-3.66056494786967e+000

7.99999999999995e+004,-2.39129490492168e+001,-3.71163314698937e+000

8.11167583832018e+004,-2.39131349812740e+001,-3.76341290097606e+000

8.22491061324848e+004,-2.39133261314653e+001,-3.81591408640947e+000

8.33972608672892e+004,-2.39135226459731e+001,-3.86914671535787e+000

8.45614432449099e+004,-2.39137246750603e+001,-3.92312093717055e+000

8.57418770029029e+004,-2.39139323731827e+001,-3.97784704028874e+000

8.69387890020841e+004,-2.39141458991059e+001,-4.03333545407807e+000

8.81524092701283e+004,-2.39143654160240e+001,-4.08959675068307e+000

8.93829710457770e+004,-2.39145910916822e+001,-4.14664164690126e+000

9.06307108236633e+004,-2.39148230985032e+001,-4.20448100607909e+000

9.18958683997622e+004,-2.39150616137156e+001,-4.26312584002995e+000

9.31786869174758e+004,-2.39153068194874e+001,-4.32258731097221e+000

9.44794129143618e+004,-2.39155589030624e+001,-4.38287673348944e+000

9.57982963695136e+004,-2.39158180568997e+001,-4.44400557651284e+000

9.71355907516031e+004,-2.39160844788181e+001,-4.50598546532375e+000

9.84915530675926e+004,-2.39163583721439e+001,-4.56882818357846e+000

9.98664439121282e+004,-2.39166399458624e+001,-4.63254567535605e+000

1.01260527517622e+005,-2.39169294147739e+001,-4.69715004722532e+000

1.02674071805032e+005,-2.39172269996536e+001,-4.76265357033613e+000

1.04107348435354e+005,-2.39175329274165e+001,-4.82906868253012e+000

1.05560632861831e+005,-2.39178474312853e+001,-4.89640799047561e+000

1.07034204382888e+005,-2.39181707509646e+001,-4.96468427182195e+000

1.08528346195813e+005,-2.39185031328184e+001,-5.03391047737671e+000

1.10043345451179e+005,-2.39188448300530e+001,-5.10409973330477e+000

1.11579493308032e+005,-2.39191961029043e+001,-5.17526534334889e+000

1.13137084989847e+005,-2.39195572188308e+001,-5.24742079107081e+000

1.14716419841265e+005,-2.39199284527114e+001,-5.32057974211520e+000

1.16317801385624e+005,-2.39203100870479e+001,-5.39475604649440e+000

1.17941537383287e+005,-2.39207024121740e+001,-5.46996374089428e+000

1.19587939890794e+005,-2.39211057264689e+001,-5.54621705100119e+000

1.21257325320831e+005,-2.39215203365768e+001,-5.62353039384999e+000

1.22950014503040e+005,-2.39219465576329e+001,-5.70191838019316e+000

1.24666332745679e+005,-2.39223847134940e+001,-5.78139581688986e+000

1.26406609898139e+005,-2.39228351369763e+001,-5.86197770931583e+000

1.28171180414339e+005,-2.39232981700994e+001,-5.94367926379312e+000

1.29960383416997e+005,-2.39237741643357e+001,-6.02651589003986e+000

1.31774562762811e+005,-2.39242634808675e+001,-6.11050320363934e+000

1.33614067108538e+005,-2.39247664908503e+001,-6.19565702852876e+000

1.35479249978003e+005,-2.39252835756829e+001,-6.28199339950653e+000

1.37370469830040e+005,-2.39258151272844e+001,-6.36952856475812e+000

1.39288090127379e+005,-2.39263615483792e+001,-6.45827898840008e+000

1.41232479406504e+005,-2.39269232527882e+001,-6.54826135304176e+000

1.43204011348474e+005,-2.39275006657282e+001,-6.63949256236442e+000

1.45203064850745e+005,-2.39280942241193e+001,-6.73198974371705e+000

1.47230024099979e+005,-2.39287043768995e+001,-6.82577025072746e+000

1.49285278645888e+005,-2.39293315853475e+001,-6.92085166593094e+000

1.51369223476094e+005,-2.39299763234144e+001,-7.01725180341155e+000

1.53482259092041e+005,-2.39306390780630e+001,-7.11498871146001e+000

1.55624791585964e+005,-2.39313203496160e+001,-7.21408067524389e+000

1.57797232718936e+005,-2.39320206521138e+001,-7.31454621949086e+000

1.59999999999999e+005,-2.39327405136795e+001,-7.41640411118483e+000

1.62233516766403e+005,-2.39334804768954e+001,-7.51967336227252e+000

1.64498212264969e+005,-2.39342410991868e+001,-7.62437323238104e+000

1.66794521734578e+005,-2.39350229532169e+001,-7.73052323154558e+000

1.69122886489819e+005,-2.39358266272910e+001,-7.83814312294403e+000

1.71483754005805e+005,-2.39366527257701e+001,-7.94725292564081e+000

1.73877578004168e+005,-2.39375018694962e+001,-8.05787291733671e+000

1.76304818540256e+005,-2.39383746962265e+001,-8.17002363712323e+000

1.78765942091554e+005,-2.39392718610792e+001,-8.28372588824231e+000

1.81261421647326e+005,-2.39401940369899e+001,-8.39900074084833e+000

1.83791736799524e+005,-2.39411419151792e+001,-8.51586953477114e+000

1.86357373834951e+005,-2.39421162056313e+001,-8.63435388228052e+000

1.88958825828723e+005,-2.39431176375845e+001,-8.75447567084810e+000

1.91596592739027e+005,-2.39441469600331e+001,-8.87625706590761e+000

1.94271181503206e+005,-2.39452049422418e+001,-8.99972051360908e+000

1.96983106135185e+005,-2.39462923742716e+001,-9.12488874356893e+000

1.99732887824256e+005,-2.39474100675186e+001,-9.25178477161053e+000

2.02521055035243e+005,-2.39485588552652e+001,-9.38043190249578e+000

2.05348143610063e+005,-2.39497395932445e+001,-9.51085373264529e+000

2.08214696870707e+005,-2.39509531602172e+001,-9.64307415284416e+000

2.11121265723661e+005,-2.39522004585624e+001,-9.77711735093255e+000

2.14068408765776e+005,-2.39534824148813e+001,-9.91300781447824e+000

2.17056692391625e+005,-2.39547999806153e+001,-1.00507703334291e+001

2.20086690902357e+005,-2.39561541326776e+001,-1.01904300027424e+001

2.23158986616063e+005,-2.39575458740988e+001,-1.03320122249898e+001

2.26274169979693e+005,-2.39589762346878e+001,-1.04755427129340e+001

2.29432839682530e+005,-2.39604462717058e+001,-1.06210474920753e+001

2.32635602771247e+005,-2.39619570705565e+001,-1.07685529031656e+001

2.35883074766574e+005,-2.39635097454902e+001,-1.09180856046850e+001

2.39175879781588e+005,-2.39651054403241e+001,-1.10696725752809e+001

2.42514650641661e+005,-2.39667453291767e+001,-1.12233411161636e+001

2.45900029006080e+005,-2.39684306172190e+001,-1.13791188534570e+001

2.49332665491357e+005,-2.39701625414403e+001,-1.15370337405010e+001

2.52813219796278e+005,-2.39719423714306e+001,-1.16971140601000e+001

2.56342360828676e+005,-2.39737714101791e+001,-1.18593884267172e+001

2.59920766833993e+005,-2.39756509948878e+001,-1.20238857886084e+001

2.63549125525621e+005,-2.39775824978028e+001,-1.21906354298918e+001

2.67228134217075e+005,-2.39795673270612e+001,-1.23596669725508e+001

2.70958499956006e+005,-2.39816069275546e+001,-1.25310103783646e+001

2.74740939660078e+005,-2.39837027818095e+001,-1.27046959507634e+001

2.78576180254757e+005,-2.39858564108841e+001,-1.28807543366022e+001

2.82464958813007e+005,-2.39880693752822e+001,-1.30592165278498e+001

2.86408022696948e+005,-2.39903432758836e+001,-1.32401138631887e+001

2.90406129701488e+005,-2.39926797548921e+001,-1.34234780295188e+001

2.94460048199957e+005,-2.39950804967992e+001,-1.36093410633632e+001

2.98570557291775e+005,-2.39975472293657e+001,-1.37977353521675e+001

3.02738446952187e+005,-2.40000817246198e+001,-1.39886936354904e+001

3.06964518184081e+005,-2.40026857998719e+001,-1.41822490060771e+001

3.11249583171928e+005,-2.40053613187464e+001,-1.43784349108131e+001

3.15594465437872e+005,-2.40081101922300e+001,-1.45772851515499e+001

3.19999999999997e+005,-2.40109343797364e+001,-1.47788338857976e+001

3.24467033532806e+005,-2.40138358901875e+001,-1.49831156272797e+001

3.28996424529938e+005,-2.40168167831109e+001,-1.51901652463417e+001

3.33589043469155e+005,-2.40198791697530e+001,-1.54000179702087e+001

3.38245772979638e+005,-2.40230252142079e+001,-1.56127093830844e+001

3.42967508011610e+005,-2.40262571345624e+001,-1.58282754260863e+001

3.47755156008335e+005,-2.40295772040546e+001,-1.60467523970087e+001

3.52609637080511e+005,-2.40329877522489e+001,-1.62681769499080e+001

3.57531884183106e+005,-2.40364911662241e+001,-1.64925860945019e+001

3.62522843294651e+005,-2.40400898917759e+001,-1.67200171953769e+001

3.67583473599047e+005,-2.40437864346327e+001,-1.69505079709949e+001

3.72714747669902e+005,-2.40475833616841e+001,-1.71840964924942e+001

3.77917651657445e+005,-2.40514833022217e+001,-1.74208211822739e+001

3.83193185478053e+005,-2.40554889491914e+001,-1.76607208123570e+001

3.88542363006410e+005,-2.40596030604570e+001,-1.79038345025239e+001

3.93966212270369e+005,-2.40638284600730e+001,-1.81502017182067e+001

3.99465775648511e+005,-2.40681680395680e+001,-1.83998622681394e+001

4.05042110070485e+005,-2.40726247592349e+001,-1.86528563017530e+001

4.10696287220124e+005,-2.40772016494305e+001,-1.89092243063102e+001

4.16429393741414e+005,-2.40819018118797e+001,-1.91690071037701e+001

4.22242531447321e+005,-2.40867284209865e+001,-1.94322458473757e+001

4.28136817531551e+005,-2.40916847251486e+001,-1.96989820179545e+001

4.34113384783250e+005,-2.40967740480752e+001,-1.99692574199278e+001

4.40173381804713e+005,-2.41019997901064e+001,-2.02431141770159e+001

4.46317973232124e+005,-2.41073654295335e+001,-2.05205947276357e+001

4.52548339959385e+005,-2.41128745239174e+001,-2.08017418199797e+001

4.58865679365059e+005,-2.41185307114055e+001,-2.10865985067706e+001

4.65271205542494e+005,-2.41243377120430e+001,-2.13752081396822e+001

4.71766149533147e+005,-2.41302993290800e+001,-2.16676143634201e+001

4.78351759563174e+005,-2.41364194502693e+001,-2.19638611094556e+001

4.85029301283321e+005,-2.41427020491558e+001,-2.22639925894027e+001

4.91800058012158e+005,-2.41491511863536e+001,-2.25680532880345e+001

4.98665330982714e+005,-2.41557710108105e+001,-2.28760879559304e+001

5.05626439592555e+005,-2.41625657610556e+001,-2.31881416017480e+001

5.12684721657352e+005,-2.41695397664298e+001,-2.35042594841131e+001

5.19841533667984e+005,-2.41766974482956e+001,-2.38244871031235e+001

5.27098251051240e+005,-2.41840433212245e+001,-2.41488701914591e+001

5.34456268434150e+005,-2.41915819941589e+001,-2.44774547050945e+001

5.41916999912011e+005,-2.41993181715457e+001,-2.48102868136094e+001

