Freq.,VOut,OutRef

1.00000000000000e+004,-1.94226059401759e+001,-1.32508632971557e-001

1.01395947979003e+004,-1.94226061889962e+001,-1.34358380175632e-001

1.02811382665607e+004,-1.94226064448116e+001,-1.36233948702205e-001

1.04246576084112e+004,-1.94226067078188e+001,-1.38135698995897e-001

1.05701804056138e+004,-1.94226069782198e+001,-1.40063996532721e-001

1.07177346253629e+004,-1.94226072562227e+001,-1.42019211888445e-001

1.08673486252606e+004,-1.94226075420411e+001,-1.44001720814024e-001

1.10190511587661e+004,-1.94226078358945e+001,-1.46011904304905e-001

1.11728713807222e+004,-1.94226081380091e+001,-1.48050148671927e-001

1.13288388529580e+004,-1.94226084486171e+001,-1.50116845620568e-001

1.14869835499703e+004,-1.94226087679570e+001,-1.52212392325397e-001

1.16473358646846e+004,-1.94226090962744e+001,-1.54337191501238e-001

1.18099266142953e+004,-1.94226094338218e+001,-1.56491651486265e-001

1.19747870461893e+004,-1.94226097808585e+001,-1.58676186318553e-001

1.21419488439505e+004,-1.94226101376515e+001,-1.60891215813523e-001

1.23114441334492e+004,-1.94226105044748e+001,-1.63137165648910e-001

1.24833054890161e+004,-1.94226108816105e+001,-1.65414467442592e-001

1.26575659397028e+004,-1.94226112693485e+001,-1.67723558838263e-001

1.28342589756290e+004,-1.94226116679868e+001,-1.70064883585907e-001

1.30134185544193e+004,-1.94226120778318e+001,-1.72438891632346e-001

1.31950791077289e+004,-1.94226124991986e+001,-1.74846039202960e-001

1.33792755478611e+004,-1.94226129324111e+001,-1.77286788891465e-001

1.35660432744767e+004,-1.94226133778021e+001,-1.79761609749088e-001

1.37554181813974e+004,-1.94226138357144e+001,-1.82270977371776e-001

1.39474366635040e+004,-1.94226143064994e+001,-1.84815373998462e-001

1.41421356237309e+004,-1.94226147905195e+001,-1.87395288592863e-001

1.43395524801583e+004,-1.94226152881463e+001,-1.90011216949456e-001

1.45397251732031e+004,-1.94226157997626e+001,-1.92663661778456e-001

1.47426921729110e+004,-1.94226163257615e+001,-1.95353132809646e-001

1.49484924863494e+004,-1.94226168665473e+001,-1.98080146885696e-001

1.51571656651040e+004,-1.94226174225358e+001,-2.00845228063480e-001

1.53687518128801e+004,-1.94226179941544e+001,-2.03648907714272e-001

1.55832915932100e+004,-1.94226185818421e+001,-2.06491724627921e-001

1.58008262372675e+004,-1.94226191860510e+001,-2.09374225111507e-001

1.60213975517924e+004,-1.94226198072452e+001,-2.12296963098598e-001

1.62450479271247e+004,-1.94226204459025e+001,-2.15260500253511e-001

1.64718203453514e+004,-1.94226211025135e+001,-2.18265406080895e-001

1.67017583885674e+004,-1.94226217775829e+001,-2.21312258033608e-001

1.69349062472505e+004,-1.94226224716297e+001,-2.24401641623079e-001

1.71713087287550e+004,-1.94226231851872e+001,-2.27534150534048e-001

1.74110112659224e+004,-1.94226239188040e+001,-2.30710386736892e-001

1.76540599258131e+004,-1.94226246730437e+001,-2.33930960603461e-001

1.79005014185594e+004,-1.94226254484863e+001,-2.37196491023853e-001

1.81503831063432e+004,-1.94226262457274e+001,-2.40507605527698e-001

1.84037530124975e+004,-1.94226270653802e+001,-2.43864940400401e-001

1.86606598307361e+004,-1.94226279080743e+001,-2.47269140810045e-001

1.89211529345119e+004,-1.94226287744574e+001,-2.50720860927389e-001

1.91852823865052e+004,-1.94226296651956e+001,-2.54220764053335e-001

1.94530989482457e+004,-1.94226305809732e+001,-2.57769522746913e-001

1.97246540898671e+004,-1.94226315224941e+001,-2.61367818952807e-001

1.99999999999999e+004,-1.94226324904820e+001,-2.65016344132969e-001

2.02791895958005e+004,-1.94226334856806e+001,-2.68715799400087e-001

2.05622765331213e+004,-1.94226345088549e+001,-2.72466895650694e-001

2.08493152168224e+004,-1.94226355607913e+001,-2.76270353702598e-001

2.11403608112276e+004,-1.94226366422979e+001,-2.80126904434807e-001

2.14354692507258e+004,-1.94226377542062e+001,-2.84037288923113e-001

2.17346972505211e+004,-1.94226388973705e+001,-2.88002258587958e-001

2.20381023175322e+004,-1.94226400726693e+001,-2.92022575335877e-001

2.23457427614443e+004,-1.94226412810057e+001,-2.96099011706118e-001

2.26576777059159e+004,-1.94226425233085e+001,-3.00232351016701e-001

2.29739670999406e+004,-1.94226438005321e+001,-3.04423387519894e-001

2.32946717293690e+004,-1.94226451136583e+001,-3.08672926549507e-001

2.36198532285905e+004,-1.94226464636958e+001,-3.12981784679512e-001

2.39495740923785e+004,-1.94226478516822e+001,-3.17350789877514e-001

2.42838976879009e+004,-1.94226492786840e+001,-3.21780781665745e-001

2.46228882668982e+004,-1.94226507457978e+001,-3.26272611280730e-001

2.49666109780322e+004,-1.94226522541509e+001,-3.30827141838381e-001

2.53151318794055e+004,-1.94226538049021e+001,-3.35445248498811e-001

2.56685179512580e+004,-1.94226553992433e+001,-3.40127818632239e-001

2.60268371088386e+004,-1.94226570383993e+001,-3.44875751993652e-001

2.63901582154578e+004,-1.94226587236295e+001,-3.49689960891487e-001

2.67585510957221e+004,-1.94226604562289e+001,-3.54571370364164e-001

2.71320865489533e+004,-1.94226622375287e+001,-3.59520918357027e-001

2.75108363627948e+004,-1.94226640688975e+001,-3.64539555903897e-001

2.78948733270080e+004,-1.94226659517422e+001,-3.69628247308303e-001

2.82842712474618e+004,-1.94226678875095e+001,-3.74787970327697e-001

2.86791049603164e+004,-1.94226698776866e+001,-3.80019716362295e-001

2.90794503464061e+004,-1.94226719238025e+001,-3.85324490644203e-001

2.94853843458219e+004,-1.94226740274291e+001,-3.90703312432057e-001

2.98969849726987e+004,-1.94226761901824e+001,-3.96157215204268e-001

3.03143313302078e+004,-1.94226784137240e+001,-4.01687246857811e-001

3.07375036257601e+004,-1.94226806997620e+001,-4.07294469910690e-001

3.11665831864199e+004,-1.94226830500523e+001,-4.12979961704134e-001

3.16016524745350e+004,-1.94226854664007e+001,-4.18744814608497e-001

3.20427951035848e+004,-1.94226879506631e+001,-4.24590136235328e-001

3.24900958542493e+004,-1.94226905047478e+001,-4.30517049647468e-001

3.29436406907028e+004,-1.94226931306166e+001,-4.36526693574559e-001

3.34035167771346e+004,-1.94226958302865e+001,-4.42620222632117e-001

3.38698124945009e+004,-1.94226986058309e+001,-4.48798807543383e-001

3.43426174575100e+004,-1.94227014593819e+001,-4.55063635360730e-001

3.48220225318448e+004,-1.94227043931309e+001,-4.61415909697421e-001

3.53081198516260e+004,-1.94227074093312e+001,-4.67856850954351e-001

3.58010028371187e+004,-1.94227105102991e+001,-4.74387696557306e-001

3.63007662126863e+004,-1.94227136984162e+001,-4.81009701190515e-001

3.68075060249948e+004,-1.94227169761309e+001,-4.87724137040149e-001

3.73213196614721e+004,-1.94227203459602e+001,-4.94532294035637e-001

3.78423058690237e+004,-1.94227238104917e+001,-5.01435480099669e-001

3.83705647730104e+004,-1.94227273723860e+001,-5.08435021394894e-001

3.89061978964912e+004,-1.94227310343780e+001,-5.15532262580619e-001

3.94493081797342e+004,-1.94227347992795e+001,-5.22728567069593e-001

3.99999999999998e+004,-1.94227386699813e+001,-5.30025317289306e-001

4.05583791916010e+004,-1.94227426494551e+001,-5.37423914945993e-001

4.11245530662425e+004,-1.94227467407564e+001,-5.44925781292490e-001

4.16986304336447e+004,-1.94227509470260e+001,-5.52532357402927e-001

4.22807216224550e+004,-1.94227552714931e+001,-5.60245104445444e-001

4.28709385014515e+004,-1.94227597174775e+001,-5.68065503962945e-001

4.34693945010421e+004,-1.94227642883920e+001,-5.75995058157486e-001

4.40762046350642e+004,-1.94227689877454e+001,-5.84035290176116e-001

4.46914855228886e+004,-1.94227738191446e+001,-5.92187744403964e-001

4.53153554118317e+004,-1.94227787862980e+001,-6.00453986757559e-001

4.59479341998812e+004,-1.94227838930179e+001,-6.08835604985883e-001

4.65893434587380e+004,-1.94227891432234e+001,-6.17334208974079e-001

4.72397064571810e+004,-1.94227945409438e+001,-6.25951431050155e-001

4.78991481847569e+004,-1.94228000903212e+001,-6.34688926297514e-001

4.85677953758016e+004,-1.94228057956140e+001,-6.43548372871362e-001

4.92457765337964e+004,-1.94228116611999e+001,-6.52531472319489e-001

4.99332219560642e+004,-1.94228176915794e+001,-6.61639949907288e-001

5.06302637588109e+004,-1.94228238913792e+001,-6.70875554947524e-001

5.13370359025159e+004,-1.94228302653557e+001,-6.80240061133537e-001

5.20536742176771e+004,-1.94228368183987e+001,-6.89735266879725e-001

5.27803164309155e+004,-1.94228435555349e+001,-6.99362995663450e-001

5.35171021914442e+004,-1.94228504819321e+001,-7.09125096373974e-001

5.42641730979066e+004,-1.94228576029030e+001,-7.19023443664588e-001

5.50216727255895e+004,-1.94228649239087e+001,-7.29059938311667e-001

5.57897466540159e+004,-1.94228724505640e+001,-7.39236507575347e-001

5.65685424949235e+004,-1.94228801886405e+001,-7.49555105569909e-001

5.73582099206328e+004,-1.94228881440718e+001,-7.60017713633251e-001

5.81589006928121e+004,-1.94228963229577e+001,-7.70626340707540e-001

5.89707686916437e+004,-1.94229047315687e+001,-7.81383023720439e-001

5.97939699453972e+004,-1.94229133763511e+001,-7.92289827974483e-001

6.06286626604156e+004,-1.94229222639317e+001,-8.03348847539535e-001

6.14750072515201e+004,-1.94229314011227e+001,-8.14562205653014e-001

6.23331663728396e+004,-1.94229407949273e+001,-8.25932055122784e-001

6.32033049490698e+004,-1.94229504525447e+001,-8.37460578737705e-001

6.40855902071694e+004,-1.94229603813756e+001,-8.49149989684686e-001

6.49801917084985e+004,-1.94229705890277e+001,-8.61002531967068e-001

6.58872813814055e+004,-1.94229810833217e+001,-8.73020480834378e-001

6.68070335542691e+004,-1.94229918722975e+001,-8.85206143211870e-001

6.77396249890018e+004,-1.94230029642193e+001,-8.97561858143263e-001

6.86852349150199e+004,-1.94230143675831e+001,-9.10089997232011e-001

6.96440450636895e+004,-1.94230260911221e+001,-9.22792965093883e-001

7.06162397032520e+004,-1.94230381438141e+001,-9.35673199812229e-001

7.16020056742374e+004,-1.94230505348878e+001,-9.48733173402640e-001

7.26015324253724e+004,-1.94230632738298e+001,-9.61975392282041e-001

7.36150120499896e+004,-1.94230763703921e+001,-9.75402397743602e-001

7.46426393229441e+004,-1.94230898345993e+001,-9.89016766438992e-001

7.56846117380472e+004,-1.94231036767559e+001,-1.00282111086765e+000

7.67411295460207e+004,-1.94231179074547e+001,-1.01681807987209e+000

7.78123957929823e+004,-1.94231325375840e+001,-1.03101035913981e+000

7.88986163594682e+004,-1.94231475783367e+001,-1.04540067171087e+000

7.99999999999995e+004,-1.94231630412178e+001,-1.05999177849628e+000

8.11167583832018e+004,-1.94231789380540e+001,-1.07478647879793e+000

8.22491061324848e+004,-1.94231952810017e+001,-1.08978761083993e+000

8.33972608672892e+004,-1.94232120825571e+001,-1.10499805230489e+000

8.45614432449099e+004,-1.94232293555647e+001,-1.12042072087729e+000

8.57418770029029e+004,-1.94232471132275e+001,-1.13605857479707e+000

8.69387890020841e+004,-1.94232653691168e+001,-1.15191461341507e+000

8.81524092701283e+004,-1.94232841371824e+001,-1.16799187776252e+000

8.93829710457770e+004,-1.94233034317630e+001,-1.18429345112241e+000

9.06307108236633e+004,-1.94233232675969e+001,-1.20082245961322e+000

9.18958683997622e+004,-1.94233436598333e+001,-1.21758207277603e+000

9.31786869174758e+004,-1.94233646240433e+001,-1.23457550417337e+000

9.44794129143618e+004,-1.94233861762319e+001,-1.25180601199312e+000

9.57982963695136e+004,-1.94234083328496e+001,-1.26927689966352e+000

9.71355907516031e+004,-1.94234311108051e+001,-1.28699151647182e+000

9.84915530675926e+004,-1.94234545274774e+001,-1.30495325819661e+000

9.98664439121282e+004,-1.94234786007294e+001,-1.32316556774394e+000

1.01260527517622e+005,-1.94235033489206e+001,-1.34163193579439e+000

1.02674071805032e+005,-1.94235287909212e+001,-1.36035590145908e+000

1.04107348435354e+005,-1.94235549461260e+001,-1.37934105294027e+000

1.05560632861831e+005,-1.94235818344686e+001,-1.39859102820796e+000

1.07034204382888e+005,-1.94236094764366e+001,-1.41810951567701e+000

1.08528346195813e+005,-1.94236378930866e+001,-1.43790025490054e+000

1.10043345451179e+005,-1.94236671060595e+001,-1.45796703726740e+000

1.11579493308032e+005,-1.94236971375973e+001,-1.47831370671074e+000

1.13137084989847e+005,-1.94237280105587e+001,-1.49894416042636e+000

1.14716419841265e+005,-1.94237597484364e+001,-1.51986234959954e+000

1.16317801385624e+005,-1.94237923753746e+001,-1.54107228014142e+000

1.17941537383287e+005,-1.94238259161863e+001,-1.56257801343490e+000

1.19587939890794e+005,-1.94238603963720e+001,-1.58438366709122e+000

1.21257325320831e+005,-1.94238958421384e+001,-1.60649341571464e+000

1.22950014503040e+005,-1.94239322804173e+001,-1.62891149167900e+000

1.24666332745679e+005,-1.94239697388859e+001,-1.65164218591250e+000

1.26406609898139e+005,-1.94240082459866e+001,-1.67468984869300e+000

1.28171180414339e+005,-1.94240478309478e+001,-1.69805889045588e+000

1.29960383416997e+005,-1.94240885238060e+001,-1.72175378260756e+000

1.31774562762811e+005,-1.94241303554264e+001,-1.74577905835450e+000

1.33614067108538e+005,-1.94241733575268e+001,-1.77013931353881e+000

1.35479249978003e+005,-1.94242175626997e+001,-1.79483920748739e+000

1.37370469830040e+005,-1.94242630044362e+001,-1.81988346386932e+000

1.39288090127379e+005,-1.94243097171504e+001,-1.84527687156738e+000

1.41232479406504e+005,-1.94243577362045e+001,-1.87102428555648e+000

1.43204011348474e+005,-1.94244070979337e+001,-1.89713062779708e+000

1.45203064850745e+005,-1.94244578396734e+001,-1.92360088813604e+000

1.47230024099979e+005,-1.94245099997849e+001,-1.95044012522403e+000

1.49285278645888e+005,-1.94245636176839e+001,-1.97765346743813e+000

1.51369223476094e+005,-1.94246187338686e+001,-2.00524611382030e+000

1.53482259092041e+005,-1.94246753899485e+001,-2.03322333502689e+000

1.55624791585964e+005,-1.94247336286742e+001,-2.06159047428802e+000

1.57797232718936e+005,-1.94247934939679e+001,-2.09035294838111e+000

1.59999999999999e+005,-1.94248550309548e+001,-2.11951624861484e+000

1.62233516766403e+005,-1.94249182859950e+001,-2.14908594182630e+000

1.64498212264969e+005,-1.94249833067164e+001,-2.17906767138937e+000

1.66794521734578e+005,-1.94250501420485e+001,-2.20946715823592e+000

1.69122886489819e+005,-1.94251188422567e+001,-2.24029020188961e+000

1.71483754005805e+005,-1.94251894589780e+001,-2.27154268151222e+000

1.73877578004168e+005,-1.94252620452569e+001,-2.30323055696133e+000

1.76304818540256e+005,-1.94253366555829e+001,-2.33535986986272e+000

1.78765942091554e+005,-1.94254133459284e+001,-2.36793674469520e+000

1.81261421647326e+005,-1.94254921737876e+001,-2.40096738988690e+000

1.83791736799524e+005,-1.94255731982167e+001,-2.43445809892601e+000

1.86357373834951e+005,-1.94256564798749e+001,-2.46841525148365e+000

1.88958825828723e+005,-1.94257420810658e+001,-2.50284531455267e+000

1.91596592739027e+005,-1.94258300657812e+001,-2.53775484359540e+000

1.94271181503206e+005,-1.94259204997440e+001,-2.57315048370925e+000

1.96983106135185e+005,-1.94260134504542e+001,-2.60903897080256e+000

1.99732887824256e+005,-1.94261089872347e+001,-2.64542713278626e+000

2.02521055035243e+005,-1.94262071812780e+001,-2.68232189077852e+000

2.05348143610063e+005,-1.94263081056953e+001,-2.71973026032334e+000

2.08214696870707e+005,-1.94264118355653e+001,-2.75765935262257e+000

2.11121265723661e+005,-1.94265184479851e+001,-2.79611637578313e+000

2.14068408765776e+005,-1.94266280221219e+001,-2.83510863607779e+000

2.17056692391625e+005,-1.94267406392661e+001,-2.87464353922007e+000

2.20086690902357e+005,-1.94268563828852e+001,-2.91472859165334e+000

2.23158986616063e+005,-1.94269753386795e+001,-2.95537140185534e+000

2.26274169979693e+005,-1.94270975946385e+001,-2.99657968165604e+000

2.29432839682530e+005,-1.94272232410993e+001,-3.03836124757138e+000

2.32635602771247e+005,-1.94273523708053e+001,-3.08072402215017e+000

2.35883074766574e+005,-1.94274850789672e+001,-3.12367603533744e+000

2.39175879781588e+005,-1.94276214633249e+001,-3.16722542585162e+000

2.42514650641661e+005,-1.94277616242105e+001,-3.21138044257763e+000

2.45900029006080e+005,-1.94279056646133e+001,-3.25614944597366e+000

2.49332665491357e+005,-1.94280536902456e+001,-3.30154090949496e+000

2.52813219796278e+005,-1.94282058096105e+001,-3.34756342103114e+000

2.56342360828676e+005,-1.94283621340705e+001,-3.39422568436034e+000

2.59920766833993e+005,-1.94285227779184e+001,-3.44153652061755e+000

2.63549125525621e+005,-1.94286878584485e+001,-3.48950486977993e+000

2.67228134217075e+005,-1.94288574960306e+001,-3.53813979216643e+000

2.70958499956006e+005,-1.94290318141846e+001,-3.58745046995412e+000

2.74740939660078e+005,-1.94292109396572e+001,-3.63744620870896e+000

2.78576180254757e+005,-1.94293950024996e+001,-3.68813643893511e+000

2.82464958813007e+005,-1.94295841361472e+001,-3.73953071763732e+000

2.86408022696948e+005,-1.94297784775010e+001,-3.79163872990113e+000

2.90406129701488e+005,-1.94299781670101e+001,-3.84447029049018e+000

2.94460048199957e+005,-1.94301833487563e+001,-3.89803534545630e+000

2.98570557291775e+005,-1.94303941705399e+001,-3.95234397377071e+000

3.02738446952187e+005,-1.94306107839680e+001,-4.00740638896835e+000

3.06964518184081e+005,-1.94308333445432e+001,-4.06323294081051e+000

3.11249583171928e+005,-1.94310620117550e+001,-4.11983411696360e+000

3.15594465437872e+005,-1.94312969491726e+001,-4.17722054469539e+000

3.19999999999997e+005,-1.94315383245396e+001,-4.23540299258783e+000

3.24467033532806e+005,-1.94317863098698e+001,-4.29439237226739e+000

3.28996424529938e+005,-1.94320410815454e+001,-4.35419974015246e+000

3.33589043469155e+005,-1.94323028204167e+001,-4.41483629921960e+000

3.38245772979638e+005,-1.94325717119037e+001,-4.47631340078516e+000

3.42967508011610e+005,-1.94328479460994e+001,-4.53864254630661e+000

3.47755156008335e+005,-1.94331317178744e+001,-4.60183538920128e+000

3.52609637080511e+005,-1.94334232269847e+001,-4.66590373668353e+000

3.57531884183106e+005,-1.94337226781792e+001,-4.73085955162050e+000

3.62522843294651e+005,-1.94340302813111e+001,-4.79671495440621e+000

3.67583473599047e+005,-1.94343462514501e+001,-4.86348222485443e+000

3.72714747669902e+005,-1.94346708089963e+001,-4.93117380411156e+000

3.77917651657445e+005,-1.94350041797960e+001,-4.99980229658842e+000

3.83193185478053e+005,-1.94353465952606e+001,-5.06938047191142e+000

3.88542363006410e+005,-1.94356982924850e+001,-5.13992126689502e+000

3.93966212270369e+005,-1.94360595143703e+001,-5.21143778753266e+000

3.99465775648511e+005,-1.94364305097470e+001,-5.28394331101052e+000

4.05042110070485e+005,-1.94368115335002e+001,-5.35745128774050e+000

4.10696287220124e+005,-1.94372028466973e+001,-5.43197534341611e+000

4.16429393741414e+005,-1.94376047167170e+001,-5.50752928108908e+000

4.22242531447321e+005,-1.94380174173809e+001,-5.58412708326926e+000

4.28136817531551e+005,-1.94384412290861e+001,-5.66178291404660e+000

4.34113384783250e+005,-1.94388764389411e+001,-5.74051112123674e+000

4.40173381804713e+005,-1.94393233409025e+001,-5.82032623855017e+000

4.46317973232124e+005,-1.94397822359143e+001,-5.90124298778625e+000

4.52548339959385e+005,-1.94402534320491e+001,-5.98327628105132e+000

4.58865679365059e+005,-1.94407372446518e+001,-6.06644122300284e+000

4.65271205542494e+005,-1.94412339964845e+001,-6.15075311311968e+000

4.71766149533147e+005,-1.94417440178744e+001,-6.23622744799910e+000

4.78351759563174e+005,-1.94422676468637e+001,-6.32287992368137e+000

4.85029301283321e+005,-1.94428052293612e+001,-6.41072643800270e+000

4.91800058012158e+005,-1.94433571192968e+001,-6.49978309297697e+000

4.98665330982714e+005,-1.94439236787784e+001,-6.59006619720775e+000

5.05626439592555e+005,-1.94445052782504e+001,-6.68159226833042e+000

5.12684721657352e+005,-1.94451022966557e+001,-6.77437803548631e+000

5.19841533667984e+005,-1.94457151215992e+001,-6.86844044182976e+000

5.27098251051240e+005,-1.94463441495151e+001,-6.96379664706720e+000

5.34456268434150e+005,-1.94469897858358e+001,-7.06046403003234e+000

5.41916999912011e+005,-1.94476524451643e+001,-7.15846019129551e+000

