Freq.,VOut,OutRef

1.00000000000000e+004,-6.85073918631386e+000,-1.43601299967114e-002

1.01395947979003e+004,-6.85073918642695e+000,-1.45605898537886e-002

1.02811382665607e+004,-6.85073918654333e+000,-1.47638480217855e-002

1.04246576084112e+004,-6.85073918666310e+000,-1.49699435633001e-002

1.05701804056138e+004,-6.85073918678590e+000,-1.51789160893508e-002

1.07177346253629e+004,-6.85073918691243e+000,-1.53908057572082e-002

1.08673486252606e+004,-6.85073918704227e+000,-1.56056532916824e-002

1.10190511587661e+004,-6.85073918717602e+000,-1.58234999796363e-002

1.11728713807222e+004,-6.85073918731310e+000,-1.60443876922936e-002

1.13288388529580e+004,-6.85073918745431e+000,-1.62683588752896e-002

1.14869835499703e+004,-6.85073918759979e+000,-1.64954565724875e-002

1.16473358646846e+004,-6.85073918774902e+000,-1.67257244319700e-002

1.18099266142953e+004,-6.85073918790270e+000,-1.69592067036705e-002

1.19747870461893e+004,-6.85073918806029e+000,-1.71959482630163e-002

1.21419488439505e+004,-6.85073918822258e+000,-1.74359946036568e-002

1.23114441334492e+004,-6.85073918838890e+000,-1.76793918631141e-002

1.24833054890161e+004,-6.85073918856044e+000,-1.79261868115422e-002

1.26575659397028e+004,-6.85073918873701e+000,-1.81764268805325e-002

1.28342589756290e+004,-6.85073918891808e+000,-1.84301601665038e-002

1.30134185544193e+004,-6.85073918910421e+000,-1.86874354296459e-002

1.31950791077289e+004,-6.85073918929561e+000,-1.89483021134293e-002

1.33792755478611e+004,-6.85073918949240e+000,-1.92128103518935e-002

1.35660432744767e+004,-6.85073918969491e+000,-1.94810109778570e-002

1.37554181813974e+004,-6.85073918990275e+000,-1.97529555386257e-002

1.39474366635040e+004,-6.85073919011663e+000,-2.00286962930463e-002

1.41421356237309e+004,-6.85073919033653e+000,-2.03082862351542e-002

1.43395524801583e+004,-6.85073919056261e+000,-2.05917790971664e-002

1.45397251732031e+004,-6.85073919079503e+000,-2.08792293614600e-002

1.47426921729110e+004,-6.85073919103386e+000,-2.11706922713847e-002

1.49484924863494e+004,-6.85073919127956e+000,-2.14662238395366e-002

1.51571656651040e+004,-6.85073919153171e+000,-2.17658808653094e-002

1.53687518128801e+004,-6.85073919179137e+000,-2.20697209320000e-002

1.55832915932100e+004,-6.85073919205802e+000,-2.23778024369116e-002

1.58008262372675e+004,-6.85073919233252e+000,-2.26901845831825e-002

1.60213975517924e+004,-6.85073919261454e+000,-2.30069274085723e-002

1.62450479271247e+004,-6.85073919290422e+000,-2.33280917859705e-002

1.64718203453514e+004,-6.85073919320214e+000,-2.36537394348101e-002

1.67017583885674e+004,-6.85073919350847e+000,-2.39839329388207e-002

1.69349062472505e+004,-6.85073919382323e+000,-2.43187357567047e-002

1.71713087287550e+004,-6.85073919414719e+000,-2.46582122279594e-002

1.74110112659224e+004,-6.85073919447970e+000,-2.50024275991455e-002

1.76540599258131e+004,-6.85073919482170e+000,-2.53514480178658e-002

1.79005014185594e+004,-6.85073919517353e+000,-2.57053405586217e-002

1.81503831063432e+004,-6.85073919553487e+000,-2.60641732368296e-002

1.84037530124975e+004,-6.85073919590649e+000,-2.64280150098957e-002

1.86606598307361e+004,-6.85073919628825e+000,-2.67969358042939e-002

1.89211529345119e+004,-6.85073919668113e+000,-2.71710065148187e-002

1.91852823865052e+004,-6.85073919708490e+000,-2.75502990341337e-002

1.94530989482457e+004,-6.85073919749941e+000,-2.79348862580422e-002

1.97246540898671e+004,-6.85073919792633e+000,-2.83248420878012e-002

1.99999999999999e+004,-6.85073919836471e+000,-2.87202414736534e-002

2.02791895958005e+004,-6.85073919881532e+000,-2.91211604007263e-002

2.05622765331213e+004,-6.85073919927848e+000,-2.95276759178166e-002

2.08493152168224e+004,-6.85073919975487e+000,-2.99398661469036e-002

2.11403608112276e+004,-6.85073920024409e+000,-3.03578103080091e-002

2.14354692507258e+004,-6.85073920074731e+000,-3.07815887160468e-002

2.17346972505211e+004,-6.85073920126453e+000,-3.12112828150583e-002

2.20381023175322e+004,-6.85073920179626e+000,-3.16469751831415e-002

2.23457427614443e+004,-6.85073920234271e+000,-3.20887495522203e-002

2.26576777059159e+004,-6.85073920290425e+000,-3.25366908229130e-002

2.29739670999406e+004,-6.85073920348206e+000,-3.29908850749560e-002

2.32946717293690e+004,-6.85073920407538e+000,-3.34514196030667e-002

2.36198532285905e+004,-6.85073920468535e+000,-3.39183829076798e-002

2.39495740923785e+004,-6.85073920531250e+000,-3.43918647285908e-002

2.42838976879009e+004,-6.85073920595729e+000,-3.48719560593659e-002

2.46228882668982e+004,-6.85073920661956e+000,-3.53587491669892e-002

2.49666109780322e+004,-6.85073920730058e+000,-3.58523375978647e-002

2.53151318794055e+004,-6.85073920800054e+000,-3.63528162109961e-002

2.56685179512580e+004,-6.85073920871980e+000,-3.68602811880821e-002

2.60268371088386e+004,-6.85073920945952e+000,-3.73748300490303e-002

2.63901582154578e+004,-6.85073921021949e+000,-3.78965616832866e-002

2.67585510957221e+004,-6.85073921100069e+000,-3.84255763531786e-002

2.71320865489533e+004,-6.85073921180330e+000,-3.89619757263694e-002

2.75108363627948e+004,-6.85073921262855e+000,-3.95058628818733e-002

2.78948733270080e+004,-6.85073921347661e+000,-4.00573423455220e-002

2.82842712474618e+004,-6.85073921434853e+000,-4.06165200958386e-002

2.86791049603164e+004,-6.85073921524446e+000,-4.11835035968505e-002

2.90794503464061e+004,-6.85073921616515e+000,-4.17584018090134e-002

2.94853843458219e+004,-6.85073921711151e+000,-4.23413252121890e-002

2.98969849726987e+004,-6.85073921808407e+000,-4.29323858315930e-002

3.03143313302078e+004,-6.85073921908362e+000,-4.35316972537227e-002

3.07375036257601e+004,-6.85073922011072e+000,-4.41393746530128e-002

3.11665831864199e+004,-6.85073922116649e+000,-4.47555348070392e-002

3.16016524745350e+004,-6.85073922225159e+000,-4.53802961275643e-002

3.20427951035848e+004,-6.85073922336659e+000,-4.60137786789551e-002

3.24900958542493e+004,-6.85073922451226e+000,-4.66561042008765e-002

3.29436406907028e+004,-6.85073922568983e+000,-4.73073961285014e-002

3.34035167771346e+004,-6.85073922690005e+000,-4.79677796239226e-002

3.38698124945009e+004,-6.85073922814357e+000,-4.86373815972389e-002

3.43426174575100e+004,-6.85073922942142e+000,-4.93163307266729e-002

3.48220225318448e+004,-6.85073923073449e+000,-5.00047574880266e-002

3.53081198516260e+004,-6.85073923208390e+000,-5.07027941771974e-002

3.58010028371187e+004,-6.85073923347067e+000,-5.14105749368316e-002

3.63007662126863e+004,-6.85073923489530e+000,-5.21282357857867e-002

3.68075060249948e+004,-6.85073923635948e+000,-5.28559146335980e-002

3.73213196614721e+004,-6.85073923786374e+000,-5.35937513228064e-002

3.78423058690237e+004,-6.85073923940971e+000,-5.43418876401316e-002

3.83705647730104e+004,-6.85073924099792e+000,-5.51004673591172e-002

3.89061978964912e+004,-6.85073924262978e+000,-5.58696362540965e-002

3.94493081797342e+004,-6.85073924430644e+000,-5.66495421362188e-002

3.99999999999998e+004,-6.85073924602918e+000,-5.74403348784773e-002

4.05583791916010e+004,-6.85073924779926e+000,-5.82421664465426e-002

4.11245530662425e+004,-6.85073924961788e+000,-5.90551909270934e-002

4.16986304336447e+004,-6.85073925148607e+000,-5.98795645594483e-002

4.22807216224550e+004,-6.85073925340550e+000,-6.07154457586587e-002

4.28709385014515e+004,-6.85073925537727e+000,-6.15629951549237e-002

4.34693945010421e+004,-6.85073925740292e+000,-6.24223756179707e-002

4.40762046350642e+004,-6.85073925948402e+000,-6.32937522906056e-002

4.46914855228886e+004,-6.85073926162181e+000,-6.41772926222527e-002

4.53153554118317e+004,-6.85073926381788e+000,-6.50731663981871e-002

4.59479341998812e+004,-6.85073926607361e+000,-6.59815457740010e-002

4.65893434587380e+004,-6.85073926839078e+000,-6.69026053057723e-002

4.72397064571810e+004,-6.85073927077094e+000,-6.78365219877326e-002

4.78991481847569e+004,-6.85073927321545e+000,-6.87834752856334e-002

4.85677953758016e+004,-6.85073927572653e+000,-6.97436471642238e-002

4.92457765337964e+004,-6.85073927830544e+000,-7.07172221344784e-002

4.99332219560642e+004,-6.85073928095417e+000,-7.17043872777734e-002

5.06302637588109e+004,-6.85073928367443e+000,-7.27053322882648e-002

5.13370359025159e+004,-6.85073928646809e+000,-7.37202495069887e-002

5.20536742176771e+004,-6.85073928933706e+000,-7.47493339585405e-002

5.27803164309155e+004,-6.85073929228351e+000,-7.57927833885175e-002

5.35171021914442e+004,-6.85073929530892e+000,-7.68507983063499e-002

5.42641730979066e+004,-6.85073929841572e+000,-7.79235820135489e-002

5.50216727255895e+004,-6.85073930160577e+000,-7.90113406529550e-002

5.57897466540159e+004,-6.85073930488127e+000,-8.01142832422603e-002

5.65685424949235e+004,-6.85073930824418e+000,-8.12326217175358e-002

5.73582099206328e+004,-6.85073931169703e+000,-8.23665709689910e-002

5.81589006928121e+004,-6.85073931524197e+000,-8.35163488881721e-002

5.89707686916437e+004,-6.85073931888119e+000,-8.46821764073326e-002

5.97939699453972e+004,-6.85073932261707e+000,-8.58642775404615e-002

6.06286626604156e+004,-6.85073932645215e+000,-8.70628794272103e-002

6.14750072515201e+004,-6.85073933038869e+000,-8.82782123781800e-002

6.23331663728396e+004,-6.85073933442914e+000,-8.95105099170657e-002

6.32033049490698e+004,-6.85073933857647e+000,-9.07600088227248e-002

6.40855902071694e+004,-6.85073934283268e+000,-9.20269491847687e-002

6.49801917084985e+004,-6.85073934720083e+000,-9.33115744360704e-002

6.58872813814055e+004,-6.85073935168369e+000,-9.46141314083929e-002

6.68070335542691e+004,-6.85073935628370e+000,-9.59348703798405e-002

6.77396249890018e+004,-6.85073936100365e+000,-9.72740451183879e-002

6.86852349150199e+004,-6.85073936584655e+000,-9.86319129319382e-002

6.96440450636895e+004,-6.85073937081542e+000,-1.00008734718609e-001

7.06162397032520e+004,-6.85073937591311e+000,-1.01404775017645e-001

7.16020056742374e+004,-6.85073938114235e+000,-1.02820302060499e-001

7.26015324253724e+004,-6.85073938650653e+000,-1.04255587816699e-001

7.36150120499896e+004,-6.85073939200881e+000,-1.05710908051849e-001

7.46426393229441e+004,-6.85073939765195e+000,-1.07186542381951e-001

7.56846117380472e+004,-6.85073940343937e+000,-1.08682774319664e-001

7.67411295460207e+004,-6.85073940937437e+000,-1.10199891333993e-001

7.78123957929823e+004,-6.85073941545994e+000,-1.11738184906428e-001

7.88986163594682e+004,-6.85073942169982e+000,-1.13297950580252e-001

7.99999999999995e+004,-6.85073942809703e+000,-1.14879488026217e-001

8.11167583832018e+004,-6.85073943465536e+000,-1.16483101090606e-001

8.22491061324848e+004,-6.85073944137765e+000,-1.18109097865012e-001

8.33972608672892e+004,-6.85073944826809e+000,-1.19757790729355e-001

8.45614432449099e+004,-6.85073945532974e+000,-1.21429496428963e-001

8.57418770029029e+004,-6.85073946256636e+000,-1.23124536122878e-001

8.69387890020841e+004,-6.85073946998129e+000,-1.24843235452216e-001

8.81524092701283e+004,-6.85073947757814e+000,-1.26585924598596e-001

8.93829710457770e+004,-6.85073948536077e+000,-1.28352938347898e-001

9.06307108236633e+004,-6.85073949333282e+000,-1.30144616156193e-001

9.18958683997622e+004,-6.85073950149765e+000,-1.31961302215770e-001

9.31786869174758e+004,-6.85073950985932e+000,-1.33803345515469e-001

9.44794129143618e+004,-6.85073951842090e+000,-1.35671099916638e-001

9.57982963695136e+004,-6.85073952718670e+000,-1.37564924208005e-001

9.71355907516031e+004,-6.85073953615980e+000,-1.39485182189617e-001

9.84915530675926e+004,-6.85073954534424e+000,-1.41432242728043e-001

9.98664439121282e+004,-6.85073955474344e+000,-1.43406479837961e-001

1.01260527517622e+005,-6.85073956436101e+000,-1.45408272747337e-001

1.02674071805032e+005,-6.85073957420042e+000,-1.47438005973448e-001

1.04107348435354e+005,-6.85073958426531e+000,-1.49496069392789e-001

1.05560632861831e+005,-6.85073959455916e+000,-1.51582858319166e-001

1.07034204382888e+005,-6.85073960508497e+000,-1.53698773580164e-001

1.08528346195813e+005,-6.85073961584650e+000,-1.55844221586970e-001

1.10043345451179e+005,-6.85073962684661e+000,-1.58019614421427e-001

1.11579493308032e+005,-6.85073963808856e+000,-1.60225369907358e-001

1.13137084989847e+005,-6.85073964957521e+000,-1.62461911694911e-001

1.14716419841265e+005,-6.85073966130964e+000,-1.64729669337646e-001

1.16317801385624e+005,-6.85073967329433e+000,-1.67029078379922e-001

1.17941537383287e+005,-6.85073968553190e+000,-1.69360580435246e-001

1.19587939890794e+005,-6.85073969802462e+000,-1.71724623273688e-001

1.21257325320831e+005,-6.85073971077476e+000,-1.74121660904676e-001

1.22950014503040e+005,-6.85073972378421e+000,-1.76552153666590e-001

1.24666332745679e+005,-6.85073973705450e+000,-1.79016568314151e-001

1.26406609898139e+005,-6.85073975058748e+000,-1.81515378103193e-001

1.28171180414339e+005,-6.85073976438388e+000,-1.84049062889403e-001

1.29960383416997e+005,-6.85073977844451e+000,-1.86618109213413e-001

1.31774562762811e+005,-6.85073979277017e+000,-1.89223010392479e-001

1.33614067108538e+005,-6.85073980736052e+000,-1.91864266622950e-001

1.35479249978003e+005,-6.85073982221549e+000,-1.94542385065782e-001

1.37370469830040e+005,-6.85073983733433e+000,-1.97257879949394e-001

1.39288090127379e+005,-6.85073985271567e+000,-2.00011272667204e-001

1.41232479406504e+005,-6.85073986835771e+000,-2.02803091875083e-001

1.43204011348474e+005,-6.85073988425808e+000,-2.05633873593003e-001

1.45203064850745e+005,-6.85073990041406e+000,-2.08504161306261e-001

1.47230024099979e+005,-6.85073991682188e+000,-2.11414506072068e-001

1.49285278645888e+005,-6.85073993347719e+000,-2.14365466622097e-001

1.51369223476094e+005,-6.85073995037500e+000,-2.17357609468346e-001

1.53482259092041e+005,-6.85073996750947e+000,-2.20391509012300e-001

1.55624791585964e+005,-6.85073998487379e+000,-2.23467747655027e-001

1.57797232718936e+005,-6.85074000246025e+000,-2.26586915906310e-001

1.59999999999999e+005,-6.85074002026004e+000,-2.29749612498780e-001

1.62233516766403e+005,-6.85074003826368e+000,-2.32956444498196e-001

1.64498212264969e+005,-6.85074005646002e+000,-2.36208027424441e-001

1.66794521734578e+005,-6.85074007483687e+000,-2.39504985365055e-001

1.69122886489819e+005,-6.85074009338100e+000,-2.42847951092779e-001

1.71483754005805e+005,-6.85074011207731e+000,-2.46237566190297e-001

1.73877578004168e+005,-6.85074013090934e+000,-2.49674481168340e-001

1.76304818540256e+005,-6.85074014985919e+000,-2.53159355589792e-001

1.78765942091554e+005,-6.85074016890723e+000,-2.56692858195628e-001

1.81261421647326e+005,-6.85074018803168e+000,-2.60275667033477e-001

1.83791736799524e+005,-6.85074020720918e+000,-2.63908469582895e-001

1.86357373834951e+005,-6.85074022641416e+000,-2.67591962888044e-001

1.88958825828723e+005,-6.85074024561877e+000,-2.71326853690293e-001

1.91596592739027e+005,-6.85074026479279e+000,-2.75113858561069e-001

1.94271181503206e+005,-6.85074028390362e+000,-2.78953704037976e-001

1.96983106135185e+005,-6.85074030291587e+000,-2.82847126763110e-001

1.99732887824256e+005,-6.85074032179129e+000,-2.86794873622277e-001

2.02521055035243e+005,-6.85074034048886e+000,-2.90797701885161e-001

2.05348143610063e+005,-6.85074035896385e+000,-2.94856379352851e-001

2.08214696870707e+005,-6.85074037716875e+000,-2.98971684496376e-001

2.11121265723661e+005,-6.85074039505176e+000,-3.03144406612257e-001

2.14068408765776e+005,-6.85074041255786e+000,-3.07375345964204e-001

2.17056692391625e+005,-6.85074042962745e+000,-3.11665313939844e-001

2.20086690902357e+005,-6.85074044619683e+000,-3.16015133201428e-001

2.23158986616063e+005,-6.85074046219770e+000,-3.20425637842004e-001

2.26274169979693e+005,-6.85074047755664e+000,-3.24897673544086e-001

2.29432839682530e+005,-6.85074049219551e+000,-3.29432097736104e-001

2.32635602771247e+005,-6.85074050603021e+000,-3.34029779758823e-001

2.35883074766574e+005,-6.85074051897110e+000,-3.38691601026013e-001

2.39175879781588e+005,-6.85074053092232e+000,-3.43418455191753e-001

2.42514650641661e+005,-6.85074054178146e+000,-3.48211248319368e-001

2.45900029006080e+005,-6.85074055143907e+000,-3.53070899052997e-001

2.49332665491357e+005,-6.85074055977862e+000,-3.57998338787988e-001

2.52813219796278e+005,-6.85074056667579e+000,-3.62994511848542e-001

2.56342360828676e+005,-6.85074057199792e+000,-3.68060375666123e-001

2.59920766833993e+005,-6.85074057560375e+000,-3.73196900957931e-001

2.63549125525621e+005,-6.85074057734278e+000,-3.78405071910946e-001

2.67228134217075e+005,-6.85074057705503e+000,-3.83685886365455e-001

2.70958499956006e+005,-6.85074057456985e+000,-3.89040356006279e-001

2.74740939660078e+005,-6.85074056970614e+000,-3.94469506547882e-001

2.78576180254757e+005,-6.85074056227122e+000,-3.99974377930454e-001

2.82464958813007e+005,-6.85074055206016e+000,-4.05556024516140e-001

2.86408022696948e+005,-6.85074053885538e+000,-4.11215515283981e-001

2.90406129701488e+005,-6.85074052242580e+000,-4.16953934032769e-001

2.94460048199957e+005,-6.85074050252592e+000,-4.22772379584328e-001

2.98570557291775e+005,-6.85074047889534e+000,-4.28671965988719e-001

3.02738446952187e+005,-6.85074045125768e+000,-4.34653822734024e-001

3.06964518184081e+005,-6.85074041931983e+000,-4.40719094957801e-001

3.11249583171928e+005,-6.85074038277106e+000,-4.46868943661361e-001

3.15594465437872e+005,-6.85074034128163e+000,-4.53104545929806e-001

3.19999999999997e+005,-6.85074029450257e+000,-4.59427095147855e-001

3.24467033532806e+005,-6.85074024206392e+000,-4.65837801227931e-001

3.28996424529938e+005,-6.85074018357376e+000,-4.72337890834776e-001

3.33589043469155e+005,-6.85074011861733e+000,-4.78928607614558e-001

3.38245772979638e+005,-6.85074004675559e+000,-4.85611212427912e-001

3.42967508011610e+005,-6.85073996752358e+000,-4.92386983588345e-001

3.47755156008335e+005,-6.85073988042978e+000,-4.99257217097414e-001

3.52609637080511e+005,-6.85073978495422e+000,-5.06223226889190e-001

3.57531884183106e+005,-6.85073968054683e+000,-5.13286345077478e-001

3.62522843294651e+005,-6.85073956662642e+000,-5.20447922201594e-001

3.67583473599047e+005,-6.85073944257845e+000,-5.27709327482453e-001

3.72714747669902e+005,-6.85073930775396e+000,-5.35071949074482e-001

3.77917651657445e+005,-6.85073916146707e+000,-5.42537194329576e-001

3.83193185478053e+005,-6.85073900299358e+000,-5.50106490057624e-001

3.88542363006410e+005,-6.85073883156883e+000,-5.57781282793412e-001

3.93966212270369e+005,-6.85073864638571e+000,-5.65563039067880e-001

3.99465775648511e+005,-6.85073844659245e+000,-5.73453245681656e-001

4.05042110070485e+005,-6.85073823129041e+000,-5.81453409983000e-001

4.10696287220124e+005,-6.85073799953155e+000,-5.89565060151336e-001

4.16429393741414e+005,-6.85073775031646e+000,-5.97789745480362e-001

4.22242531447321e+005,-6.85073748259115e+000,-6.06129036670255e-001

4.28136817531551e+005,-6.85073719524484e+000,-6.14584526120577e-001

4.34113384783250e+005,-6.85073688710704e+000,-6.23157828228316e-001

4.40173381804713e+005,-6.85073655694452e+000,-6.31850579691051e-001

4.46317973232124e+005,-6.85073620345844e+000,-6.40664439812493e-001

4.52548339959385e+005,-6.85073582528114e+000,-6.49601090813774e-001

4.58865679365059e+005,-6.85073542097280e+000,-6.58662238149321e-001

4.65271205542494e+005,-6.85073498901811e+000,-6.67849610826135e-001

4.71766149533147e+005,-6.85073452782240e+000,-6.77164961729314e-001

4.78351759563174e+005,-6.85073403570840e+000,-6.86610067950253e-001

4.85029301283321e+005,-6.85073351091196e+000,-6.96186731121375e-001

4.91800058012158e+005,-6.85073295157841e+000,-7.05896777753693e-001

4.98665330982714e+005,-6.85073235575786e+000,-7.15742059583816e-001

5.05626439592555e+005,-6.85073172140147e+000,-7.25724453918596e-001

5.12684721657352e+005,-6.85073104635656e+000,-7.35845863992582e-001

5.19841533667984e+005,-6.85073032836192e+000,-7.46108219326189e-001

5.27098251051240e+005,-6.85072956504336e+000,-7.56513476089111e-001

5.34456268434150e+005,-6.85072875390827e+000,-7.67063617472421e-001

5.41916999912011e+005,-6.85072789234062e+000,-7.77760654062989e-001

