Freq.,VOut,OutRef

1.00000000000000e+004,-2.61571422023610e+001,-4.48088778536793e-001

1.01395947979003e+004,-2.61571450690647e+001,-4.54343803297421e-001

1.02811382665607e+004,-2.61571480163601e+001,-4.60686142339428e-001

1.04246576084112e+004,-2.61571510465131e+001,-4.67117014412846e-001

1.05701804056138e+004,-2.61571541618529e+001,-4.73637655277394e-001

1.07177346253629e+004,-2.61571573647743e+001,-4.80249317938364e-001

1.08673486252606e+004,-2.61571606577395e+001,-4.86953272886929e-001

1.10190511587661e+004,-2.61571640432798e+001,-4.93750808344629e-001

1.11728713807222e+004,-2.61571675239975e+001,-5.00643230510472e-001

1.13288388529580e+004,-2.61571711025685e+001,-5.07631863810384e-001

1.14869835499703e+004,-2.61571747817433e+001,-5.14718051154540e-001

1.16473358646846e+004,-2.61571785643505e+001,-5.21903154191044e-001

1.18099266142953e+004,-2.61571824532974e+001,-5.29188553570985e-001

1.19747870461893e+004,-2.61571864515738e+001,-5.36575649210131e-001

1.21419488439505e+004,-2.61571905622528e+001,-5.44065860561031e-001

1.23114441334492e+004,-2.61571947884944e+001,-5.51660626882807e-001

1.24833054890161e+004,-2.61571991335471e+001,-5.59361407517576e-001

1.26575659397028e+004,-2.61572036007511e+001,-5.67169682171794e-001

1.28342589756290e+004,-2.61572081935401e+001,-5.75086951199436e-001

1.30134185544193e+004,-2.61572129154446e+001,-5.83114735888911e-001

1.31950791077289e+004,-2.61572177700940e+001,-5.91254578757294e-001

1.33792755478611e+004,-2.61572227612202e+001,-5.99508043843331e-001

1.35660432744767e+004,-2.61572278926597e+001,-6.07876717010081e-001

1.37554181813974e+004,-2.61572331683566e+001,-6.16362206248279e-001

1.39474366635040e+004,-2.61572385923666e+001,-6.24966141982847e-001

1.41421356237309e+004,-2.61572441688585e+001,-6.33690177389448e-001

1.43395524801583e+004,-2.61572499021190e+001,-6.42535988708034e-001

1.45397251732031e+004,-2.61572557965549e+001,-6.51505275566093e-001

1.47426921729110e+004,-2.61572618566969e+001,-6.60599761304913e-001

1.49484924863494e+004,-2.61572680872033e+001,-6.69821193307842e-001

1.51571656651040e+004,-2.61572744928630e+001,-6.79171343339337e-001

1.53687518128801e+004,-2.61572810785997e+001,-6.88652007879695e-001

1.55832915932100e+004,-2.61572878494755e+001,-6.98265008473529e-001

1.58008262372675e+004,-2.61572948106948e+001,-7.08012192077330e-001

1.60213975517924e+004,-2.61573019676080e+001,-7.17895431414110e-001

1.62450479271247e+004,-2.61573093257162e+001,-7.27916625331201e-001

1.64718203453514e+004,-2.61573168906750e+001,-7.38077699165464e-001

1.67017583885674e+004,-2.61573246682991e+001,-7.48380605111710e-001

1.69349062472505e+004,-2.61573326645663e+001,-7.58827322597294e-001

1.71713087287550e+004,-2.61573408856226e+001,-7.69419858661511e-001

1.74110112659224e+004,-2.61573493377869e+001,-7.80160248338714e-001

1.76540599258131e+004,-2.61573580275554e+001,-7.91050555050951e-001

1.79005014185594e+004,-2.61573669616071e+001,-8.02092870999499e-001

1.81503831063432e+004,-2.61573761468085e+001,-8.13289317570525e-001

1.84037530124975e+004,-2.61573855902194e+001,-8.24642045736080e-001

1.86606598307361e+004,-2.61573952990977e+001,-8.36153236471052e-001

1.89211529345119e+004,-2.61574052809053e+001,-8.47825101167744e-001

1.91852823865052e+004,-2.61574155433141e+001,-8.59659882059231e-001

1.94530989482457e+004,-2.61574260942113e+001,-8.71659852651332e-001

1.97246540898671e+004,-2.61574369417059e+001,-8.83827318155077e-001

1.99999999999999e+004,-2.61574480941347e+001,-8.96164615929743e-001

2.02791895958005e+004,-2.61574595600688e+001,-9.08674115929478e-001

2.05622765331213e+004,-2.61574713483203e+001,-9.21358221157184e-001

2.08493152168224e+004,-2.61574834679488e+001,-9.34219368124398e-001

2.11403608112276e+004,-2.61574959282686e+001,-9.47260027317082e-001

2.14354692507258e+004,-2.61575087388555e+001,-9.60482703669051e-001

2.17346972505211e+004,-2.61575219095548e+001,-9.73889937040263e-001

2.20381023175322e+004,-2.61575354504880e+001,-9.87484302704169e-001

2.23457427614443e+004,-2.61575493720614e+001,-1.00126841183830e+000

2.26576777059159e+004,-2.61575636849735e+001,-1.01524491202446e+000

2.29739670999406e+004,-2.61575784002235e+001,-1.02941648775597e+000

2.32946717293690e+004,-2.61575935291196e+001,-1.04378586094929e+000

2.36198532285905e+004,-2.61576090832878e+001,-1.05835579146437e+000

2.39495740923785e+004,-2.61576250746808e+001,-1.07312907763390e+000

2.42838976879009e+004,-2.61576415155870e+001,-1.08810855679591e+000

2.46228882668982e+004,-2.61576584186403e+001,-1.10329710583668e+000

2.49666109780322e+004,-2.61576757968295e+001,-1.11869764174057e+000

2.53151318794055e+004,-2.61576936635080e+001,-1.13431312214750e+000

2.56685179512580e+004,-2.61577120324049e+001,-1.15014654591650e+000

2.60268371088386e+004,-2.61577309176348e+001,-1.16620095369831e+000

2.63901582154578e+004,-2.61577503337087e+001,-1.18247942851752e+000

2.67585510957221e+004,-2.61577702955456e+001,-1.19898509635908e+000

2.71320865489533e+004,-2.61577908184832e+001,-1.21572112676622e+000

2.75108363627948e+004,-2.61578119182904e+001,-1.23269073344374e+000

2.78948733270080e+004,-2.61578336111792e+001,-1.24989717487162e+000

2.82842712474618e+004,-2.61578559138167e+001,-1.26734375492661e+000

2.86791049603164e+004,-2.61578788433383e+001,-1.28503382351227e+000

2.90794503464061e+004,-2.61579024173609e+001,-1.30297077719727e+000

2.94853843458219e+004,-2.61579266539961e+001,-1.32115805986137e+000

2.98969849726987e+004,-2.61579515718643e+001,-1.33959916335392e+000

3.03143313302078e+004,-2.61579771901090e+001,-1.35829762815715e+000

3.07375036257601e+004,-2.61580035284112e+001,-1.37725704406110e+000

3.11665831864199e+004,-2.61580306070050e+001,-1.39648105084708e+000

3.16016524745350e+004,-2.61580584466925e+001,-1.41597333897981e+000

3.20427951035848e+004,-2.61580870688601e+001,-1.43573765031039e+000

3.24900958542493e+004,-2.61581164954951e+001,-1.45577777878758e+000

3.29436406907028e+004,-2.61581467492021e+001,-1.47609757117895e+000

3.34035167771346e+004,-2.61581778532204e+001,-1.49670092780355e+000

3.38698124945009e+004,-2.61582098314421e+001,-1.51759180327092e+000

3.43426174575100e+004,-2.61582427084301e+001,-1.53877420723513e+000

3.48220225318448e+004,-2.61582765094374e+001,-1.56025220515343e+000

3.53081198516260e+004,-2.61583112604255e+001,-1.58202991906094e+000

3.58010028371187e+004,-2.61583469880853e+001,-1.60411152835056e+000

3.63007662126863e+004,-2.61583837198571e+001,-1.62650127056787e+000

3.68075060249948e+004,-2.61584214839515e+001,-1.64920344221310e+000

3.73213196614721e+004,-2.61584603093713e+001,-1.67222239955703e+000

3.78423058690237e+004,-2.61585002259333e+001,-1.69556255946643e+000

3.83705647730104e+004,-2.61585412642917e+001,-1.71922840023974e+000

3.89061978964912e+004,-2.61585834559608e+001,-1.74322446245687e+000

3.94493081797342e+004,-2.61586268333401e+001,-1.76755534983624e+000

3.99999999999998e+004,-2.61586714297381e+001,-1.79222573010878e+000

4.05583791916010e+004,-2.61587172793985e+001,-1.81724033589801e+000

4.11245530662425e+004,-2.61587644175261e+001,-1.84260396561652e+000

4.16986304336447e+004,-2.61588128803136e+001,-1.86832148437143e+000

4.22807216224550e+004,-2.61588627049698e+001,-1.89439782488426e+000

4.28709385014515e+004,-2.61589139297473e+001,-1.92083798842080e+000

4.34693945010421e+004,-2.61589665939726e+001,-1.94764704573558e+000

4.40762046350642e+004,-2.61590207380754e+001,-1.97483013802855e+000

4.46914855228886e+004,-2.61590764036199e+001,-2.00239247791238e+000

4.53153554118317e+004,-2.61591336333367e+001,-2.03033935039559e+000

4.59479341998812e+004,-2.61591924711550e+001,-2.05867611387719e+000

4.65893434587380e+004,-2.61592529622366e+001,-2.08740820115475e+000

4.72397064571810e+004,-2.61593151530103e+001,-2.11654112044603e+000

4.78991481847569e+004,-2.61593790912070e+001,-2.14608045642369e+000

4.85677953758016e+004,-2.61594448258967e+001,-2.17603187126514e+000

4.92457765337964e+004,-2.61595124075256e+001,-2.20640110571409e+000

4.99332219560642e+004,-2.61595818879548e+001,-2.23719398015674e+000

5.06302637588109e+004,-2.61596533204996e+001,-2.26841639571467e+000

5.13370359025159e+004,-2.61597267599706e+001,-2.30007433534789e+000

5.20536742176771e+004,-2.61598022627152e+001,-2.33217386497603e+000

5.27803164309155e+004,-2.61598798866607e+001,-2.36472113461155e+000

5.35171021914442e+004,-2.61599596913584e+001,-2.39772237950995e+000

5.42641730979066e+004,-2.61600417380290e+001,-2.43118392133270e+000

5.50216727255895e+004,-2.61601260896095e+001,-2.46511216932798e+000

5.57897466540159e+004,-2.61602128108009e+001,-2.49951362152440e+000

5.65685424949235e+004,-2.61603019681173e+001,-2.53439486594166e+000

5.73582099206328e+004,-2.61603936299372e+001,-2.56976258181600e+000

5.81589006928121e+004,-2.61604878665550e+001,-2.60562354084221e+000

5.89707686916437e+004,-2.61605847502346e+001,-2.64198460843097e+000

5.97939699453972e+004,-2.61606843552648e+001,-2.67885274498302e+000

6.06286626604156e+004,-2.61607867580153e+001,-2.71623500717881e+000

6.14750072515201e+004,-2.61608920369950e+001,-2.75413854928561e+000

6.23331663728396e+004,-2.61610002729117e+001,-2.79257062448069e+000

6.32033049490698e+004,-2.61611115487335e+001,-2.83153858619152e+000

6.40855902071694e+004,-2.61612259497517e+001,-2.87104988945280e+000

6.49801917084985e+004,-2.61613435636459e+001,-2.91111209228005e+000

6.58872813814055e+004,-2.61614644805500e+001,-2.95173285706336e+000

6.68070335542691e+004,-2.61615887931214e+001,-2.99291995197361e+000

6.77396249890018e+004,-2.61617165966105e+001,-3.03468125239161e+000

6.86852349150199e+004,-2.61618479889336e+001,-3.07702474235148e+000

6.96440450636895e+004,-2.61619830707469e+001,-3.11995851600350e+000

7.06162397032520e+004,-2.61621219455227e+001,-3.16349077909486e+000

7.16020056742374e+004,-2.61622647196278e+001,-3.20762985046867e+000

7.26015324253724e+004,-2.61624115024043e+001,-3.25238416358123e+000

7.36150120499896e+004,-2.61625624062524e+001,-3.29776226803787e+000

7.46426393229441e+004,-2.61627175467147e+001,-3.34377283114850e+000

7.56846117380472e+004,-2.61628770425649e+001,-3.39042463950024e+000

7.67411295460207e+004,-2.61630410158965e+001,-3.43772660055127e+000

7.78123957929823e+004,-2.61632095922153e+001,-3.48568774424173e+000

7.88986163594682e+004,-2.61633829005347e+001,-3.53431722462573e+000

7.99999999999995e+004,-2.61635610734725e+001,-3.58362432152205e+000

8.11167583832018e+004,-2.61637442473513e+001,-3.63361844218374e+000

8.22491061324848e+004,-2.61639325623012e+001,-3.68430912298921e+000

8.33972608672892e+004,-2.61641261623654e+001,-3.73570603115163e+000

8.45614432449099e+004,-2.61643251956089e+001,-3.78781896644859e+000

8.57418770029029e+004,-2.61645298142296e+001,-3.84065786297305e+000

8.69387890020841e+004,-2.61647401746731e+001,-3.89423279090281e+000

8.81524092701283e+004,-2.61649564377507e+001,-3.94855395829128e+000

8.93829710457770e+004,-2.61651787687593e+001,-4.00363171287891e+000

9.06307108236633e+004,-2.61654073376063e+001,-4.05947654392410e+000

9.18958683997622e+004,-2.61656423189371e+001,-4.11609908405588e+000

9.31786869174758e+004,-2.61658838922659e+001,-4.17351011114627e+000

9.44794129143618e+004,-2.61661322421100e+001,-4.23172055020433e+000

9.57982963695136e+004,-2.61663875581286e+001,-4.29074147529007e+000

9.71355907516031e+004,-2.61666500352642e+001,-4.35058411145095e+000

9.84915530675926e+004,-2.61669198738888e+001,-4.41125983667641e+000

9.98664439121282e+004,-2.61671972799534e+001,-4.47278018387671e+000

1.01260527517622e+005,-2.61674824651418e+001,-4.53515684288020e+000

1.02674071805032e+005,-2.61677756470285e+001,-4.59840166245362e+000

1.04107348435354e+005,-2.61680770492413e+001,-4.66252665234123e+000

1.05560632861831e+005,-2.61683869016272e+001,-4.72754398532761e+000

1.07034204382888e+005,-2.61687054404238e+001,-4.79346599931921e+000

1.08528346195813e+005,-2.61690329084351e+001,-4.86030519944802e+000

1.10043345451179e+005,-2.61693695552114e+001,-4.92807426019663e+000

1.11579493308032e+005,-2.61697156372350e+001,-4.99678602754292e+000

1.13137084989847e+005,-2.61700714181098e+001,-5.06645352112663e+000

1.14716419841265e+005,-2.61704371687567e+001,-5.13708993643681e+000

1.16317801385624e+005,-2.61708131676142e+001,-5.20870864701896e+000

1.17941537383287e+005,-2.61711997008440e+001,-5.28132320670401e+000

1.19587939890794e+005,-2.61715970625422e+001,-5.35494735185632e+000

1.21257325320831e+005,-2.61720055549560e+001,-5.42959500364388e+000

1.22950014503040e+005,-2.61724254887065e+001,-5.50528027032640e+000

1.24666332745679e+005,-2.61728571830172e+001,-5.58201744956526e+000

1.26406609898139e+005,-2.61733009659480e+001,-5.65982103075215e+000

1.28171180414339e+005,-2.61737571746365e+001,-5.73870569735769e+000

1.29960383416997e+005,-2.61742261555447e+001,-5.81868632929861e+000

1.31774562762811e+005,-2.61747082647122e+001,-5.89977800532500e+000

1.33614067108538e+005,-2.61752038680170e+001,-5.98199600542519e+000

1.35479249978003e+005,-2.61757133414417e+001,-6.06535581324994e+000

1.37370469830040e+005,-2.61762370713479e+001,-6.14987311855309e+000

1.39288090127379e+005,-2.61767754547570e+001,-6.23556381965211e+000

1.41232479406504e+005,-2.61773288996388e+001,-6.32244402590339e+000

1.43204011348474e+005,-2.61778978252066e+001,-6.41053006019609e+000

1.45203064850745e+005,-2.61784826622216e+001,-6.49983846146147e+000

1.47230024099979e+005,-2.61790838533032e+001,-6.59038598719778e+000

1.49285278645888e+005,-2.61797018532491e+001,-6.68218961601078e+000

1.51369223476094e+005,-2.61803371293623e+001,-6.77526655016916e+000

1.53482259092041e+005,-2.61809901617870e+001,-6.86963421817280e+000

1.55624791585964e+005,-2.61816614438529e+001,-6.96531027733575e+000

1.57797232718936e+005,-2.61823514824287e+001,-7.06231261638078e+000

1.59999999999999e+005,-2.61830607982840e+001,-7.16065935804630e+000

1.62233516766403e+005,-2.61837899264605e+001,-7.26036886170437e+000

1.64498212264969e+005,-2.61845394166529e+001,-7.36145972598883e+000

1.66794521734578e+005,-2.61853098335987e+001,-7.46395079143313e+000

1.69122886489819e+005,-2.61861017574784e+001,-7.56786114311575e+000

1.71483754005805e+005,-2.61869157843255e+001,-7.67321011331412e+000

1.73877578004168e+005,-2.61877525264467e+001,-7.78001728416411e+000

1.76304818540256e+005,-2.61886126128517e+001,-7.88830249032569e+000

1.78765942091554e+005,-2.61894966896955e+001,-7.99808582165164e+000

1.81261421647326e+005,-2.61904054207293e+001,-8.10938762586017e+000

1.83791736799524e+005,-2.61913394877642e+001,-8.22222851120839e+000

1.86357373834951e+005,-2.61922995911451e+001,-8.33662934916718e+000

1.88958825828723e+005,-2.61932864502370e+001,-8.45261127709381e+000

1.91596592739027e+005,-2.61943008039218e+001,-8.57019570090239e+000

1.94271181503206e+005,-2.61953434111084e+001,-8.68940429773088e+000

1.96983106135185e+005,-2.61964150512543e+001,-8.81025901860106e+000

1.99732887824256e+005,-2.61975165248990e+001,-8.93278209107241e+000

2.02521055035243e+005,-2.61986486542117e+001,-9.05699602188565e+000

2.05348143610063e+005,-2.61998122835499e+001,-9.18292359959636e+000

2.08214696870707e+005,-2.62010082800329e+001,-9.31058789719392e+000

2.11121265723661e+005,-2.62022375341269e+001,-9.44001227470748e+000

2.14068408765776e+005,-2.62035009602452e+001,-9.57122038179297e+000

2.17056692391625e+005,-2.62047994973611e+001,-9.70423616030180e+000

2.20086690902357e+005,-2.62061341096352e+001,-9.83908384682746e+000

2.23158986616063e+005,-2.62075057870570e+001,-9.97578797522839e+000

2.26274169979693e+005,-2.62089155461007e+001,-1.01143733791236e+001

2.29432839682530e+005,-2.62103644303958e+001,-1.02548651943601e+001

2.32635602771247e+005,-2.62118535114125e+001,-1.03972888614472e+001

2.35883074766574e+005,-2.62133838891624e+001,-1.05416701279579e+001

2.39175879781588e+005,-2.62149566929139e+001,-1.06880350508904e+001

2.42514650641661e+005,-2.62165730819238e+001,-1.08364099989911e+001

2.45900029006080e+005,-2.62182342461844e+001,-1.09868216550322e+001

2.49332665491357e+005,-2.62199414071858e+001,-1.11392970180431e+001

2.52813219796278e+005,-2.62216958186952e+001,-1.12938634054910e+001

2.56342360828676e+005,-2.62234987675518e+001,-1.14505484554076e+001

2.59920766833993e+005,-2.62253515744786e+001,-1.16093801284582e+001

2.63549125525621e+005,-2.62272555949100e+001,-1.17703867099487e+001

2.67228134217075e+005,-2.62292122198368e+001,-1.19335968117684e+001

2.70958499956006e+005,-2.62312228766677e+001,-1.20990393742630e+001

2.74740939660078e+005,-2.62332890301080e+001,-1.22667436680328e+001

2.78576180254757e+005,-2.62354121830548e+001,-1.24367392956551e+001

2.82464958813007e+005,-2.62375938775103e+001,-1.26090561933231e+001

2.86408022696948e+005,-2.62398356955113e+001,-1.27837246323974e+001

2.90406129701488e+005,-2.62421392600768e+001,-1.29607752208671e+001

2.94460048199957e+005,-2.62445062361726e+001,-1.31402389047133e+001

2.98570557291775e+005,-2.62469383316934e+001,-1.33221469691709e+001

3.02738446952187e+005,-2.62494372984624e+001,-1.35065310398850e+001

3.06964518184081e+005,-2.62520049332478e+001,-1.36934230839533e+001

3.11249583171928e+005,-2.62546430787976e+001,-1.38828554108519e+001

3.15594465437872e+005,-2.62573536248907e+001,-1.40748606732380e+001

3.19999999999997e+005,-2.62601385094060e+001,-1.42694718676225e+001

3.24467033532806e+005,-2.62629997194079e+001,-1.44667223349092e+001

3.28996424529938e+005,-2.62659392922497e+001,-1.46666457607913e+001

3.33589043469155e+005,-2.62689593166931e+001,-1.48692761760017e+001

3.38245772979638e+005,-2.62720619340444e+001,-1.50746479564092e+001

3.42967508011610e+005,-2.62752493393072e+001,-1.52827958229546e+001

3.47755156008335e+005,-2.62785237823518e+001,-1.54937548414193e+001

3.52609637080511e+005,-2.62818875690992e+001,-1.57075604220214e+001

3.57531884183106e+005,-2.62853430627216e+001,-1.59242483188305e+001

3.62522843294651e+005,-2.62888926848576e+001,-1.61438546289942e+001

3.67583473599047e+005,-2.62925389168424e+001,-1.63664157917711e+001

3.72714747669902e+005,-2.62962843009515e+001,-1.65919685873600e+001

3.77917651657445e+005,-2.63001314416589e+001,-1.68205501355208e+001

3.83193185478053e+005,-2.63040830069081e+001,-1.70521978939770e+001

3.88542363006410e+005,-2.63081417293952e+001,-1.72869496565945e+001

3.93966212270369e+005,-2.63123104078648e+001,-1.75248435513264e+001

3.99465775648511e+005,-2.63165919084161e+001,-1.77659180379187e+001

4.05042110070485e+005,-2.63209891658199e+001,-1.80102119053666e+001

4.10696287220124e+005,-2.63255051848446e+001,-1.82577642691148e+001

4.16429393741414e+005,-2.63301430415917e+001,-1.85086145679939e+001

4.22242531447321e+005,-2.63349058848376e+001,-1.87628025608831e+001

4.28136817531551e+005,-2.63397969373834e+001,-1.90203683230940e+001

4.34113384783250e+005,-2.63448194974092e+001,-1.92813522424641e+001

4.40173381804713e+005,-2.63499769398329e+001,-1.95457950151554e+001

4.46317973232124e+005,-2.63552727176728e+001,-1.98137376411460e+001

4.52548339959385e+005,-2.63607103634108e+001,-2.00852214194104e+001

4.58865679365059e+005,-2.63662934903571e+001,-2.03602879427789e+001

4.65271205542494e+005,-2.63720257940128e+001,-2.06389790924672e+001

4.71766149533147e+005,-2.63779110534305e+001,-2.09213370322704e+001

4.78351759563174e+005,-2.63839531325703e+001,-2.12074042024123e+001

4.85029301283321e+005,-2.63901559816498e+001,-2.14972233130432e+001

4.91800058012158e+005,-2.63965236384863e+001,-2.17908373373783e+001

4.98665330982714e+005,-2.64030602298293e+001,-2.20882895044698e+001

5.05626439592555e+005,-2.64097699726809e+001,-2.23896232916062e+001

5.12684721657352e+005,-2.64166571756026e+001,-2.26948824163311e+001

5.19841533667984e+005,-2.64237262400065e+001,-2.30041108280761e+001

5.27098251051240e+005,-2.64309816614271e+001,-2.33173526994016e+001

5.34456268434150e+005,-2.64384280307739e+001,-2.36346524168388e+001

5.41916999912011e+005,-2.64460700355594e+001,-2.39560545713296e+001

