Freq.,VOut,OutRef

1.00000000000000e+004,-1.84061813756863e+001,-2.82233003163225e-001

1.01395947979003e+004,-1.84061821789862e+001,-2.86172816125221e-001

1.02811382665607e+004,-1.84061830048695e+001,-2.90167626277313e-001

1.04246576084112e+004,-1.84061838539711e+001,-2.94218201328195e-001

1.05701804056138e+004,-1.84061847269437e+001,-2.98325319702187e-001

1.07177346253629e+004,-1.84061856244584e+001,-3.02489770690040e-001

1.08673486252606e+004,-1.84061865472052e+001,-3.06712354597772e-001

1.10190511587661e+004,-1.84061874958934e+001,-3.10993882903900e-001

1.11728713807222e+004,-1.84061884712523e+001,-3.15335178412430e-001

1.13288388529580e+004,-1.84061894740317e+001,-3.19737075412397e-001

1.14869835499703e+004,-1.84061905050024e+001,-3.24200419838321e-001

1.16473358646846e+004,-1.84061915649569e+001,-3.28726069431473e-001

1.18099266142953e+004,-1.84061926547101e+001,-3.33314893905252e-001

1.19747870461893e+004,-1.84061937750996e+001,-3.37967775113973e-001

1.21419488439505e+004,-1.84061949269868e+001,-3.42685607218643e-001

1.23114441334492e+004,-1.84061961112571e+001,-3.47469296861481e-001

1.24833054890161e+004,-1.84061973288208e+001,-3.52319763339326e-001

1.26575659397028e+004,-1.84061985806140e+001,-3.57237938780501e-001

1.28342589756290e+004,-1.84061998675989e+001,-3.62224768323065e-001

1.30134185544193e+004,-1.84062011907648e+001,-3.67281210297990e-001

1.31950791077289e+004,-1.84062025511288e+001,-3.72408236410168e-001

1.33792755478611e+004,-1.84062039497367e+001,-3.77606831929459e-001

1.35660432744767e+004,-1.84062053876635e+001,-3.82877995874570e-001

1.37554181813974e+004,-1.84062068660147e+001,-3.88222741210195e-001

1.39474366635040e+004,-1.84062083859266e+001,-3.93642095038607e-001

1.41421356237309e+004,-1.84062099485675e+001,-3.99137098797029e-001

1.43395524801583e+004,-1.84062115551387e+001,-4.04708808458285e-001

1.45397251732031e+004,-1.84062132068750e+001,-4.10358294733915e-001

1.47426921729110e+004,-1.84062149050463e+001,-4.16086643278262e-001

1.49484924863494e+004,-1.84062166509578e+001,-4.21894954899594e-001

1.51571656651040e+004,-1.84062184459516e+001,-4.27784345768908e-001

1.53687518128801e+004,-1.84062202914076e+001,-4.33755947634913e-001

1.55832915932100e+004,-1.84062221887440e+001,-4.39810908043569e-001

1.58008262372675e+004,-1.84062241394197e+001,-4.45950390554471e-001

1.60213975517924e+004,-1.84062261449339e+001,-4.52175574968261e-001

1.62450479271247e+004,-1.84062282068281e+001,-4.58487657550354e-001

1.64718203453514e+004,-1.84062303266874e+001,-4.64887851261531e-001

1.67017583885674e+004,-1.84062325061411e+001,-4.71377385991953e-001

1.69349062472505e+004,-1.84062347468646e+001,-4.77957508795346e-001

1.71713087287550e+004,-1.84062370505802e+001,-4.84629484130183e-001

1.74110112659224e+004,-1.84062394190586e+001,-4.91394594100992e-001

1.76540599258131e+004,-1.84062418541205e+001,-4.98254138705380e-001

1.79005014185594e+004,-1.84062443576375e+001,-5.05209436083971e-001

1.81503831063432e+004,-1.84062469315339e+001,-5.12261822772474e-001

1.84037530124975e+004,-1.84062495777881e+001,-5.19412653958660e-001

1.86606598307361e+004,-1.84062522984342e+001,-5.26663303742681e-001

1.89211529345119e+004,-1.84062550955632e+001,-5.34015165401045e-001

1.91852823865052e+004,-1.84062579713253e+001,-5.41469651653052e-001

1.94530989482457e+004,-1.84062609279309e+001,-5.49028194932726e-001

1.97246540898671e+004,-1.84062639676522e+001,-5.56692247664957e-001

1.99999999999999e+004,-1.84062670928259e+001,-5.64463282541249e-001

2.02791895958005e+004,-1.84062703058539e+001,-5.72342792805470e-001

2.05622765331213e+004,-1.84062736092059e+001,-5.80332292537865e-001

2.08493152168224e+004,-1.84062770054207e+001,-5.88433316948425e-001

2.11403608112276e+004,-1.84062804971087e+001,-5.96647422668628e-001

2.14354692507258e+004,-1.84062840869536e+001,-6.04976188052032e-001

2.17346972505211e+004,-1.84062877777145e+001,-6.13421213476377e-001

2.20381023175322e+004,-1.84062915722281e+001,-6.21984121650884e-001

2.23457427614443e+004,-1.84062954734109e+001,-6.30666557927729e-001

2.26576777059159e+004,-1.84062994842610e+001,-6.39470190617682e-001

2.29739670999406e+004,-1.84063036078612e+001,-6.48396711309953e-001

2.32946717293690e+004,-1.84063078473807e+001,-6.57447835196419e-001

2.36198532285905e+004,-1.84063122060778e+001,-6.66625301402030e-001

2.39495740923785e+004,-1.84063166873024e+001,-6.75930873317035e-001

2.42838976879009e+004,-1.84063212944986e+001,-6.85366338934698e-001

2.46228882668982e+004,-1.84063260312070e+001,-6.94933511197563e-001

2.49666109780322e+004,-1.84063309010681e+001,-7.04634228340467e-001

2.53151318794055e+004,-1.84063359078244e+001,-7.14470354247250e-001

2.56685179512580e+004,-1.84063410553238e+001,-7.24443778804581e-001

2.60268371088386e+004,-1.84063463475221e+001,-7.34556418267919e-001

2.63901582154578e+004,-1.84063517884864e+001,-7.44810215626692e-001

2.67585510957221e+004,-1.84063573823982e+001,-7.55207140976483e-001

2.71320865489533e+004,-1.84063631335562e+001,-7.65749191899368e-001

2.75108363627948e+004,-1.84063690463800e+001,-7.76438393843529e-001

2.78948733270080e+004,-1.84063751254136e+001,-7.87276800514126e-001

2.82842712474618e+004,-1.84063813753284e+001,-7.98266494265312e-001

2.86791049603164e+004,-1.84063878009273e+001,-8.09409586501232e-001

2.90794503464061e+004,-1.84063944071479e+001,-8.20708218078276e-001

2.94853843458219e+004,-1.84064011990667e+001,-8.32164559717137e-001

2.98969849726987e+004,-1.84064081819027e+001,-8.43780812418630e-001

3.03143313302078e+004,-1.84064153610219e+001,-8.55559207883510e-001

3.07375036257601e+004,-1.84064227419405e+001,-8.67502008943839e-001

3.11665831864199e+004,-1.84064303303302e+001,-8.79611509992471e-001

3.16016524745350e+004,-1.84064381320218e+001,-8.91890037424971e-001

3.20427951035848e+004,-1.84064461530097e+001,-9.04339950084762e-001

3.24900958542493e+004,-1.84064543994571e+001,-9.16963639715126e-001

3.29436406907028e+004,-1.84064628777002e+001,-9.29763531415755e-001

3.34035167771346e+004,-1.84064715942532e+001,-9.42742084109103e-001

3.38698124945009e+004,-1.84064805558133e+001,-9.55901791009404e-001

3.43426174575100e+004,-1.84064897692657e+001,-9.69245180103173e-001

3.48220225318448e+004,-1.84064992416891e+001,-9.82774814628206e-001

3.53081198516260e+004,-1.84065089803612e+001,-9.96493293568708e-001

3.58010028371187e+004,-1.84065189927640e+001,-1.01040325215013e+000

3.63007662126863e+004,-1.84065292865896e+001,-1.02450736234411e+000

3.68075060249948e+004,-1.84065398697462e+001,-1.03880833338069e+000

3.73213196614721e+004,-1.84065507503643e+001,-1.05330891226484e+000

3.78423058690237e+004,-1.84065619368023e+001,-1.06801188430429e+000

3.83705647730104e+004,-1.84065734376539e+001,-1.08292007363887e+000

3.89061978964912e+004,-1.84065852617538e+001,-1.09803634378463e+000

3.94493081797342e+004,-1.84065974181850e+001,-1.11336359817840e+000

3.99999999999998e+004,-1.84066099162854e+001,-1.12890478073420e+000

4.05583791916010e+004,-1.84066227656553e+001,-1.14466287640501e+000

4.11245530662425e+004,-1.84066359761645e+001,-1.16064091175525e+000

4.16986304336447e+004,-1.84066495579601e+001,-1.17684195553671e+000

4.22807216224550e+004,-1.84066635214739e+001,-1.19326911927694e+000

4.28709385014515e+004,-1.84066778774309e+001,-1.20992555787278e+000

4.34693945010421e+004,-1.84066926368568e+001,-1.22681447019252e+000

4.40762046350642e+004,-1.84067078110874e+001,-1.24393909968780e+000

4.46914855228886e+004,-1.84067234117764e+001,-1.26130273501231e+000

4.53153554118317e+004,-1.84067394509047e+001,-1.27890871065000e+000

4.59479341998812e+004,-1.84067559407899e+001,-1.29676040755114e+000

4.65893434587380e+004,-1.84067728940948e+001,-1.31486125377804e+000

4.72397064571810e+004,-1.84067903238383e+001,-1.33321472515811e+000

4.78991481847569e+004,-1.84068082434042e+001,-1.35182434594832e+000

4.85677953758016e+004,-1.84068266665523e+001,-1.37069368950644e+000

4.92457765337964e+004,-1.84068456074287e+001,-1.38982637897250e+000

4.99332219560642e+004,-1.84068650805761e+001,-1.40922608795960e+000

5.06302637588109e+004,-1.84068851009457e+001,-1.42889654125473e+000

5.13370359025159e+004,-1.84069056839083e+001,-1.44884151552673e+000

5.20536742176771e+004,-1.84069268452658e+001,-1.46906484004803e+000

5.27803164309155e+004,-1.84069486012637e+001,-1.48957039742221e+000

5.35171021914442e+004,-1.84069709686034e+001,-1.51036212432397e+000

5.42641730979066e+004,-1.84069939644547e+001,-1.53144401224855e+000

5.50216727255895e+004,-1.84070176064693e+001,-1.55282010827161e+000

5.57897466540159e+004,-1.84070419127942e+001,-1.57449451581858e+000

5.65685424949235e+004,-1.84070669020852e+001,-1.59647139544499e+000

5.73582099206328e+004,-1.84070925935216e+001,-1.61875496562910e+000

5.81589006928121e+004,-1.84071190068208e+001,-1.64134950357161e+000

5.89707686916437e+004,-1.84071461622529e+001,-1.66425934601056e+000

5.97939699453972e+004,-1.84071740806569e+001,-1.68748889004299e+000

6.06286626604156e+004,-1.84072027834559e+001,-1.71104259396241e+000

6.14750072515201e+004,-1.84072322926739e+001,-1.73492497810351e+000

6.23331663728396e+004,-1.84072626309526e+001,-1.75914062570045e+000

6.32033049490698e+004,-1.84072938215682e+001,-1.78369418375601e+000

6.40855902071694e+004,-1.84073258884498e+001,-1.80859036392398e+000

6.49801917084985e+004,-1.84073588561972e+001,-1.83383394340150e+000

6.58872813814055e+004,-1.84073927500998e+001,-1.85942976583421e+000

6.68070335542691e+004,-1.84074275961558e+001,-1.88538274223437e+000

6.77396249890018e+004,-1.84074634210922e+001,-1.91169785191012e+000

6.86852349150199e+004,-1.84075002523848e+001,-1.93838014340870e+000

6.96440450636895e+004,-1.84075381182795e+001,-1.96543473547098e+000

7.06162397032520e+004,-1.84075770478138e+001,-1.99286681799897e+000

7.16020056742374e+004,-1.84076170708384e+001,-2.02068165303835e+000

7.26015324253724e+004,-1.84076582180405e+001,-2.04888457577149e+000

7.36150120499896e+004,-1.84077005209669e+001,-2.07748099552517e+000

7.46426393229441e+004,-1.84077440120479e+001,-2.10647639679080e+000

7.56846117380472e+004,-1.84077887246220e+001,-2.13587634026160e+000

7.67411295460207e+004,-1.84078346929614e+001,-2.16568646387794e+000

7.78123957929823e+004,-1.84078819522980e+001,-2.19591248389200e+000

7.88986163594682e+004,-1.84079305388499e+001,-2.22656019594361e+000

7.99999999999995e+004,-1.84079804898491e+001,-2.25763547615143e+000

8.11167583832018e+004,-1.84080318435699e+001,-2.28914428221793e+000

8.22491061324848e+004,-1.84080846393575e+001,-2.32109265455102e+000

8.33972608672892e+004,-1.84081389176583e+001,-2.35348671739705e+000

8.45614432449099e+004,-1.84081947200504e+001,-2.38633267999277e+000

8.57418770029029e+004,-1.84082520892749e+001,-2.41963683772948e+000

8.69387890020841e+004,-1.84083110692686e+001,-2.45340557333386e+000

8.81524092701283e+004,-1.84083717051972e+001,-2.48764535806406e+000

8.93829710457770e+004,-1.84084340434891e+001,-2.52236275292282e+000

9.06307108236633e+004,-1.84084981318712e+001,-2.55756440988356e+000

9.18958683997622e+004,-1.84085640194044e+001,-2.59325707313506e+000

9.31786869174758e+004,-1.84086317565209e+001,-2.62944758034280e+000

9.44794129143618e+004,-1.84087013950625e+001,-2.66614286392369e+000

9.57982963695136e+004,-1.84087729883193e+001,-2.70334995234074e+000

9.71355907516031e+004,-1.84088465910705e+001,-2.74107597141288e+000

9.84915530675926e+004,-1.84089222596250e+001,-2.77932814564278e+000

9.98664439121282e+004,-1.84090000518647e+001,-2.81811379955965e+000

1.01260527517622e+005,-1.84090800272872e+001,-2.85744035908255e+000

1.02674071805032e+005,-1.84091622470515e+001,-2.89731535289930e+000

1.04107348435354e+005,-1.84092467740234e+001,-2.93774641386284e+000

1.05560632861831e+005,-1.84093336728231e+001,-2.97874128040766e+000

1.07034204382888e+005,-1.84094230098735e+001,-3.02030779798197e+000

1.08528346195813e+005,-1.84095148534506e+001,-3.06245392049867e+000

1.10043345451179e+005,-1.84096092737343e+001,-3.10518771180722e+000

1.11579493308032e+005,-1.84097063428611e+001,-3.14851734718016e+000

1.13137084989847e+005,-1.84098061349786e+001,-3.19245111482207e+000

1.14716419841265e+005,-1.84099087263006e+001,-3.23699741739569e+000

1.16317801385624e+005,-1.84100141951643e+001,-3.28216477356776e+000

1.17941537383287e+005,-1.84101226220891e+001,-3.32796181957420e+000

1.19587939890794e+005,-1.84102340898367e+001,-3.37439731080486e+000

1.21257325320831e+005,-1.84103486834726e+001,-3.42148012340900e+000

1.22950014503040e+005,-1.84104664904304e+001,-3.46921925591871e+000

1.24666332745679e+005,-1.84105876005760e+001,-3.51762383089459e+000

1.26406609898139e+005,-1.84107121062756e+001,-3.56670309659036e+000

1.28171180414339e+005,-1.84108401024635e+001,-3.61646642863918e+000

1.29960383416997e+005,-1.84109716867136e+001,-3.66692333175889e+000

1.31774562762811e+005,-1.84111069593115e+001,-3.71808344148031e+000

1.33614067108538e+005,-1.84112460233286e+001,-3.76995652589456e+000

1.35479249978003e+005,-1.84113889846996e+001,-3.82255248742338e+000

1.37370469830040e+005,-1.84115359523000e+001,-3.87588136460861e+000

1.39288090127379e+005,-1.84116870380273e+001,-3.92995333392602e+000

1.41232479406504e+005,-1.84118423568835e+001,-3.98477871161806e+000

1.43204011348474e+005,-1.84120020270602e+001,-4.04036795555072e+000

1.45203064850745e+005,-1.84121661700258e+001,-4.09673166709037e+000

1.47230024099979e+005,-1.84123349106151e+001,-4.15388059300515e+000

1.49285278645888e+005,-1.84125083771210e+001,-4.21182562738560e+000

1.51369223476094e+005,-1.84126867013893e+001,-4.27057781359091e+000

1.53482259092041e+005,-1.84128700189151e+001,-4.33014834621593e+000

1.55624791585964e+005,-1.84130584689425e+001,-4.39054857308088e+000

1.57797232718936e+005,-1.84132521945666e+001,-4.45178999724430e+000

1.59999999999999e+005,-1.84134513428379e+001,-4.51388427904032e+000

1.62233516766403e+005,-1.84136560648703e+001,-4.57684323813550e+000

1.64498212264969e+005,-1.84138665159510e+001,-4.64067885561309e+000

1.66794521734578e+005,-1.84140828556538e+001,-4.70540327607768e+000

1.69122886489819e+005,-1.84143052479551e+001,-4.77102880978440e+000

1.71483754005805e+005,-1.84145338613531e+001,-4.83756793479155e+000

1.73877578004168e+005,-1.84147688689903e+001,-4.90503329913676e+000

1.76304818540256e+005,-1.84150104487785e+001,-4.97343772303667e+000

1.78765942091554e+005,-1.84152587835276e+001,-5.04279420111065e+000

1.81261421647326e+005,-1.84155140610775e+001,-5.11311590462871e+000

1.83791736799524e+005,-1.84157764744339e+001,-5.18441618378160e+000

1.86357373834951e+005,-1.84160462219065e+001,-5.25670856997733e+000

1.88958825828723e+005,-1.84163235072518e+001,-5.33000677815972e+000

1.91596592739027e+005,-1.84166085398190e+001,-5.40432470915161e+000

1.94271181503206e+005,-1.84169015347001e+001,-5.47967645202223e+000

1.96983106135185e+005,-1.84172027128828e+001,-5.55607628647811e+000

1.99732887824256e+005,-1.84175123014087e+001,-5.63353868527869e+000

2.02521055035243e+005,-1.84178305335343e+001,-5.71207831667501e+000

2.05348143610063e+005,-1.84181576488965e+001,-5.79171004687307e+000

2.08214696870707e+005,-1.84184938936826e+001,-5.87244894252128e+000

2.11121265723661e+005,-1.84188395208039e+001,-5.95431027322028e+000

2.14068408765776e+005,-1.84191947900742e+001,-6.03730951405849e+000

2.17056692391625e+005,-1.84195599683924e+001,-6.12146234817062e+000

2.20086690902357e+005,-1.84199353299295e+001,-6.20678466931869e+000

2.23158986616063e+005,-1.84203211563211e+001,-6.29329258449825e+000

2.26274169979693e+005,-1.84207177368633e+001,-6.38100241656675e+000

2.29432839682530e+005,-1.84211253687144e+001,-6.46993070689612e+000

2.32635602771247e+005,-1.84215443571013e+001,-6.56009421804687e+000

2.35883074766574e+005,-1.84219750155308e+001,-6.65150993646684e+000

2.39175879781588e+005,-1.84224176660062e+001,-6.74419507521116e+000

2.42514650641661e+005,-1.84228726392486e+001,-6.83816707668562e+000

2.45900029006080e+005,-1.84233402749245e+001,-6.93344361541149e+000

2.49332665491357e+005,-1.84238209218779e+001,-7.03004260081260e+000

2.52813219796278e+005,-1.84243149383685e+001,-7.12798218002482e+000

2.56342360828676e+005,-1.84248226923153e+001,-7.22728074072487e+000

2.59920766833993e+005,-1.84253445615463e+001,-7.32795691398260e+000

2.63549125525621e+005,-1.84258809340535e+001,-7.43002957713209e+000

2.67228134217075e+005,-1.84264322082541e+001,-7.53351785666402e+000

2.70958499956006e+005,-1.84269987932584e+001,-7.63844113113794e+000

2.74740939660078e+005,-1.84275811091429e+001,-7.74481903411308e+000

2.78576180254757e+005,-1.84281795872302e+001,-7.85267145709972e+000

2.82464958813007e+005,-1.84287946703757e+001,-7.96201855252797e+000

2.86408022696948e+005,-1.84294268132599e+001,-8.07288073673481e+000

2.90406129701488e+005,-1.84300764826881e+001,-8.18527869296940e+000

2.94460048199957e+005,-1.84307441578967e+001,-8.29923337441449e+000

2.98570557291775e+005,-1.84314303308661e+001,-8.41476600722521e+000

3.02738446952187e+005,-1.84321355066410e+001,-8.53189809358260e+000

3.06964518184081e+005,-1.84328602036569e+001,-8.65065141476328e+000

3.11249583171928e+005,-1.84336049540753e+001,-8.77104803422312e+000

3.15594465437872e+005,-1.84343703041247e+001,-8.89311030069522e+000

3.19999999999997e+005,-1.84351568144496e+001,-9.01686085130045e+000

3.24467033532806e+005,-1.84359650604676e+001,-9.14232261467044e+000

3.28996424529938e+005,-1.84367956327329e+001,-9.26951881408281e+000

3.33589043469155e+005,-1.84376491373089e+001,-9.39847297060642e+000

3.38245772979638e+005,-1.84385261961474e+001,-9.52920890625617e+000

3.42967508011610e+005,-1.84394274474766e+001,-9.66175074715813e+000

3.47755156008335e+005,-1.84403535461968e+001,-9.79612292672157e+000

3.52609637080511e+005,-1.84413051642842e+001,-9.93235018881837e+000

3.57531884183106e+005,-1.84422829912034e+001,-1.00704575909689e+001

3.62522843294651e+005,-1.84432877343277e+001,-1.02104705075327e+001

3.67583473599047e+005,-1.84443201193679e+001,-1.03524146329030e+001

3.72714747669902e+005,-1.84453808908104e+001,-1.04963159847048e+001

3.77917651657445e+005,-1.84464708123626e+001,-1.06422009069943e+001

3.83193185478053e+005,-1.84475906674085e+001,-1.07900960734587e+001

3.88542363006410e+005,-1.84487412594720e+001,-1.09400284906160e+001

3.93966212270369e+005,-1.84499234126899e+001,-1.10920255010127e+001

3.99465775648511e+005,-1.84511379722932e+001,-1.12461147864186e+001

4.05042110070485e+005,-1.84523858050979e+001,-1.14023243710166e+001

4.10696287220124e+005,-1.84536678000051e+001,-1.15606826245871e+001

4.16429393741414e+005,-1.84549848685097e+001,-1.17212182656852e+001

4.22242531447321e+005,-1.84563379452193e+001,-1.18839603648097e+001

4.28136817531551e+005,-1.84577279883816e+001,-1.20489383475604e+001

4.34113384783250e+005,-1.84591559804219e+001,-1.22161819977861e+001

4.40173381804713e+005,-1.84606229284897e+001,-1.23857214607168e+001

4.46317973232124e+005,-1.84621298650151e+001,-1.25575872460837e+001

4.52548339959385e+005,-1.84636778482749e+001,-1.27318102312203e+001

4.58865679365059e+005,-1.84652679629680e+001,-1.29084216641470e+001

4.65271205542494e+005,-1.84669013208013e+001,-1.30874531666351e+001

4.71766149533147e+005,-1.84685790610841e+001,-1.32689367372494e+001

4.78351759563174e+005,-1.84703023513339e+001,-1.34529047543664e+001

4.85029301283321e+005,-1.84720723878913e+001,-1.36393899791688e+001

4.91800058012158e+005,-1.84738903965441e+001,-1.38284255586106e+001

4.98665330982714e+005,-1.84757576331632e+001,-1.40200450283547e+001

5.05626439592555e+005,-1.84776753843463e+001,-1.42142823156776e+001

5.12684721657352e+005,-1.84796449680738e+001,-1.44111717423418e+001

5.19841533667984e+005,-1.84816677343728e+001,-1.46107480274319e+001

5.27098251051240e+005,-1.84837450659927e+001,-1.48130462901527e+001

5.34456268434150e+005,-1.84858783790897e+001,-1.50181020525881e+001

5.41916999912011e+005,-1.84880691239225e+001,-1.52259512424164e+001

