Freq.,VOut,OutRef

1.00000000000000e+004,-1.90337138230333e+001,-1.99000517159464e-001

1.01395947979003e+004,-1.90337142929651e+001,-2.01778453362348e-001

1.02811382665607e+004,-1.90337147761081e+001,-2.04595167791826e-001

1.04246576084112e+004,-1.90337152728340e+001,-2.07451201756780e-001

1.05701804056138e+004,-1.90337157835243e+001,-2.10347104124826e-001

1.07177346253629e+004,-1.90337163085717e+001,-2.13283431422936e-001

1.08673486252606e+004,-1.90337168483799e+001,-2.16260747946455e-001

1.10190511587661e+004,-1.90337174033638e+001,-2.19279625868305e-001

1.11728713807222e+004,-1.90337179739499e+001,-2.22340645347121e-001

1.13288388529580e+004,-1.90337185605770e+001,-2.25444394639554e-001

1.14869835499703e+004,-1.90337191636960e+001,-2.28591470213926e-001

1.16473358646846e+004,-1.90337197837706e+001,-2.31782476862624e-001

1.18099266142953e+004,-1.90337204212773e+001,-2.35018027822128e-001

1.19747870461893e+004,-1.90337210767063e+001,-2.38298744886973e-001

1.21419488439505e+004,-1.90337217505612e+001,-2.41625258531529e-001

1.23114441334492e+004,-1.90337224433602e+001,-2.44998208029676e-001

1.24833054890161e+004,-1.90337231556358e+001,-2.48418241578646e-001

1.26575659397028e+004,-1.90337238879356e+001,-2.51886016422522e-001

1.28342589756290e+004,-1.90337246408225e+001,-2.55402198980376e-001

1.30134185544193e+004,-1.90337254148751e+001,-2.58967464971888e-001

1.31950791077289e+004,-1.90337262106885e+001,-2.62582499549987e-001

1.33792755478611e+004,-1.90337270288744e+001,-2.66247997428399e-001

1.35660432744767e+004,-1.90337278700620e+001,-2.69964663018447e-001

1.37554181813974e+004,-1.90337287348975e+001,-2.73733210565811e-001

1.39474366635040e+004,-1.90337296240459e+001,-2.77554364281268e-001

1.41421356237309e+004,-1.90337305381907e+001,-2.81428858486851e-001

1.43395524801583e+004,-1.90337314780344e+001,-2.85357437752362e-001

1.45397251732031e+004,-1.90337324442996e+001,-2.89340857041345e-001

1.47426921729110e+004,-1.90337334377290e+001,-2.93379881852775e-001

1.49484924863494e+004,-1.90337344590862e+001,-2.97475288370976e-001

1.51571656651040e+004,-1.90337355091564e+001,-3.01627863614184e-001

1.53687518128801e+004,-1.90337365887465e+001,-3.05838405584956e-001

1.55832915932100e+004,-1.90337376986867e+001,-3.10107723422787e-001

1.58008262372675e+004,-1.90337388398299e+001,-3.14436637561244e-001

1.60213975517924e+004,-1.90337400130533e+001,-3.18825979885413e-001

1.62450479271247e+004,-1.90337412192586e+001,-3.23276593889979e-001

1.64718203453514e+004,-1.90337424593733e+001,-3.27789334841392e-001

1.67017583885674e+004,-1.90337437343502e+001,-3.32365069945184e-001

1.69349062472505e+004,-1.90337450451695e+001,-3.37004678508824e-001

1.71713087287550e+004,-1.90337463928388e+001,-3.41709052111727e-001

1.74110112659224e+004,-1.90337477783937e+001,-3.46479094777806e-001

1.76540599258131e+004,-1.90337492028996e+001,-3.51315723146138e-001

1.79005014185594e+004,-1.90337506674510e+001,-3.56219866651842e-001

1.81503831063432e+004,-1.90337521731738e+001,-3.61192467698900e-001

1.84037530124975e+004,-1.90337537212254e+001,-3.66234481844268e-001

1.86606598307361e+004,-1.90337553127954e+001,-3.71346877981846e-001

1.89211529345119e+004,-1.90337569491074e+001,-3.76530638526489e-001

1.91852823865052e+004,-1.90337586314188e+001,-3.81786759604107e-001

1.94530989482457e+004,-1.90337603610227e+001,-3.87116251243033e-001

1.97246540898671e+004,-1.90337621392486e+001,-3.92520137565436e-001

1.99999999999999e+004,-1.90337639674631e+001,-3.97999456987374e-001

2.02791895958005e+004,-1.90337658470715e+001,-4.03555262416211e-001

2.05622765331213e+004,-1.90337677795182e+001,-4.09188621453479e-001

2.08493152168224e+004,-1.90337697662884e+001,-4.14900616599377e-001

2.11403608112276e+004,-1.90337718089094e+001,-4.20692345459387e-001

2.14354692507258e+004,-1.90337739089509e+001,-4.26564920958024e-001

2.17346972505211e+004,-1.90337760680268e+001,-4.32519471549648e-001

2.20381023175322e+004,-1.90337782877964e+001,-4.38557141437232e-001

2.23457427614443e+004,-1.90337805699661e+001,-4.44679090788119e-001

2.26576777059159e+004,-1.90337829162894e+001,-4.50886495962436e-001

2.29739670999406e+004,-1.90337853285698e+001,-4.57180549733460e-001

2.32946717293690e+004,-1.90337878086610e+001,-4.63562461520910e-001

2.36198532285905e+004,-1.90337903584692e+001,-4.70033457619296e-001

2.39495740923785e+004,-1.90337929799537e+001,-4.76594781435512e-001

2.42838976879009e+004,-1.90337956751293e+001,-4.83247693726860e-001

2.46228882668982e+004,-1.90337984460672e+001,-4.89993472842916e-001

2.49666109780322e+004,-1.90338012948969e+001,-4.96833414970630e-001

2.53151318794055e+004,-1.90338042238075e+001,-5.03768834383160e-001

2.56685179512580e+004,-1.90338072350499e+001,-5.10801063692327e-001

2.60268371088386e+004,-1.90338103309380e+001,-5.17931454103818e-001

2.63901582154578e+004,-1.90338135138510e+001,-5.25161375676564e-001

2.67585510957221e+004,-1.90338167862348e+001,-5.32492217584644e-001

2.71320865489533e+004,-1.90338201506039e+001,-5.39925388386572e-001

2.75108363627948e+004,-1.90338236095437e+001,-5.47462316291355e-001

2.78948733270080e+004,-1.90338271657120e+001,-5.55104449435898e-001

2.82842712474618e+004,-1.90338308218413e+001,-5.62853256161193e-001

2.86791049603164e+004,-1.90338345807411e+001,-5.70710225293710e-001

2.90794503464061e+004,-1.90338384452998e+001,-5.78676866430364e-001

2.94853843458219e+004,-1.90338424184866e+001,-5.86754710231223e-001

2.98969849726987e+004,-1.90338465033544e+001,-5.94945308708146e-001

3.03143313302078e+004,-1.90338507030419e+001,-6.03250235526613e-001

3.07375036257601e+004,-1.90338550207758e+001,-6.11671086304428e-001

3.11665831864199e+004,-1.90338594598736e+001,-6.20209478918833e-001

3.16016524745350e+004,-1.90338640237458e+001,-6.28867053817070e-001

3.20427951035848e+004,-1.90338687158990e+001,-6.37645474329431e-001

3.24900958542493e+004,-1.90338735399381e+001,-6.46546426989372e-001

3.29436406907028e+004,-1.90338784995692e+001,-6.55571621856150e-001

3.34035167771346e+004,-1.90338835986027e+001,-6.64722792842415e-001

3.38698124945009e+004,-1.90338888409558e+001,-6.74001698046095e-001

3.43426174575100e+004,-1.90338942306559e+001,-6.83410120088042e-001

3.48220225318448e+004,-1.90338997718435e+001,-6.92949866452817e-001

3.53081198516260e+004,-1.90339054687753e+001,-7.02622769836228e-001

3.58010028371187e+004,-1.90339113258276e+001,-7.12430688493322e-001

3.63007662126863e+004,-1.90339173474997e+001,-7.22375506597934e-001

3.68075060249948e+004,-1.90339235384171e+001,-7.32459134600914e-001

3.73213196614721e+004,-1.90339299033351e+001,-7.42683509598091e-001

3.78423058690237e+004,-1.90339364471429e+001,-7.53050595698165e-001

3.83705647730104e+004,-1.90339431748667e+001,-7.63562384401592e-001

3.89061978964912e+004,-1.90339500916740e+001,-7.74220894979640e-001

3.94493081797342e+004,-1.90339572028772e+001,-7.85028174862855e-001

3.99999999999998e+004,-1.90339645139381e+001,-7.95986300031858e-001

4.05583791916010e+004,-1.90339720304717e+001,-8.07097375413387e-001

4.11245530662425e+004,-1.90339797582506e+001,-8.18363535285356e-001

4.16986304336447e+004,-1.90339877032096e+001,-8.29786943683333e-001

4.22807216224550e+004,-1.90339958714501e+001,-8.41369794815521e-001

4.28709385014515e+004,-1.90340042692447e+001,-8.53114313481331e-001

4.34693945010421e+004,-1.90340129030421e+001,-8.65022755498743e-001

4.40762046350642e+004,-1.90340217794721e+001,-8.77097408132680e-001

4.46914855228886e+004,-1.90340309053505e+001,-8.89340590535229e-001

4.53153554118317e+004,-1.90340402876845e+001,-9.01754654187087e-001

4.59479341998812e+004,-1.90340499336778e+001,-9.14341983347260e-001

4.65893434587380e+004,-1.90340598507364e+001,-9.27104995509608e-001

4.72397064571810e+004,-1.90340700464743e+001,-9.40046141862804e-001

4.78991481847569e+004,-1.90340805287187e+001,-9.53167907760956e-001

4.85677953758016e+004,-1.90340913055169e+001,-9.66472813196200e-001

4.92457765337964e+004,-1.90341023851418e+001,-9.79963413280626e-001

4.99332219560642e+004,-1.90341137760985e+001,-9.93642298734955e-001

5.06302637588109e+004,-1.90341254871307e+001,-1.00751209638152e+000

5.13370359025159e+004,-1.90341375272273e+001,-1.02157546964648e+000

5.20536742176771e+004,-1.90341499056295e+001,-1.03583511906904e+000

5.27803164309155e+004,-1.90341626318377e+001,-1.05029378281340e+000

5.35171021914442e+004,-1.90341757156187e+001,-1.06495423719521e+000

5.42641730979066e+004,-1.90341891670134e+001,-1.07981929720682e+000

5.50216727255895e+004,-1.90342029963441e+001,-1.09489181705830e+000

5.57897466540159e+004,-1.90342172142228e+001,-1.11017469071700e+000

5.65685424949235e+004,-1.90342318315590e+001,-1.12567085246224e+000

5.73582099206328e+004,-1.90342468595680e+001,-1.14138327744380e+000

5.81589006928121e+004,-1.90342623097796e+001,-1.15731498224700e+000

5.89707686916437e+004,-1.90342781940472e+001,-1.17346902546872e+000

5.97939699453972e+004,-1.90342945245559e+001,-1.18984850829932e+000

6.06286626604156e+004,-1.90343113138329e+001,-1.20645657511221e+000

6.14750072515201e+004,-1.90343285747561e+001,-1.22329641406354e+000

6.23331663728396e+004,-1.90343463205646e+001,-1.24037125769679e+000

6.32033049490698e+004,-1.90343645648686e+001,-1.25768438355858e+000

6.40855902071694e+004,-1.90343833216593e+001,-1.27523911482269e+000

6.49801917084985e+004,-1.90344026053204e+001,-1.29303882091920e+000

6.58872813814055e+004,-1.90344224306383e+001,-1.31108691817599e+000

6.68070335542691e+004,-1.90344428128135e+001,-1.32938687046925e+000

6.77396249890018e+004,-1.90344637674728e+001,-1.34794218987720e+000

6.86852349150199e+004,-1.90344853106802e+001,-1.36675643735108e+000

6.96440450636895e+004,-1.90345074589499e+001,-1.38583322338692e+000

7.06162397032520e+004,-1.90345302292582e+001,-1.40517620871347e+000

7.16020056742374e+004,-1.90345536390571e+001,-1.42478910498433e+000

7.26015324253724e+004,-1.90345777062870e+001,-1.44467567548209e+000

7.36150120499896e+004,-1.90346024493904e+001,-1.46483973583145e+000

7.46426393229441e+004,-1.90346278873264e+001,-1.48528515472064e+000

7.56846117380472e+004,-1.90346540395843e+001,-1.50601585463593e+000

7.67411295460207e+004,-1.90346809261989e+001,-1.52703581260178e+000

7.78123957929823e+004,-1.90347085677656e+001,-1.54834906093416e+000

7.88986163594682e+004,-1.90347369854560e+001,-1.56995968800252e+000

7.99999999999995e+004,-1.90347662010337e+001,-1.59187183900292e+000

8.11167583832018e+004,-1.90347962368712e+001,-1.61408971673927e+000

8.22491061324848e+004,-1.90348271159665e+001,-1.63661758241941e+000

8.33972608672892e+004,-1.90348588619607e+001,-1.65945975645672e+000

8.45614432449099e+004,-1.90348914991558e+001,-1.68262061928651e+000

8.57418770029029e+004,-1.90349250525328e+001,-1.70610461219112e+000

8.69387890020841e+004,-1.90349595477712e+001,-1.72991623813651e+000

8.81524092701283e+004,-1.90349950112677e+001,-1.75406006262093e+000

8.93829710457770e+004,-1.90350314701567e+001,-1.77854071453250e+000

9.06307108236633e+004,-1.90350689523303e+001,-1.80336288702202e+000

9.18958683997622e+004,-1.90351074864597e+001,-1.82853133838297e+000

9.31786869174758e+004,-1.90351471020165e+001,-1.85405089294736e+000

9.44794129143618e+004,-1.90351878292953e+001,-1.87992644198897e+000

9.57982963695136e+004,-1.90352296994358e+001,-1.90616294464384e+000

9.71355907516031e+004,-1.90352727444471e+001,-1.93276542883738e+000

9.84915530675926e+004,-1.90353169972311e+001,-1.95973899222854e+000

9.98664439121282e+004,-1.90353624916075e+001,-1.98708880316267e+000

1.01260527517622e+005,-1.90354092623391e+001,-2.01482010163933e+000

1.02674071805032e+005,-1.90354573451580e+001,-2.04293820029180e+000

1.04107348435354e+005,-1.90355067767923e+001,-2.07144848537853e+000

1.05560632861831e+005,-1.90355575949936e+001,-2.10035641779033e+000

1.07034204382888e+005,-1.90356098385653e+001,-2.12966753406720e+000

1.08528346195813e+005,-1.90356635473917e+001,-2.15938744743137e+000

1.10043345451179e+005,-1.90357187624677e+001,-2.18952184883170e+000

1.11579493308032e+005,-1.90357755259294e+001,-2.22007650800257e+000

1.13137084989847e+005,-1.90358338810860e+001,-2.25105727453626e+000

1.14716419841265e+005,-1.90358938724512e+001,-2.28247007896953e+000

1.16317801385624e+005,-1.90359555457775e+001,-2.31432093388333e+000

1.17941537383287e+005,-1.90360189480893e+001,-2.34661593501789e+000

1.19587939890794e+005,-1.90360841277182e+001,-2.37936126240084e+000

1.21257325320831e+005,-1.90361511343394e+001,-2.41256318149062e+000

1.22950014503040e+005,-1.90362200190078e+001,-2.44622804433397e+000

1.24666332745679e+005,-1.90362908341965e+001,-2.48036229073824e+000

1.26406609898139e+005,-1.90363636338352e+001,-2.51497244945962e+000

1.28171180414339e+005,-1.90364384733508e+001,-2.55006513940411e+000

1.29960383416997e+005,-1.90365154097075e+001,-2.58564707084664e+000

1.31774562762811e+005,-1.90365945014498e+001,-2.62172504666226e+000

1.33614067108538e+005,-1.90366758087448e+001,-2.65830596357591e+000

1.35479249978003e+005,-1.90367593934275e+001,-2.69539681342547e+000

1.37370469830040e+005,-1.90368453190456e+001,-2.73300468444242e+000

1.39288090127379e+005,-1.90369336509065e+001,-2.77113676254605e+000

1.41232479406504e+005,-1.90370244561253e+001,-2.80980033265710e+000

1.43204011348474e+005,-1.90371178036742e+001,-2.84900278002434e+000

1.45203064850745e+005,-1.90372137644326e+001,-2.88875159156920e+000

1.47230024099979e+005,-1.90373124112393e+001,-2.92905435724691e+000

1.49285278645888e+005,-1.90374138189457e+001,-2.96991877142343e+000

1.51369223476094e+005,-1.90375180644704e+001,-3.01135263427024e+000

1.53482259092041e+005,-1.90376252268551e+001,-3.05336385317535e+000

1.55624791585964e+005,-1.90377353873224e+001,-3.09596044417125e+000

1.57797232718936e+005,-1.90378486293344e+001,-3.13915053338079e+000

1.59999999999999e+005,-1.90379650386540e+001,-3.18294235847935e+000

1.62233516766403e+005,-1.90380847034059e+001,-3.22734427017612e+000

1.64498212264969e+005,-1.90382077141414e+001,-3.27236473371083e+000

1.66794521734578e+005,-1.90383341639030e+001,-3.31801233037003e+000

1.69122886489819e+005,-1.90384641482922e+001,-3.36429575902015e+000

1.71483754005805e+005,-1.90385977655374e+001,-3.41122383765933e+000

1.73877578004168e+005,-1.90387351165651e+001,-3.45880550498670e+000

1.76304818540256e+005,-1.90388763050720e+001,-3.50704982199066e+000

1.78765942091554e+005,-1.90390214375993e+001,-3.55596597355380e+000

1.81261421647326e+005,-1.90391706236086e+001,-3.60556327007916e+000

1.83791736799524e+005,-1.90393239755599e+001,-3.65585114913207e+000

1.86357373834951e+005,-1.90394816089919e+001,-3.70683917710266e+000

1.88958825828723e+005,-1.90396436426036e+001,-3.75853705088625e+000

1.91596592739027e+005,-1.90398101983386e+001,-3.81095459958375e+000

1.94271181503206e+005,-1.90399814014712e+001,-3.86410178621868e+000

1.96983106135185e+005,-1.90401573806947e+001,-3.91798870947578e+000

1.99732887824256e+005,-1.90403382682117e+001,-3.97262560545840e+000

2.02521055035243e+005,-1.90405241998275e+001,-4.02802284946328e+000

2.05348143610063e+005,-1.90407153150443e+001,-4.08419095777691e+000

2.08214696870707e+005,-1.90409117571593e+001,-4.14114058949013e+000

2.11121265723661e+005,-1.90411136733642e+001,-4.19888254833228e+000

2.14068408765776e+005,-1.90413212148474e+001,-4.25742778452607e+000

2.17056692391625e+005,-1.90415345368987e+001,-4.31678739665977e+000

2.20086690902357e+005,-1.90417537990168e+001,-4.37697263358176e+000

2.23158986616063e+005,-1.90419791650190e+001,-4.43799489631333e+000

2.26274169979693e+005,-1.90422108031538e+001,-4.49986573998061e+000

2.29432839682530e+005,-1.90424488862159e+001,-4.56259687576869e+000

2.32635602771247e+005,-1.90426935916646e+001,-4.62620017289308e+000

2.35883074766574e+005,-1.90429451017439e+001,-4.69068766059306e+000

2.39175879781588e+005,-1.90432036036070e+001,-4.75607153014358e+000

2.42514650641661e+005,-1.90434692894421e+001,-4.82236413688792e+000

2.45900029006080e+005,-1.90437423566024e+001,-4.88957800229031e+000

2.49332665491357e+005,-1.90440230077385e+001,-4.95772581600791e+000

2.52813219796278e+005,-1.90443114509339e+001,-5.02682043798386e+000

2.56342360828676e+005,-1.90446078998438e+001,-5.09687490055917e+000

2.59920766833993e+005,-1.90449125738375e+001,-5.16790241060543e+000

2.63549125525621e+005,-1.90452256981431e+001,-5.23991635167739e+000

2.67228134217075e+005,-1.90455475039962e+001,-5.31293028618481e+000

2.70958499956006e+005,-1.90458782287917e+001,-5.38695795758535e+000

2.74740939660078e+005,-1.90462181162395e+001,-5.46201329259667e+000

2.78576180254757e+005,-1.90465674165227e+001,-5.53811040342842e+000

2.82464958813007e+005,-1.90469263864604e+001,-5.61526359003411e+000

2.86408022696948e+005,-1.90472952896736e+001,-5.69348734238289e+000

2.90406129701488e+005,-1.90476743967543e+001,-5.77279634275134e+000

2.94460048199957e+005,-1.90480639854394e+001,-5.85320546803382e+000

2.98570557291775e+005,-1.90484643407876e+001,-5.93472979207380e+000

3.02738446952187e+005,-1.90488757553598e+001,-6.01738458801406e+000

3.06964518184081e+005,-1.90492985294046e+001,-6.10118533066571e+000

3.11249583171928e+005,-1.90497329710465e+001,-6.18614769889802e+000

3.15594465437872e+005,-1.90501793964788e+001,-6.27228757804655e+000

3.19999999999997e+005,-1.90506381301604e+001,-6.35962106234031e+000

3.24467033532806e+005,-1.90511095050167e+001,-6.44816445734873e+000

3.28996424529938e+005,-1.90515938626443e+001,-6.53793428244727e+000

3.33589043469155e+005,-1.90520915535208e+001,-6.62894727330224e+000

3.38245772979638e+005,-1.90526029372182e+001,-6.72122038437348e+000

3.42967508011610e+005,-1.90531283826206e+001,-6.81477079143735e+000

3.47755156008335e+005,-1.90536682681468e+001,-6.90961589412645e+000

3.52609637080511e+005,-1.90542229819770e+001,-7.00577331848998e+000

3.57531884183106e+005,-1.90547929222839e+001,-7.10326091957014e+000

3.62522843294651e+005,-1.90553784974689e+001,-7.20209678399896e+000

3.67583473599047e+005,-1.90559801264023e+001,-7.30229923261189e+000

3.72714747669902e+005,-1.90565982386688e+001,-7.40388682308000e+000

3.77917651657445e+005,-1.90572332748170e+001,-7.50687835256003e+000

3.83193185478053e+005,-1.90578856866147e+001,-7.61129286036279e+000

3.88542363006410e+005,-1.90585559373080e+001,-7.71714963063850e+000

3.93966212270369e+005,-1.90592445018861e+001,-7.82446819508033e+000

3.99465775648511e+005,-1.90599518673506e+001,-7.93326833564610e+000

4.05042110070485e+005,-1.90606785329904e+001,-8.04357008729548e+000

4.10696287220124e+005,-1.90614250106610e+001,-8.15539374074782e+000

4.16429393741414e+005,-1.90621918250695e+001,-8.26875984525405e+000

4.22242531447321e+005,-1.90629795140645e+001,-8.38368921138836e+000

4.28136817531551e+005,-1.90637886289317e+001,-8.50020291385566e+000

4.34113384783250e+005,-1.90646197346945e+001,-8.61832229431701e+000

4.40173381804713e+005,-1.90654734104201e+001,-8.73806896423185e+000

4.46317973232124e+005,-1.90663502495311e+001,-8.85946480771791e+000

4.52548339959385e+005,-1.90672508601230e+001,-8.98253198442739e+000

4.58865679365059e+005,-1.90681758652869e+001,-9.10729293244073e+000

4.65271205542494e+005,-1.90691259034383e+001,-9.23377037117768e+000

4.71766149533147e+005,-1.90701016286515e+001,-9.36198730432516e+000

4.78351759563174e+005,-1.90711037109999e+001,-9.49196702278261e+000

4.85029301283321e+005,-1.90721328369028e+001,-9.62373310762393e+000

4.91800058012158e+005,-1.90731897094776e+001,-9.75730943307695e+000

4.98665330982714e+005,-1.90742750488988e+001,-9.89272016952061e+000

5.05626439592555e+005,-1.90753895927629e+001,-1.00299897864983e+001

5.12684721657352e+005,-1.90765340964601e+001,-1.01691430557499e+001

5.19841533667984e+005,-1.90777093335527e+001,-1.03102050542600e+001

5.27098251051240e+005,-1.90789160961595e+001,-1.04532011673241e+001

5.34456268434150e+005,-1.90801551953481e+001,-1.05981570916326e+001

5.41916999912011e+005,-1.90814274615330e+001,-1.07450988383717e+001

