Freq.,VOut,OutRef

1.00000000000000e+004,-1.88829043898428e+000,-6.61155013423316e-002

1.01395947979003e+004,-1.88829041819856e+000,-6.70384394030028e-002

1.02811382665607e+004,-1.88829039682821e+000,-6.79742612025417e-002

1.04246576084112e+004,-1.88829037485722e+000,-6.89231465894530e-002

1.05701804056138e+004,-1.88829035226871e+000,-6.98852779241448e-002

1.07177346253629e+004,-1.88829032904490e+000,-7.08608401160012e-002

1.08673486252606e+004,-1.88829030516839e+000,-7.18500206501290e-002

1.10190511587661e+004,-1.88829028062044e+000,-7.28530096339366e-002

1.11728713807222e+004,-1.88829025538232e+000,-7.38699998254520e-002

1.13288388529580e+004,-1.88829022943482e+000,-7.49011866731204e-002

1.14869835499703e+004,-1.88829020275772e+000,-7.59467683569110e-002

1.16473358646846e+004,-1.88829017533073e+000,-7.70069458198399e-002

1.18099266142953e+004,-1.88829014713271e+000,-7.80819228119390e-002

1.19747870461893e+004,-1.88829011814183e+000,-7.91719059280924e-002

1.21419488439505e+004,-1.88829008833578e+000,-8.02771046461509e-002

1.23114441334492e+004,-1.88829005769178e+000,-8.13977313675065e-002

1.24833054890161e+004,-1.88829002618654e+000,-8.25340014573698e-002

1.26575659397028e+004,-1.88828999379538e+000,-8.36861332922260e-002

1.28342589756290e+004,-1.88828996049345e+000,-8.48543482936919e-002

1.30134185544193e+004,-1.88828992625545e+000,-8.60388709724878e-002

1.31950791077289e+004,-1.88828989105499e+000,-8.72399289759710e-002

1.33792755478611e+004,-1.88828985486467e+000,-8.84577531314917e-002

1.35660432744767e+004,-1.88828981765704e+000,-8.96925774828229e-002

1.37554181813974e+004,-1.88828977940320e+000,-9.09446393467351e-002

1.39474366635040e+004,-1.88828974007397e+000,-9.22141793484796e-002

1.41421356237309e+004,-1.88828969963912e+000,-9.35014414738408e-002

1.43395524801583e+004,-1.88828965806745e+000,-9.48066731155148e-002

1.45397251732031e+004,-1.88828961532709e+000,-9.61301251184315e-002

1.47426921729110e+004,-1.88828957138514e+000,-9.74720518296339e-002

1.49484924863494e+004,-1.88828952620761e+000,-9.88327111484086e-002

1.51571656651040e+004,-1.88828947976013e+000,-1.00212364569948e-001

1.53687518128801e+004,-1.88828943200680e+000,-1.01611277243881e-001

1.55832915932100e+004,-1.88828938291096e+000,-1.03029718018959e-001

1.58008262372675e+004,-1.88828933243481e+000,-1.04467959498450e-001

1.60213975517924e+004,-1.88828928053968e+000,-1.05926278089252e-001

1.62450479271247e+004,-1.88828922718538e+000,-1.07404954059273e-001

1.64718203453514e+004,-1.88828917233119e+000,-1.08904271585844e-001

1.67017583885674e+004,-1.88828911593475e+000,-1.10424518816111e-001

1.69349062472505e+004,-1.88828905795277e+000,-1.11965987917358e-001

1.71713087287550e+004,-1.88828899834080e+000,-1.13528975135950e-001

1.74110112659224e+004,-1.88828893705292e+000,-1.15113780854439e-001

1.76540599258131e+004,-1.88828887404196e+000,-1.16720709648727e-001

1.79005014185594e+004,-1.88828880925939e+000,-1.18350070346348e-001

1.81503831063432e+004,-1.88828874265568e+000,-1.20002176084016e-001

1.84037530124975e+004,-1.88828867417942e+000,-1.21677344372131e-001

1.86606598307361e+004,-1.88828860377799e+000,-1.23375897152704e-001

1.89211529345119e+004,-1.88828853139741e+000,-1.25098160860719e-001

1.91852823865052e+004,-1.88828845698179e+000,-1.26844466490486e-001

1.94530989482457e+004,-1.88828838047408e+000,-1.28615149654379e-001

1.97246540898671e+004,-1.88828830181545e+000,-1.30410550650895e-001

1.99999999999999e+004,-1.88828822094537e+000,-1.32231014529121e-001

2.02791895958005e+004,-1.88828813780177e+000,-1.34076891154096e-001

2.05622765331213e+004,-1.88828805232065e+000,-1.35948535275683e-001

2.08493152168224e+004,-1.88828796443621e+000,-1.37846306596077e-001

2.11403608112276e+004,-1.88828787408117e+000,-1.39770569836605e-001

2.14354692507258e+004,-1.88828778118578e+000,-1.41721694813217e-001

2.17346972505211e+004,-1.88828768567863e+000,-1.43700056502659e-001

2.20381023175322e+004,-1.88828758748649e+000,-1.45706035115085e-001

2.23457427614443e+004,-1.88828748653376e+000,-1.47740016170035e-001

2.26576777059159e+004,-1.88828738274285e+000,-1.49802390567827e-001

2.29739670999406e+004,-1.88828727603406e+000,-1.51893554665385e-001

2.32946717293690e+004,-1.88828716632507e+000,-1.54013910354889e-001

2.36198532285905e+004,-1.88828705353180e+000,-1.56163865135136e-001

2.39495740923785e+004,-1.88828693756745e+000,-1.58343832195865e-001

2.42838976879009e+004,-1.88828681834289e+000,-1.60554230494149e-001

2.46228882668982e+004,-1.88828669576640e+000,-1.62795484835991e-001

2.49666109780322e+004,-1.88828656974379e+000,-1.65068025956474e-001

2.53151318794055e+004,-1.88828644017817e+000,-1.67372290604589e-001

2.56685179512580e+004,-1.88828630696992e+000,-1.69708721625845e-001

2.60268371088386e+004,-1.88828617001660e+000,-1.72077768047294e-001

2.63901582154578e+004,-1.88828602921295e+000,-1.74479885165143e-001

2.67585510957221e+004,-1.88828588445077e+000,-1.76915534630233e-001

2.71320865489533e+004,-1.88828573561867e+000,-1.79385184538953e-001

2.75108363627948e+004,-1.88828558260233e+000,-1.81889309521188e-001

2.78948733270080e+004,-1.88828542528407e+000,-1.84428390833002e-001

2.82842712474618e+004,-1.88828526354291e+000,-1.87002916449363e-001

2.86791049603164e+004,-1.88828509725446e+000,-1.89613381156060e-001

2.90794503464061e+004,-1.88828492629109e+000,-1.92260286645291e-001

2.94853843458219e+004,-1.88828475052109e+000,-1.94944141615305e-001

2.98969849726987e+004,-1.88828456980941e+000,-1.97665461863577e-001

3.03143313302078e+004,-1.88828438401731e+000,-2.00424770387370e-001

3.07375036257601e+004,-1.88828419300169e+000,-2.03222597487056e-001

3.11665831864199e+004,-1.88828399661590e+000,-2.06059480863807e-001

3.16016524745350e+004,-1.88828379470875e+000,-2.08935965726879e-001

3.20427951035848e+004,-1.88828358712519e+000,-2.11852604893859e-001

3.24900958542493e+004,-1.88828337370563e+000,-2.14809958901713e-001

3.29436406907028e+004,-1.88828315428574e+000,-2.17808596112795e-001

3.34035167771346e+004,-1.88828292869717e+000,-2.20849092820241e-001

3.38698124945009e+004,-1.88828269676617e+000,-2.23932033366717e-001

3.43426174575100e+004,-1.88828245831471e+000,-2.27058010247470e-001

3.48220225318448e+004,-1.88828221315934e+000,-2.30227624232282e-001

3.53081198516260e+004,-1.88828196111142e+000,-2.33441484477206e-001

3.58010028371187e+004,-1.88828170197745e+000,-2.36700208639402e-001

3.63007662126863e+004,-1.88828143555806e+000,-2.40004423001162e-001

3.68075060249948e+004,-1.88828116164844e+000,-2.43354762586124e-001

3.73213196614721e+004,-1.88828088003792e+000,-2.46751871283551e-001

3.78423058690237e+004,-1.88828059051010e+000,-2.50196401970203e-001

3.83705647730104e+004,-1.88828029284240e+000,-2.53689016637656e-001

3.89061978964912e+004,-1.88827998680585e+000,-2.57230386518685e-001

3.94493081797342e+004,-1.88827967216519e+000,-2.60821192216362e-001

3.99999999999998e+004,-1.88827934867863e+000,-2.64462123833835e-001

4.05583791916010e+004,-1.88827901609739e+000,-2.68153881109550e-001

4.11245530662425e+004,-1.88827867416570e+000,-2.71897173549797e-001

4.16986304336447e+004,-1.88827832262078e+000,-2.75692720564280e-001

4.22807216224550e+004,-1.88827796119222e+000,-2.79541251607233e-001

4.28709385014515e+004,-1.88827758960226e+000,-2.83443506314852e-001

4.34693945010421e+004,-1.88827720756516e+000,-2.87400234649046e-001

4.40762046350642e+004,-1.88827681478714e+000,-2.91412197041210e-001

4.46914855228886e+004,-1.88827641096631e+000,-2.95480164537365e-001

4.53153554118317e+004,-1.88827599579217e+000,-2.99604918948364e-001

4.59479341998812e+004,-1.88827556894539e+000,-3.03787252999261e-001

4.65893434587380e+004,-1.88827513009801e+000,-3.08027970479823e-001

4.72397064571810e+004,-1.88827467891247e+000,-3.12327886402512e-001

4.78991481847569e+004,-1.88827421504190e+000,-3.16687827156506e-001

4.85677953758016e+004,-1.88827373812958e+000,-3.21108630667855e-001

4.92457765337964e+004,-1.88827324780893e+000,-3.25591146559318e-001

4.99332219560642e+004,-1.88827274370291e+000,-3.30136236315007e-001

5.06302637588109e+004,-1.88827222542390e+000,-3.34744773445100e-001

5.13370359025159e+004,-1.88827169257353e+000,-3.39417643653711e-001

5.20536742176771e+004,-1.88827114474212e+000,-3.44155745009674e-001

5.27803164309155e+004,-1.88827058150824e+000,-3.48959988120083e-001

5.35171021914442e+004,-1.88827000243902e+000,-3.53831296302395e-001

5.42641730979066e+004,-1.88826940708901e+000,-3.58770605765486e-001

5.50216727255895e+004,-1.88826879500075e+000,-3.63778865785324e-001

5.57897466540159e+004,-1.88826816570348e+000,-3.68857038891794e-001

5.65685424949235e+004,-1.88826751871327e+000,-3.74006101052398e-001

5.73582099206328e+004,-1.88826685353271e+000,-3.79227041857503e-001

5.81589006928121e+004,-1.88826616965030e+000,-3.84520864714103e-001

5.89707686916437e+004,-1.88826546654034e+000,-3.89888587034717e-001

5.97939699453972e+004,-1.88826474366201e+000,-3.95331240438202e-001

6.06286626604156e+004,-1.88826400045966e+000,-4.00849870942625e-001

6.14750072515201e+004,-1.88826323636166e+000,-4.06445539170115e-001

6.23331663728396e+004,-1.88826245078064e+000,-4.12119320548719e-001

6.32033049490698e+004,-1.88826164311251e+000,-4.17872305519482e-001

6.40855902071694e+004,-1.88826081273612e+000,-4.23705599748341e-001

6.49801917084985e+004,-1.88825995901309e+000,-4.29620324334585e-001

6.58872813814055e+004,-1.88825908128694e+000,-4.35617616029438e-001

6.68070335542691e+004,-1.88825817888278e+000,-4.41698627453287e-001

6.77396249890018e+004,-1.88825725110662e+000,-4.47864527318805e-001

6.86852349150199e+004,-1.88825629724514e+000,-4.54116500652900e-001

6.96440450636895e+004,-1.88825531656484e+000,-4.60455749026957e-001

7.06162397032520e+004,-1.88825430831158e+000,-4.66883490786998e-001

7.16020056742374e+004,-1.88825327171005e+000,-4.73400961287917e-001

7.26015324253724e+004,-1.88825220596325e+000,-4.80009413129713e-001

7.36150120499896e+004,-1.88825111025153e+000,-4.86710116401413e-001

7.46426393229441e+004,-1.88824998373235e+000,-4.93504358922141e-001

7.56846117380472e+004,-1.88824882553938e+000,-5.00393446490211e-001

7.67411295460207e+004,-1.88824763478215e+000,-5.07378703133537e-001

7.78123957929823e+004,-1.88824641054479e+000,-5.14461471365135e-001

7.88986163594682e+004,-1.88824515188599e+000,-5.21643112439807e-001

7.99999999999995e+004,-1.88824385783769e+000,-5.28925006618114e-001

8.11167583832018e+004,-1.88824252740491e+000,-5.36308553428196e-001

8.22491061324848e+004,-1.88824115956435e+000,-5.43795171939129e-001

8.33972608672892e+004,-1.88823975326425e+000,-5.51386301029342e-001

8.45614432449099e+004,-1.88823830742306e+000,-5.59083399667284e-001

8.57418770029029e+004,-1.88823682092884e+000,-5.66887947189523e-001

8.69387890020841e+004,-1.88823529263845e+000,-5.74801443585676e-001

8.81524092701283e+004,-1.88823372137644e+000,-5.82825409787632e-001

8.93829710457770e+004,-1.88823210593461e+000,-5.90961387959680e-001

9.06307108236633e+004,-1.88823044507034e+000,-5.99210941799224e-001

9.18958683997622e+004,-1.88822873750643e+000,-6.07575656832483e-001

9.31786869174758e+004,-1.88822698192956e+000,-6.16057140723346e-001

9.44794129143618e+004,-1.88822517698960e+000,-6.24657023579856e-001

9.57982963695136e+004,-1.88822332129826e+000,-6.33376958269917e-001

9.71355907516031e+004,-1.88822141342826e+000,-6.42218620737468e-001

9.84915530675926e+004,-1.88821945191234e+000,-6.51183710324748e-001

9.98664439121282e+004,-1.88821743524174e+000,-6.60273950100540e-001

1.01260527517622e+005,-1.88821536186538e+000,-6.69491087189969e-001

1.02674071805032e+005,-1.88821323018844e+000,-6.78836893111630e-001

1.04107348435354e+005,-1.88821103857135e+000,-6.88313164117452e-001

1.05560632861831e+005,-1.88820878532838e+000,-6.97921721538257e-001

1.07034204382888e+005,-1.88820646872640e+000,-7.07664412134353e-001

1.08528346195813e+005,-1.88820408698344e+000,-7.17543108451275e-001

1.10043345451179e+005,-1.88820163826738e+000,-7.27559709178401e-001

1.11579493308032e+005,-1.88819912069469e+000,-7.37716139515475e-001

1.13137084989847e+005,-1.88819653232874e+000,-7.48014351541944e-001

1.14716419841265e+005,-1.88819387117835e+000,-7.58456324593898e-001

1.16317801385624e+005,-1.88819113519652e+000,-7.69044065642115e-001

1.17941537383287e+005,-1.88818832227847e+000,-7.79779609681472e-001

1.19587939890794e+005,-1.88818543026024e+000,-7.90665020119533e-001

1.21257325320831e+005,-1.88818245691700e+000,-8.01702389175290e-001

1.22950014503040e+005,-1.88817939996131e+000,-8.12893838280323e-001

1.24666332745679e+005,-1.88817625704139e+000,-8.24241518487789e-001

1.26406609898139e+005,-1.88817302573920e+000,-8.35747610886117e-001

1.28171180414339e+005,-1.88816970356866e+000,-8.47414327018643e-001

1.29960383416997e+005,-1.88816628797388e+000,-8.59243909307914e-001

1.31774562762811e+005,-1.88816277632680e+000,-8.71238631489427e-001

1.33614067108538e+005,-1.88815916592553e+000,-8.83400799046969e-001

1.35479249978003e+005,-1.88815545399220e+000,-8.95732749656633e-001

1.37370469830040e+005,-1.88815163767060e+000,-9.08236853637993e-001

1.39288090127379e+005,-1.88814771402419e+000,-9.20915514408541e-001

1.41232479406504e+005,-1.88814368003381e+000,-9.33771168946924e-001

1.43204011348474e+005,-1.88813953259531e+000,-9.46806288261276e-001

1.45203064850745e+005,-1.88813526851717e+000,-9.60023377865958e-001

1.47230024099979e+005,-1.88813088451788e+000,-9.73424978263101e-001

1.49285278645888e+005,-1.88812637722378e+000,-9.87013665430342e-001

1.51369223476094e+005,-1.88812174316604e+000,-1.00079205131926e+000

1.53482259092041e+005,-1.88811697877833e+000,-1.01476278435481e+000

1.55624791585964e+005,-1.88811208039381e+000,-1.02892854994792e+000

1.57797232718936e+005,-1.88810704424241e+000,-1.04329207101140e+000

1.59999999999999e+005,-1.88810186644795e+000,-1.05785610848328e+000

1.62233516766403e+005,-1.88809654302505e+000,-1.07262346185938e+000

1.64498212264969e+005,-1.88809106987616e+000,-1.08759696973199e+000

1.66794521734578e+005,-1.88808544278835e+000,-1.10277951033592e+000

1.69122886489819e+005,-1.88807965742993e+000,-1.11817400210335e+000

1.71483754005805e+005,-1.88807370934745e+000,-1.13378340422495e+000

1.73877578004168e+005,-1.88806759396181e+000,-1.14961071722045e+000

1.76304818540256e+005,-1.88806130656508e+000,-1.16565898351625e+000

1.78765942091554e+005,-1.88805484231667e+000,-1.18193128803080e+000

1.81261421647326e+005,-1.88804819623967e+000,-1.19843075876937e+000

1.83791736799524e+005,-1.88804136321691e+000,-1.21516056742641e+000

1.86357373834951e+005,-1.88803433798717e+000,-1.23212392999594e+000

1.88958825828723e+005,-1.88802711514101e+000,-1.24932410739148e+000

1.91596592739027e+005,-1.88801968911649e+000,-1.26676440607440e+000

1.94271181503206e+005,-1.88801205419505e+000,-1.28444817869054e+000

1.96983106135185e+005,-1.88800420449704e+000,-1.30237882471601e+000

1.99732887824256e+005,-1.88799613397703e+000,-1.32055979111306e+000

2.02521055035243e+005,-1.88798783641927e+000,-1.33899457299364e+000

2.05348143610063e+005,-1.88797930543299e+000,-1.35768671429217e+000

2.08214696870707e+005,-1.88797053444712e+000,-1.37663980845050e+000

2.11121265723661e+005,-1.88796151670555e+000,-1.39585749910862e+000

2.14068408765776e+005,-1.88795224526162e+000,-1.41534348080886e+000

2.17056692391625e+005,-1.88794271297293e+000,-1.43510149970621e+000

2.20086690902357e+005,-1.88793291249583e+000,-1.45513535429124e+000

2.23158986616063e+005,-1.88792283627948e+000,-1.47544889612393e+000

2.26274169979693e+005,-1.88791247656030e+000,-1.49604603057427e+000

2.29432839682530e+005,-1.88790182535582e+000,-1.51693071757617e+000

2.32635602771247e+005,-1.88789087445842e+000,-1.53810697239211e+000

2.35883074766574e+005,-1.88787961542910e+000,-1.55957886638657e+000

2.39175879781588e+005,-1.88786803959093e+000,-1.58135052781176e+000

2.42514650641661e+005,-1.88785613802219e+000,-1.60342614260454e+000

2.45900029006080e+005,-1.88784390154962e+000,-1.62580995519347e+000

2.49332665491357e+005,-1.88783132074114e+000,-1.64850626931862e+000

2.52813219796278e+005,-1.88781838589872e+000,-1.67151944886189e+000

2.56342360828676e+005,-1.88780508705070e+000,-1.69485391868907e+000

2.59920766833993e+005,-1.88779141394413e+000,-1.71851416550481e+000

2.63549125525621e+005,-1.88777735603677e+000,-1.74250473871868e+000

2.67228134217075e+005,-1.88776290248895e+000,-1.76683025132332e+000

2.70958499956006e+005,-1.88774804215513e+000,-1.79149538078614e+000

2.74740939660078e+005,-1.88773276357518e+000,-1.81650486995285e+000

2.78576180254757e+005,-1.88771705496569e+000,-1.84186352796270e+000

2.82464958813007e+005,-1.88770090421054e+000,-1.86757623117950e+000

2.86408022696948e+005,-1.88768429885166e+000,-1.89364792413269e+000

2.90406129701488e+005,-1.88766722607938e+000,-1.92008362047366e+000

2.94460048199957e+005,-1.88764967272225e+000,-1.94688840394589e+000

2.98570557291775e+005,-1.88763162523711e+000,-1.97406742936649e+000

3.02738446952187e+005,-1.88761306969832e+000,-2.00162592362430e+000

3.06964518184081e+005,-1.88759399178701e+000,-2.02956918669066e+000

3.11249583171928e+005,-1.88757437678003e+000,-2.05790259264527e+000

3.15594465437872e+005,-1.88755420953827e+000,-2.08663159071613e+000

3.19999999999997e+005,-1.88753347449517e+000,-2.11576170633384e+000

3.24467033532806e+005,-1.88751215564439e+000,-2.14529854220249e+000

3.28996424529938e+005,-1.88749023652747e+000,-2.17524777938368e+000

3.33589043469155e+005,-1.88746770022087e+000,-2.20561517839832e+000

3.38245772979638e+005,-1.88744452932308e+000,-2.23640658034058e+000

3.42967508011610e+005,-1.88742070594069e+000,-2.26762790801291e+000

3.47755156008335e+005,-1.88739621167477e+000,-2.29928516707207e+000

3.52609637080511e+005,-1.88737102760640e+000,-2.33138444719419e+000

3.57531884183106e+005,-1.88734513428200e+000,-2.36393192325687e+000

3.62522843294651e+005,-1.88731851169806e+000,-2.39693385653606e+000

3.67583473599047e+005,-1.88729113928569e+000,-2.43039659592260e+000

3.72714747669902e+005,-1.88726299589448e+000,-2.46432657915374e+000

3.77917651657445e+005,-1.88723405977611e+000,-2.49873033406410e+000

3.83193185478053e+005,-1.88720430856734e+000,-2.53361447985366e+000

3.88542363006410e+005,-1.88717371927254e+000,-2.56898572837446e+000

3.93966212270369e+005,-1.88714226824593e+000,-2.60485088543505e+000

3.99465775648511e+005,-1.88710993117299e+000,-2.64121685212418e+000

4.05042110070485e+005,-1.88707668305148e+000,-2.67809062615409e+000

4.10696287220124e+005,-1.88704249817215e+000,-2.71547930322194e+000

4.16429393741414e+005,-1.88700735009849e+000,-2.75339007839143e+000

4.22242531447321e+005,-1.88697121164622e+000,-2.79183024749470e+000

4.28136817531551e+005,-1.88693405486207e+000,-2.83080720855421e+000

4.34113384783250e+005,-1.88689585100203e+000,-2.87032846322452e+000

4.40173381804713e+005,-1.88685657050878e+000,-2.91040161825672e+000

4.46317973232124e+005,-1.88681618298895e+000,-2.95103438698128e+000

4.52548339959385e+005,-1.88677465718918e+000,-2.99223459081548e+000

4.58865679365059e+005,-1.88673196097180e+000,-3.03401016079045e+000

4.65271205542494e+005,-1.88668806128985e+000,-3.07636913910173e+000

4.71766149533147e+005,-1.88664292416128e+000,-3.11931968068176e+000

4.78351759563174e+005,-1.88659651464267e+000,-3.16287005479488e+000

4.85029301283321e+005,-1.88654879680155e+000,-3.20702864665771e+000

4.91800058012158e+005,-1.88649973368899e+000,-3.25180395907974e+000

4.98665330982714e+005,-1.88644928731039e+000,-3.29720461413149e+000

5.05626439592555e+005,-1.88639741859612e+000,-3.34323935483500e+000

5.12684721657352e+005,-1.88634408737109e+000,-3.38991704687932e+000

5.19841533667984e+005,-1.88628925232347e+000,-3.43724668036217e+000

5.27098251051240e+005,-1.88623287097266e+000,-3.48523737155582e+000

5.34456268434150e+005,-1.88617489963603e+000,-3.53389836470111e+000

5.41916999912011e+005,-1.88611529339533e+000,-3.58323903382513e+000

