Freq.,VOut,OutRef

1.00000000000000e+004,-2.36644054096342e+001,-1.04853800198798e-002

1.01395947979003e+004,-2.36644055426521e+001,-1.06317448837910e-002

1.02811382665607e+004,-2.36644056794102e+001,-1.07801526824793e-002

1.04246576084112e+004,-2.36644058200123e+001,-1.09306319319104e-002

1.05701804056138e+004,-2.36644059645669e+001,-1.10832115359651e-002

1.07177346253629e+004,-2.36644061131860e+001,-1.12379207972041e-002

1.08673486252606e+004,-2.36644062659816e+001,-1.13947894474137e-002

1.10190511587661e+004,-2.36644064230731e+001,-1.15538476068023e-002

1.11728713807222e+004,-2.36644065845809e+001,-1.17151258284876e-002

1.13288388529580e+004,-2.36644067506281e+001,-1.18786550971982e-002

1.14869835499703e+004,-2.36644069213438e+001,-1.20444668133942e-002

1.16473358646846e+004,-2.36644070968583e+001,-1.22125928318189e-002

1.18099266142953e+004,-2.36644072773064e+001,-1.23830654429079e-002

1.19747870461893e+004,-2.36644074628272e+001,-1.25559173872839e-002

1.21419488439505e+004,-2.36644076535629e+001,-1.27311818645430e-002

1.23114441334492e+004,-2.36644078496601e+001,-1.29088925370182e-002

1.24833054890161e+004,-2.36644080512699e+001,-1.30890835311952e-002

1.26575659397028e+004,-2.36644082585469e+001,-1.32717894563617e-002

1.28342589756290e+004,-2.36644084716507e+001,-1.34570453979067e-002

1.30134185544193e+004,-2.36644086907450e+001,-1.36448869337008e-002

1.31950791077289e+004,-2.36644089159974e+001,-1.38353501425848e-002

1.33792755478611e+004,-2.36644091475825e+001,-1.40284715896624e-002

1.35660432744767e+004,-2.36644093856771e+001,-1.42242883681719e-002

1.37554181813974e+004,-2.36644096304639e+001,-1.44228380822376e-002

1.39474366635040e+004,-2.36644098821322e+001,-1.46241588507624e-002

1.41421356237309e+004,-2.36644101408746e+001,-1.48282893355233e-002

1.43395524801583e+004,-2.36644104068900e+001,-1.50352687328770e-002

1.45397251732031e+004,-2.36644106803833e+001,-1.52451367802170e-002

1.47426921729110e+004,-2.36644109615635e+001,-1.54579337812717e-002

1.49484924863494e+004,-2.36644112506479e+001,-1.56737005850985e-002

1.51571656651040e+004,-2.36644115478576e+001,-1.58924786241594e-002

1.53687518128801e+004,-2.36644118534219e+001,-1.61143098955640e-002

1.55832915932100e+004,-2.36644121675753e+001,-1.63392369883197e-002

1.58008262372675e+004,-2.36644124905584e+001,-1.65673030893181e-002

1.60213975517924e+004,-2.36644128226205e+001,-1.67985519724996e-002

1.62450479271247e+004,-2.36644131640157e+001,-1.70330280374822e-002

1.64718203453514e+004,-2.36644135150075e+001,-1.72707762856122e-002

1.67017583885674e+004,-2.36644138758647e+001,-1.75118423589538e-002

1.69349062472505e+004,-2.36644142468646e+001,-1.77562725302208e-002

1.71713087287550e+004,-2.36644146282922e+001,-1.80041137141982e-002

1.74110112659224e+004,-2.36644150204403e+001,-1.82554134819177e-002

1.76540599258131e+004,-2.36644154236113e+001,-1.85102200575155e-002

1.79005014185594e+004,-2.36644158381136e+001,-1.87685823514323e-002

1.81503831063432e+004,-2.36644162642664e+001,-1.90305499409536e-002

1.84037530124975e+004,-2.36644167023964e+001,-1.92961731038644e-002

1.86606598307361e+004,-2.36644171528408e+001,-1.95655028069883e-002

1.89211529345119e+004,-2.36644176159453e+001,-1.98385907345327e-002

1.91852823865052e+004,-2.36644180920659e+001,-2.01154892842550e-002

1.94530989482457e+004,-2.36644185815683e+001,-2.03962515854336e-002

1.97246540898671e+004,-2.36644190848279e+001,-2.06809315097042e-002

1.99999999999999e+004,-2.36644196022319e+001,-2.09695836687355e-002

2.02791895958005e+004,-2.36644201341777e+001,-2.12622634392152e-002

2.05622765331213e+004,-2.36644206810729e+001,-2.15590269734057e-002

2.08493152168224e+004,-2.36644212433385e+001,-2.18599311921151e-002

2.11403608112276e+004,-2.36644218214065e+001,-2.21650338109205e-002

2.14354692507258e+004,-2.36644224157195e+001,-2.24743933590364e-002

2.17346972505211e+004,-2.36644230267355e+001,-2.27880691594085e-002

2.20381023175322e+004,-2.36644236549225e+001,-2.31061213768632e-002

2.23457427614443e+004,-2.36644243007634e+001,-2.34286110022718e-002

2.26576777059159e+004,-2.36644249647539e+001,-2.37555998768972e-002

2.29739670999406e+004,-2.36644256474044e+001,-2.40871506964961e-002

2.32946717293690e+004,-2.36644263492386e+001,-2.44233270343517e-002

2.36198532285905e+004,-2.36644270707953e+001,-2.47641933438826e-002

2.39495740923785e+004,-2.36644278126292e+001,-2.51098149673561e-002

2.42838976879009e+004,-2.36644285753089e+001,-2.54602581659916e-002

2.46228882668982e+004,-2.36644293594204e+001,-2.58155901094879e-002

2.49666109780322e+004,-2.36644301655655e+001,-2.61758789065550e-002

2.53151318794055e+004,-2.36644309943627e+001,-2.65411936081666e-002

2.56685179512580e+004,-2.36644318464487e+001,-2.69116042215755e-002

2.60268371088386e+004,-2.36644327224778e+001,-2.72871817246272e-002

2.63901582154578e+004,-2.36644336231216e+001,-2.76679980851774e-002

2.67585510957221e+004,-2.36644345490723e+001,-2.80541262595011e-002

2.71320865489533e+004,-2.36644355010396e+001,-2.84456402268752e-002

2.75108363627948e+004,-2.36644364797546e+001,-2.88426149805651e-002

2.78948733270080e+004,-2.36644374859685e+001,-2.92451265574854e-002

2.82842712474618e+004,-2.36644385204536e+001,-2.96532520473030e-002

2.86791049603164e+004,-2.36644395840029e+001,-3.00670696120034e-002

2.90794503464061e+004,-2.36644406774327e+001,-3.04866584902442e-002

2.94853843458219e+004,-2.36644418015825e+001,-3.09120990152819e-002

2.98969849726987e+004,-2.36644429573145e+001,-3.13434726372005e-002

3.03143313302078e+004,-2.36644441455148e+001,-3.17808619354048e-002

3.07375036257601e+004,-2.36644453670956e+001,-3.22243506227402e-002

3.11665831864199e+004,-2.36644466229935e+001,-3.26740235786214e-002

3.16016524745350e+004,-2.36644479141720e+001,-3.31299668488152e-002

3.20427951035848e+004,-2.36644492416215e+001,-3.35922676722364e-002

3.24900958542493e+004,-2.36644506063601e+001,-3.40610144917432e-002

3.29436406907028e+004,-2.36644520094340e+001,-3.45362969758221e-002

3.34035167771346e+004,-2.36644534519192e+001,-3.50182060269019e-002

3.38698124945009e+004,-2.36644549349220e+001,-3.55068338012238e-002

3.43426174575100e+004,-2.36644564595794e+001,-3.60022737303006e-002

3.48220225318448e+004,-2.36644580270601e+001,-3.65046205346822e-002

3.53081198516260e+004,-2.36644596385657e+001,-3.70139702402541e-002

3.58010028371187e+004,-2.36644612953317e+001,-3.75304201948322e-002

3.63007662126863e+004,-2.36644629986278e+001,-3.80540690900641e-002

3.68075060249948e+004,-2.36644647497594e+001,-3.85850169783472e-002

3.73213196614721e+004,-2.36644665500685e+001,-3.91233652875288e-002

3.78423058690237e+004,-2.36644684009345e+001,-3.96692168436637e-002

3.83705647730104e+004,-2.36644703037758e+001,-4.02226758857440e-002

3.89061978964912e+004,-2.36644722600500e+001,-4.07838480886273e-002

3.94493081797342e+004,-2.36644742712555e+001,-4.13528405818378e-002

3.99999999999998e+004,-2.36644763389334e+001,-4.19297619602938e-002

4.05583791916010e+004,-2.36644784646672e+001,-4.25147223170005e-002

4.11245530662425e+004,-2.36644806500840e+001,-4.31078332599421e-002

4.16986304336447e+004,-2.36644828968583e+001,-4.37092079173288e-002

4.22807216224550e+004,-2.36644852067098e+001,-4.43189609809564e-002

4.28709385014515e+004,-2.36644875814069e+001,-4.49372087087276e-002

4.34693945010421e+004,-2.36644900227677e+001,-4.55640689519830e-002

4.40762046350642e+004,-2.36644925326601e+001,-4.61996611829826e-002

4.46914855228886e+004,-2.36644951130054e+001,-4.68441065002130e-002

4.53153554118317e+004,-2.36644977657776e+001,-4.74975276678446e-002

4.59479341998812e+004,-2.36645004930068e+001,-4.81600491199831e-002

4.65893434587380e+004,-2.36645032967789e+001,-4.88317969998309e-002

4.72397064571810e+004,-2.36645061792384e+001,-4.95128991689628e-002

4.78991481847569e+004,-2.36645091425896e+001,-5.02034852359733e-002

4.85677953758016e+004,-2.36645121890989e+001,-5.09036865742077e-002

4.92457765337964e+004,-2.36645153210952e+001,-5.16136363519253e-002

4.99332219560642e+004,-2.36645185409727e+001,-5.23334695504175e-002

5.06302637588109e+004,-2.36645218511921e+001,-5.30633229886367e-002

5.13370359025159e+004,-2.36645252542833e+001,-5.38033353451172e-002

5.20536742176771e+004,-2.36645287528462e+001,-5.45536471872787e-002

5.27803164309155e+004,-2.36645323495529e+001,-5.53144009912134e-002

5.35171021914442e+004,-2.36645360471513e+001,-5.60857411615179e-002

5.42641730979066e+004,-2.36645398484644e+001,-5.68678140677889e-002

5.50216727255895e+004,-2.36645437563947e+001,-5.76607680600368e-002

5.57897466540159e+004,-2.36645477739249e+001,-5.84647534995144e-002

5.65685424949235e+004,-2.36645519041217e+001,-5.92799227755978e-002

5.73582099206328e+004,-2.36645561501360e+001,-6.01064303445541e-002

5.81589006928121e+004,-2.36645605152074e+001,-6.09444327428385e-002

5.89707686916437e+004,-2.36645650026645e+001,-6.17940886236821e-002

5.97939699453972e+004,-2.36645696159296e+001,-6.26555587730021e-002

6.06286626604156e+004,-2.36645743585196e+001,-6.35290061444378e-002

6.14750072515201e+004,-2.36645792340487e+001,-6.44145958857670e-002

6.23331663728396e+004,-2.36645842462327e+001,-6.53124953556572e-002

6.32033049490698e+004,-2.36645893988894e+001,-6.62228741677819e-002

6.40855902071694e+004,-2.36645946959428e+001,-6.71459042061215e-002

6.49801917084985e+004,-2.36646001414268e+001,-6.80817596512732e-002

6.58872813814055e+004,-2.36646057394861e+001,-6.90306170198422e-002

6.68070335542691e+004,-2.36646114943805e+001,-6.99926551847476e-002

6.77396249890018e+004,-2.36646174104884e+001,-7.09680554014409e-002

6.86852349150199e+004,-2.36646234923092e+001,-7.19570013431541e-002

6.96440450636895e+004,-2.36646297444666e+001,-7.29596791288094e-002

7.06162397032520e+004,-2.36646361717130e+001,-7.39762773436978e-002

7.16020056742374e+004,-2.36646427789322e+001,-7.50069870782902e-002

7.26015324253724e+004,-2.36646495711424e+001,-7.60520019571347e-002

7.36150120499896e+004,-2.36646565535013e+001,-7.71115181616319e-002

7.46426393229441e+004,-2.36646637313086e+001,-7.81857344678707e-002

7.56846117380472e+004,-2.36646711100113e+001,-7.92748522650757e-002

7.67411295460207e+004,-2.36646786952054e+001,-8.03790756041580e-002

7.78123957929823e+004,-2.36646864926426e+001,-8.14986112084493e-002

7.88986163594682e+004,-2.36646945082328e+001,-8.26336685154359e-002

7.99999999999995e+004,-2.36647027480481e+001,-8.37844597095144e-002

8.11167583832018e+004,-2.36647112183293e+001,-8.49511997382168e-002

8.22491061324848e+004,-2.36647199254875e+001,-8.61341063632056e-002

8.33972608672892e+004,-2.36647288761116e+001,-8.73334001716455e-002

8.45614432449099e+004,-2.36647380769708e+001,-8.85493046223404e-002

8.57418770029029e+004,-2.36647475350206e+001,-8.97820460691190e-002

8.69387890020841e+004,-2.36647572574075e+001,-9.10318537930251e-002

8.81524092701283e+004,-2.36647672514743e+001,-9.22989600336755e-002

8.93829710457770e+004,-2.36647775247654e+001,-9.35836000198467e-002

9.06307108236633e+004,-2.36647880850311e+001,-9.48860120069685e-002

9.18958683997622e+004,-2.36647989402351e+001,-9.62064372964946e-002

9.31786869174758e+004,-2.36648100985583e+001,-9.75451202781491e-002

9.44794129143618e+004,-2.36648215684057e+001,-9.89023084557677e-002

9.57982963695136e+004,-2.36648333584120e+001,-1.00278252478071e-001

9.71355907516031e+004,-2.36648454774471e+001,-1.01673206175201e-001

9.84915530675926e+004,-2.36648579346237e+001,-1.03087426581408e-001

9.98664439121282e+004,-2.36648707393024e+001,-1.04521173971681e-001

1.01260527517622e+005,-2.36648839010986e+001,-1.05974711893961e-001

1.02674071805032e+005,-2.36648974298897e+001,-1.07448307193411e-001

1.04107348435354e+005,-2.36649113358217e+001,-1.08942230046497e-001

1.05560632861831e+005,-2.36649256293155e+001,-1.10456753994284e-001

1.07034204382888e+005,-2.36649403210756e+001,-1.11992155964886e-001

1.08528346195813e+005,-2.36649554220958e+001,-1.13548716311602e-001

1.10043345451179e+005,-2.36649709436680e+001,-1.15126718834639e-001

1.11579493308032e+005,-2.36649868973895e+001,-1.16726450816566e-001

1.13137084989847e+005,-2.36650032951703e+001,-1.18348203048647e-001

1.14716419841265e+005,-2.36650201492425e+001,-1.19992269856292e-001

1.16317801385624e+005,-2.36650374721678e+001,-1.21658949129202e-001

1.17941537383287e+005,-2.36650552768458e+001,-1.23348542349935e-001

1.19587939890794e+005,-2.36650735765224e+001,-1.25061354623694e-001

1.21257325320831e+005,-2.36650923848004e+001,-1.26797694693237e-001

1.22950014503040e+005,-2.36651117156462e+001,-1.28557874978331e-001

1.24666332745679e+005,-2.36651315834010e+001,-1.30342211590529e-001

1.26406609898139e+005,-2.36651520027885e+001,-1.32151024366375e-001

1.28171180414339e+005,-2.36651729889265e+001,-1.33984636882309e-001

1.29960383416997e+005,-2.36651945573352e+001,-1.35843376483629e-001

1.31774562762811e+005,-2.36652167239486e+001,-1.37727574302804e-001

1.33614067108538e+005,-2.36652395051235e+001,-1.39637565283565e-001

1.35479249978003e+005,-2.36652629176509e+001,-1.41573688201737e-001

1.37370469830040e+005,-2.36652869787667e+001,-1.43536285679635e-001

1.39288090127379e+005,-2.36653117061624e+001,-1.45525704208318e-001

1.41232479406504e+005,-2.36653371179969e+001,-1.47542294161115e-001

1.43204011348474e+005,-2.36653632329067e+001,-1.49586409816000e-001

1.45203064850745e+005,-2.36653900700190e+001,-1.51658409362154e-001

1.47230024099979e+005,-2.36654176489627e+001,-1.53758654917582e-001

1.49285278645888e+005,-2.36654459898811e+001,-1.55887512537782e-001

1.51369223476094e+005,-2.36654751134437e+001,-1.58045352230092e-001

1.53482259092041e+005,-2.36655050408591e+001,-1.60232547959513e-001

1.55624791585964e+005,-2.36655357938877e+001,-1.62449477656813e-001

1.57797232718936e+005,-2.36655673948554e+001,-1.64696523219880e-001

1.59999999999999e+005,-2.36655998666658e+001,-1.66974070522367e-001

1.62233516766403e+005,-2.36656332328142e+001,-1.69282509415148e-001

1.64498212264969e+005,-2.36656675174023e+001,-1.71622233717549e-001

1.66794521734578e+005,-2.36657027451505e+001,-1.73993641226736e-001

1.69122886489819e+005,-2.36657389414136e+001,-1.76397133701691e-001

1.71483754005805e+005,-2.36657761321944e+001,-1.78833116863183e-001

1.73877578004168e+005,-2.36658143441586e+001,-1.81302000381055e-001

1.76304818540256e+005,-2.36658536046500e+001,-1.83804197862078e-001

1.78765942091554e+005,-2.36658939417052e+001,-1.86340126835106e-001

1.81261421647326e+005,-2.36659353840695e+001,-1.88910208732629e-001

1.83791736799524e+005,-2.36659779612116e+001,-1.91514868872864e-001

1.86357373834951e+005,-2.36660217033401e+001,-1.94154536433138e-001

1.88958825828723e+005,-2.36660666414195e+001,-1.96829644422769e-001

1.91596592739027e+005,-2.36661128071859e+001,-1.99540629654926e-001

1.94271181503206e+005,-2.36661602331633e+001,-2.02287932712663e-001

1.96983106135185e+005,-2.36662089526808e+001,-2.05071997909750e-001

1.99732887824256e+005,-2.36662589998883e+001,-2.07893273254411e-001

2.02521055035243e+005,-2.36663104097743e+001,-2.10752210398715e-001

2.05348143610063e+005,-2.36663632181825e+001,-2.13649264591865e-001

2.08214696870707e+005,-2.36664174618284e+001,-2.16584894630993e-001

2.11121265723661e+005,-2.36664731783178e+001,-2.19559562797205e-001

2.14068408765776e+005,-2.36665304061623e+001,-2.22573734802863e-001

2.17056692391625e+005,-2.36665891847987e+001,-2.25627879716523e-001

2.20086690902357e+005,-2.36666495546055e+001,-2.28722469893598e-001

2.23158986616063e+005,-2.36667115569202e+001,-2.31857980906581e-001

2.26274169979693e+005,-2.36667752340577e+001,-2.35034891455258e-001

2.29432839682530e+005,-2.36668406293272e+001,-2.38253683287011e-001

2.32635602771247e+005,-2.36669077870500e+001,-2.41514841101444e-001

2.35883074766574e+005,-2.36669767525781e+001,-2.44818852449459e-001

2.39175879781588e+005,-2.36670475723096e+001,-2.48166207638314e-001

2.42514650641661e+005,-2.36671202937081e+001,-2.51557399614790e-001

2.45900029006080e+005,-2.36671949653191e+001,-2.54992923850748e-001

2.49332665491357e+005,-2.36672716367873e+001,-2.58473278224074e-001

2.52813219796278e+005,-2.36673503588738e+001,-2.61998962885913e-001

2.56342360828676e+005,-2.36674311834725e+001,-2.65570480127545e-001

2.59920766833993e+005,-2.36675141636270e+001,-2.69188334237372e-001

2.63549125525621e+005,-2.36675993535466e+001,-2.72853031351893e-001

2.67228134217075e+005,-2.36676868086223e+001,-2.76565079297398e-001

2.70958499956006e+005,-2.36677765854424e+001,-2.80324987426794e-001

2.74740939660078e+005,-2.36678687418075e+001,-2.84133266447316e-001

2.78576180254757e+005,-2.36679633367450e+001,-2.87990428241867e-001

2.82464958813007e+005,-2.36680604305235e+001,-2.91896985676889e-001

2.86408022696948e+005,-2.36681600846661e+001,-2.95853452413311e-001

2.90406129701488e+005,-2.36682623619632e+001,-2.99860342695890e-001

2.94460048199957e+005,-2.36683673264851e+001,-3.03918171143523e-001

2.98570557291775e+005,-2.36684750435928e+001,-3.08027452528581e-001

3.02738446952187e+005,-2.36685855799491e+001,-3.12188701543722e-001

3.06964518184081e+005,-2.36686990035281e+001,-3.16402432566820e-001

3.11249583171928e+005,-2.36688153836237e+001,-3.20669159409880e-001

3.15594465437872e+005,-2.36689347908576e+001,-3.24989395063980e-001

3.19999999999997e+005,-2.36690572971861e+001,-3.29363651430396e-001

3.24467033532806e+005,-2.36691829759041e+001,-3.33792439050750e-001

3.28996424529938e+005,-2.36693119016511e+001,-3.38276266814945e-001

3.33589043469155e+005,-2.36694441504119e+001,-3.42815641674468e-001

3.38245772979638e+005,-2.36695797995194e+001,-3.47411068331826e-001

3.42967508011610e+005,-2.36697189276528e+001,-3.52063048935393e-001

3.47755156008335e+005,-2.36698616148368e+001,-3.56772082749886e-001

3.52609637080511e+005,-2.36700079424367e+001,-3.61538665830923e-001

3.57531884183106e+005,-2.36701579931531e+001,-3.66363290681596e-001

3.62522843294651e+005,-2.36703118510142e+001,-3.71246445903655e-001

3.67583473599047e+005,-2.36704696013657e+001,-3.76188615838975e-001

3.72714747669902e+005,-2.36706313308588e+001,-3.81190280202800e-001

3.77917651657445e+005,-2.36707971274360e+001,-3.86251913706556e-001

3.83193185478053e+005,-2.36709670803136e+001,-3.91373985675163e-001

3.88542363006410e+005,-2.36711412799632e+001,-3.96556959653228e-001

3.93966212270369e+005,-2.36713198180880e+001,-4.01801293007450e-001

3.99465775648511e+005,-2.36715027875993e+001,-4.07107436516913e-001

4.05042110070485e+005,-2.36716902825869e+001,-4.12475833960984e-001

4.10696287220124e+005,-2.36718823982893e+001,-4.17906921696690e-001

4.16429393741414e+005,-2.36720792310579e+001,-4.23401128233809e-001

4.22242531447321e+005,-2.36722808783201e+001,-4.28958873802230e-001

4.28136817531551e+005,-2.36724874385369e+001,-4.34580569916762e-001

4.34113384783250e+005,-2.36726990111588e+001,-4.40266618933145e-001

4.40173381804713e+005,-2.36729156965757e+001,-4.46017413609194e-001

4.46317973232124e+005,-2.36731375960650e+001,-4.51833336652387e-001

4.52548339959385e+005,-2.36733648117333e+001,-4.57714760279434e-001

4.58865679365059e+005,-2.36735974464560e+001,-4.63662045761227e-001

4.65271205542494e+005,-2.36738356038111e+001,-4.69675542978624e-001

4.71766149533147e+005,-2.36740793880088e+001,-4.75755589975254e-001

4.78351759563174e+005,-2.36743289038165e+001,-4.81902512515064e-001

4.85029301283321e+005,-2.36745842564787e+001,-4.88116623642489e-001

4.91800058012158e+005,-2.36748455516329e+001,-4.94398223247564e-001

4.98665330982714e+005,-2.36751128952189e+001,-5.00747597639852e-001

5.05626439592555e+005,-2.36753863933842e+001,-5.07165019130543e-001

5.12684721657352e+005,-2.36756661523833e+001,-5.13650745623341e-001

5.19841533667984e+005,-2.36759522784720e+001,-5.20205020218856e-001

5.27098251051240e+005,-2.36762448777966e+001,-5.26828070827997e-001

5.34456268434150e+005,-2.36765440562761e+001,-5.33520109809015e-001

5.41916999912011e+005,-2.36768499194800e+001,-5.40281333614736e-001

