Freq.,VOut,OutRef

1.00000000000000e+004,-2.79034064039456e+001,-3.43319092988077e-001

1.01395947979003e+004,-2.79034081777859e+001,-3.48111617153390e-001

1.02811382665607e+004,-2.79034100014946e+001,-3.52971041113531e-001

1.04246576084112e+004,-2.79034118764737e+001,-3.57898298698209e-001

1.05701804056138e+004,-2.79034138041645e+001,-3.62894336768614e-001

1.07177346253629e+004,-2.79034157860489e+001,-3.67960115402989e-001

1.08673486252606e+004,-2.79034178236504e+001,-3.73096608078159e-001

1.10190511587661e+004,-2.79034199185352e+001,-3.78304801858667e-001

1.11728713807222e+004,-2.79034220723140e+001,-3.83585697582736e-001

1.13288388529580e+004,-2.79034242866424e+001,-3.88940310058062e-001

1.14869835499703e+004,-2.79034265632222e+001,-3.94369668257176e-001

1.16473358646846e+004,-2.79034289038040e+001,-3.99874815509465e-001

1.18099266142953e+004,-2.79034313101865e+001,-4.05456809709294e-001

1.19747870461893e+004,-2.79034337842200e+001,-4.11116723511804e-001

1.21419488439505e+004,-2.79034363278060e+001,-4.16855644544560e-001

1.23114441334492e+004,-2.79034389428998e+001,-4.22674675612701e-001

1.24833054890161e+004,-2.79034416315118e+001,-4.28574934911535e-001

1.26575659397028e+004,-2.79034443957086e+001,-4.34557556243619e-001

1.28342589756290e+004,-2.79034472376153e+001,-4.40623689232090e-001

1.30134185544193e+004,-2.79034501594161e+001,-4.46774499545230e-001

1.31950791077289e+004,-2.79034531633572e+001,-4.53011169118990e-001

1.33792755478611e+004,-2.79034562517478e+001,-4.59334896381433e-001

1.35660432744767e+004,-2.79034594269618e+001,-4.65746896486783e-001

1.37554181813974e+004,-2.79034626914400e+001,-4.72248401546996e-001

1.39474366635040e+004,-2.79034660476918e+001,-4.78840660866992e-001

1.41421356237309e+004,-2.79034694982971e+001,-4.85524941186308e-001

1.43395524801583e+004,-2.79034730459083e+001,-4.92302526920890e-001

1.45397251732031e+004,-2.79034766932523e+001,-4.99174720410376e-001

1.47426921729110e+004,-2.79034804431331e+001,-5.06142842167010e-001

1.49484924863494e+004,-2.79034842984328e+001,-5.13208231131816e-001

1.51571656651040e+004,-2.79034882621149e+001,-5.20372244928032e-001

1.53687518128801e+004,-2.79034923372264e+001,-5.27636260123020e-001

1.55832915932100e+004,-2.79034965268995e+001,-5.35001672493180e-001

1.58008262372675e+004,-2.79035008343548e+001,-5.42469897290624e-001

1.60213975517924e+004,-2.79035052629033e+001,-5.50042369515223e-001

1.62450479271247e+004,-2.79035098159489e+001,-5.57720544190625e-001

1.64718203453514e+004,-2.79035144969914e+001,-5.65505896641719e-001

1.67017583885674e+004,-2.79035193096289e+001,-5.73399922779488e-001

1.69349062472505e+004,-2.79035242575608e+001,-5.81404139385263e-001

1.71713087287550e+004,-2.79035293445902e+001,-5.89520084405221e-001

1.74110112659224e+004,-2.79035345746272e+001,-5.97749317243270e-001

1.76540599258131e+004,-2.79035399516918e+001,-6.06093419059711e-001

1.79005014185594e+004,-2.79035454799171e+001,-6.14553993075860e-001

1.81503831063432e+004,-2.79035511635522e+001,-6.23132664881212e-001

1.84037530124975e+004,-2.79035570069658e+001,-6.31831082743373e-001

1.86606598307361e+004,-2.79035630146491e+001,-6.40650917927304e-001

1.89211529345119e+004,-2.79035691912201e+001,-6.49593865011928e-001

1.91852823865052e+004,-2.79035755414258e+001,-6.58661642219784e-001

1.94530989482457e+004,-2.79035820701472e+001,-6.67855991741385e-001

1.97246540898671e+004,-2.79035887824024e+001,-6.77178680072311e-001

1.99999999999999e+004,-2.79035956833505e+001,-6.86631498350704e-001

2.02791895958005e+004,-2.79036027782955e+001,-6.96216262702232e-001

2.05622765331213e+004,-2.79036100726904e+001,-7.05934814585309e-001

2.08493152168224e+004,-2.79036175721418e+001,-7.15789021145935e-001

2.11403608112276e+004,-2.79036252824136e+001,-7.25780775575108e-001

2.14354692507258e+004,-2.79036332094316e+001,-7.35911997471774e-001

2.17346972505211e+004,-2.79036413592884e+001,-7.46184633210262e-001

2.20381023175322e+004,-2.79036497382478e+001,-7.56600656312571e-001

2.23457427614443e+004,-2.79036583527493e+001,-7.67162067827863e-001

2.26576777059159e+004,-2.79036672094138e+001,-7.77870896714863e-001

2.29739670999406e+004,-2.79036763150481e+001,-7.88729200229939e-001

2.32946717293690e+004,-2.79036856766502e+001,-7.99739064321946e-001

2.36198532285905e+004,-2.79036953014148e+001,-8.10902604032166e-001

2.39495740923785e+004,-2.79037051967389e+001,-8.22221963897183e-001

2.42838976879009e+004,-2.79037153702272e+001,-8.33699318361427e-001

2.46228882668982e+004,-2.79037258296983e+001,-8.45336872192707e-001

2.49666109780322e+004,-2.79037365831901e+001,-8.57136860904519e-001

2.53151318794055e+004,-2.79037476389670e+001,-8.69101551182269e-001

2.56685179512580e+004,-2.79037590055252e+001,-8.81233241319756e-001

2.60268371088386e+004,-2.79037706915997e+001,-8.93534261656666e-001

2.63901582154578e+004,-2.79037827061709e+001,-9.06006975025699e-001

2.67585510957221e+004,-2.79037950584717e+001,-9.18653777203535e-001

2.71320865489533e+004,-2.79038077579943e+001,-9.31477097369865e-001

2.75108363627948e+004,-2.79038208144977e+001,-9.44479398571034e-001

2.78948733270080e+004,-2.79038342380151e+001,-9.57663178192726e-001

2.82842712474618e+004,-2.79038480388616e+001,-9.71030968434922e-001

2.86791049603164e+004,-2.79038622276420e+001,-9.84585336798584e-001

2.90794503464061e+004,-2.79038768152591e+001,-9.98328886573651e-001

2.94853843458219e+004,-2.79038918129222e+001,-1.01226425733911e+000

2.98969849726987e+004,-2.79039072321554e+001,-1.02639412546519e+000

3.03143313302078e+004,-2.79039230848065e+001,-1.04072120462599e+000

3.07375036257601e+004,-2.79039393830562e+001,-1.05524824631715e+000

3.11665831864199e+004,-2.79039561394275e+001,-1.06997804038191e+000

3.16016524745350e+004,-2.79039733667950e+001,-1.08491341554251e+000

3.20427951035848e+004,-2.79039910783952e+001,-1.10005723994196e+000

3.24900958542493e+004,-2.79040092878365e+001,-1.11541242168962e+000

3.29436406907028e+004,-2.79040280091091e+001,-1.13098190941768e+000

3.34035167771346e+004,-2.79040472565967e+001,-1.14676869284237e+000

3.38698124945009e+004,-2.79040670450868e+001,-1.16277580333560e+000

3.43426174575100e+004,-2.79040873897824e+001,-1.17900631450164e+000

3.48220225318448e+004,-2.79041083063135e+001,-1.19546334276410e+000

3.53081198516260e+004,-2.79041298107489e+001,-1.21215004796016e+000

3.58010028371187e+004,-2.79041519196089e+001,-1.22906963394171e+000

3.63007662126863e+004,-2.79041746498779e+001,-1.24622534918642e+000

3.68075060249948e+004,-2.79041980190173e+001,-1.26362048741639e+000

3.73213196614721e+004,-2.79042220449786e+001,-1.28125838822629e+000

3.78423058690237e+004,-2.79042467462179e+001,-1.29914243771706e+000

3.83705647730104e+004,-2.79042721417091e+001,-1.31727606914295e+000

3.89061978964912e+004,-2.79042982509594e+001,-1.33566276356249e+000

3.94493081797342e+004,-2.79043250940234e+001,-1.35430605050280e+000

3.99999999999998e+004,-2.79043526915194e+001,-1.37320950862845e+000

4.05583791916010e+004,-2.79043810646439e+001,-1.39237676642467e+000

4.11245530662425e+004,-2.79044102351892e+001,-1.41181150288471e+000

4.16986304336447e+004,-2.79044402255591e+001,-1.43151744820932e+000

4.22807216224550e+004,-2.79044710587867e+001,-1.45149838451611e+000

4.28709385014515e+004,-2.79045027585516e+001,-1.47175814655678e+000

4.34693945010421e+004,-2.79045353491982e+001,-1.49230062244594e+000

4.40762046350642e+004,-2.79045688557543e+001,-1.51312975439777e+000

4.46914855228886e+004,-2.79046033039504e+001,-1.53424953947436e+000

4.53153554118317e+004,-2.79046387202393e+001,-1.55566403034361e+000

4.59479341998812e+004,-2.79046751318162e+001,-1.57737733604765e+000

4.65893434587380e+004,-2.79047125666397e+001,-1.59939362278010e+000

4.72397064571810e+004,-2.79047510534531e+001,-1.62171711467685e+000

4.78991481847569e+004,-2.79047906218065e+001,-1.64435209461439e+000

4.85677953758016e+004,-2.79048313020792e+001,-1.66730290502047e+000

4.92457765337964e+004,-2.79048731255031e+001,-1.69057394869637e+000

4.99332219560642e+004,-2.79049161241867e+001,-1.71416968964741e+000

5.06302637588109e+004,-2.79049603311391e+001,-1.73809465392871e+000

5.13370359025159e+004,-2.79050057802960e+001,-1.76235343049877e+000

5.20536742176771e+004,-2.79050525065449e+001,-1.78695067208575e+000

5.27803164309155e+004,-2.79051005457525e+001,-1.81189109606548e+000

5.35171021914442e+004,-2.79051499347913e+001,-1.83717948535231e+000

5.42641730979066e+004,-2.79052007115685e+001,-1.86282068929880e+000

5.50216727255895e+004,-2.79052529150544e+001,-1.88881962461087e+000

5.57897466540159e+004,-2.79053065853126e+001,-1.91518127627207e+000

5.65685424949235e+004,-2.79053617635303e+001,-1.94191069848336e+000

5.73582099206328e+004,-2.79054184920497e+001,-1.96901301561200e+000

5.81589006928121e+004,-2.79054768144005e+001,-1.99649342315552e+000

5.89707686916437e+004,-2.79055367753331e+001,-2.02435718871753e+000

5.97939699453972e+004,-2.79055984208528e+001,-2.05260965299642e+000

6.06286626604156e+004,-2.79056617982544e+001,-2.08125623078658e+000

6.14750072515201e+004,-2.79057269561589e+001,-2.11030241199510e+000

6.23331663728396e+004,-2.79057939445504e+001,-2.13975376266803e+000

6.32033049490698e+004,-2.79058628148138e+001,-2.16961592603310e+000

6.40855902071694e+004,-2.79059336197745e+001,-2.19989462355652e+000

6.49801917084985e+004,-2.79060064137383e+001,-2.23059565600988e+000

6.58872813814055e+004,-2.79060812525329e+001,-2.26172490455579e+000

6.68070335542691e+004,-2.79061581935502e+001,-2.29328833184370e+000

6.77396249890018e+004,-2.79062372957904e+001,-2.32529198312233e+000

6.86852349150199e+004,-2.79063186199065e+001,-2.35774198736603e+000

6.96440450636895e+004,-2.79064022282505e+001,-2.39064455841499e+000

7.06162397032520e+004,-2.79064881849212e+001,-2.42400599613072e+000

7.16020056742374e+004,-2.79065765558123e+001,-2.45783268756648e+000

7.26015324253724e+004,-2.79066674086631e+001,-2.49213110815315e+000

7.36150120499896e+004,-2.79067608131096e+001,-2.52690782289965e+000

7.46426393229441e+004,-2.79068568407375e+001,-2.56216948760813e+000

7.56846117380472e+004,-2.79069555651366e+001,-2.59792285010695e+000

7.67411295460207e+004,-2.79070570619564e+001,-2.63417475149683e+000

7.78123957929823e+004,-2.79071614089640e+001,-2.67093212741383e+000

7.88986163594682e+004,-2.79072686861027e+001,-2.70820200930905e+000

7.99999999999995e+004,-2.79073789755526e+001,-2.74599152574381e+000

8.11167583832018e+004,-2.79074923617933e+001,-2.78430790370021e+000

8.22491061324848e+004,-2.79076089316671e+001,-2.82315846991041e+000

8.33972608672892e+004,-2.79077287744459e+001,-2.86255065219945e+000

8.45614432449099e+004,-2.79078519818977e+001,-2.90249198084831e+000

8.57418770029029e+004,-2.79079786483567e+001,-2.94299008997129e+000

8.69387890020841e+004,-2.79081088707943e+001,-2.98405271891092e+000

8.81524092701283e+004,-2.79082427488927e+001,-3.02568771365121e+000

8.93829710457770e+004,-2.79083803851201e+001,-3.06790302824701e+000

9.06307108236633e+004,-2.79085218848078e+001,-3.11070672627108e+000

9.18958683997622e+004,-2.79086673562303e+001,-3.15410698227969e+000

9.31786869174758e+004,-2.79088169106866e+001,-3.19811208329482e+000

9.44794129143618e+004,-2.79089706625840e+001,-3.24273043030534e+000

9.57982963695136e+004,-2.79091287295248e+001,-3.28797053978454e+000

9.71355907516031e+004,-2.79092912323945e+001,-3.33384104522830e+000

9.84915530675926e+004,-2.79094582954529e+001,-3.38035069870968e+000

9.98664439121282e+004,-2.79096300464278e+001,-3.42750837245204e+000

1.01260527517622e+005,-2.79098066166106e+001,-3.47532306042198e+000

1.02674071805032e+005,-2.79099881409556e+001,-3.52380387993978e+000

1.04107348435354e+005,-2.79101747581806e+001,-3.57296007330908e+000

1.05560632861831e+005,-2.79103666108717e+001,-3.62280100946491e+000

1.07034204382888e+005,-2.79105638455899e+001,-3.67333618564179e+000

1.08528346195813e+005,-2.79107666129808e+001,-3.72457522906032e+000

1.10043345451179e+005,-2.79109750678879e+001,-3.77652789863206e+000

1.11579493308032e+005,-2.79111893694679e+001,-3.82920408668583e+000

1.13137084989847e+005,-2.79114096813105e+001,-3.88261382071116e+000

1.14716419841265e+005,-2.79116361715596e+001,-3.93676726512257e+000

1.16317801385624e+005,-2.79118690130399e+001,-3.99167472304290e+000

1.17941537383287e+005,-2.79121083833851e+001,-4.04734663810616e+000

1.19587939890794e+005,-2.79123544651706e+001,-4.10379359628045e+000

1.21257325320831e+005,-2.79126074460497e+001,-4.16102632770962e+000

1.22950014503040e+005,-2.79128675188927e+001,-4.21905570857544e+000

1.24666332745679e+005,-2.79131348819309e+001,-4.27789276297981e+000

1.26406609898139e+005,-2.79134097389032e+001,-4.33754866484559e+000

1.28171180414339e+005,-2.79136922992078e+001,-4.39803473983840e+000

1.29960383416997e+005,-2.79139827780573e+001,-4.45936246730712e+000

1.31774562762811e+005,-2.79142813966379e+001,-4.52154348224488e+000

1.33614067108538e+005,-2.79145883822731e+001,-4.58458957727036e+000

1.35479249978003e+005,-2.79149039685919e+001,-4.64851270462669e+000

1.37370469830040e+005,-2.79152283957011e+001,-4.71332497820258e+000

1.39288090127379e+005,-2.79155619103621e+001,-4.77903867557165e+000

1.41232479406504e+005,-2.79159047661729e+001,-4.84566624005091e+000

1.43204011348474e+005,-2.79162572237548e+001,-4.91322028278027e+000

1.45203064850745e+005,-2.79166195509435e+001,-4.98171358481955e+000

1.47230024099979e+005,-2.79169920229857e+001,-5.05115909926631e+000

1.49285278645888e+005,-2.79173749227410e+001,-5.12156995339184e+000

1.51369223476094e+005,-2.79177685408888e+001,-5.19295945079639e+000

1.53482259092041e+005,-2.79181731761404e+001,-5.26534107358314e+000

1.55624791585964e+005,-2.79185891354575e+001,-5.33872848455084e+000

1.57797232718936e+005,-2.79190167342755e+001,-5.41313552940487e+000

1.59999999999999e+005,-2.79194562967333e+001,-5.48857623898566e+000

1.62233516766403e+005,-2.79199081559085e+001,-5.56506483151672e+000

1.64498212264969e+005,-2.79203726540591e+001,-5.64261571486876e+000

1.66794521734578e+005,-2.79208501428711e+001,-5.72124348884183e+000

1.69122886489819e+005,-2.79213409837134e+001,-5.80096294746376e+000

1.71483754005805e+005,-2.79218455478979e+001,-5.88178908130650e+000

1.73877578004168e+005,-2.79223642169471e+001,-5.96373707981795e+000

1.76304818540256e+005,-2.79228973828689e+001,-6.04682233366966e+000

1.78765942091554e+005,-2.79234454484375e+001,-6.13106043711990e+000

1.81261421647326e+005,-2.79240088274821e+001,-6.21646719039231e+000

1.83791736799524e+005,-2.79245879451826e+001,-6.30305860206900e+000

1.86357373834951e+005,-2.79251832383733e+001,-6.39085089149642e+000

1.88958825828723e+005,-2.79257951558539e+001,-6.47986049120659e+000

1.91596592739027e+005,-2.79264241587078e+001,-6.57010404934971e+000

1.94271181503206e+005,-2.79270707206296e+001,-6.66159843213972e+000

1.96983106135185e+005,-2.79277353282600e+001,-6.75436072631101e+000

1.99732887824256e+005,-2.79284184815291e+001,-6.84840824158627e+000

2.02521055035243e+005,-2.79291206940083e+001,-6.94375851315429e+000

2.05348143610063e+005,-2.79298424932712e+001,-7.04042930415723e+000

2.08214696870707e+005,-2.79305844212628e+001,-7.13843860818647e+000

2.11121265723661e+005,-2.79313470346787e+001,-7.23780465178537e+000

2.14068408765776e+005,-2.79321309053521e+001,-7.33854589696009e+000

2.17056692391625e+005,-2.79329366206523e+001,-7.44068104369497e+000

2.20086690902357e+005,-2.79337647838907e+001,-7.54422903247308e+000

2.23158986616063e+005,-2.79346160147383e+001,-7.64920904680056e+000

2.26274169979693e+005,-2.79354909496522e+001,-7.75564051573333e+000

2.29432839682530e+005,-2.79363902423129e+001,-7.86354311640540e+000

2.32635602771247e+005,-2.79373145640718e+001,-7.97293677655691e+000

2.35883074766574e+005,-2.79382646044090e+001,-8.08384167706144e+000

2.39175879781588e+005,-2.79392410714029e+001,-8.19627825445099e+000

2.42514650641661e+005,-2.79402446922095e+001,-8.31026720343666e+000

2.45900029006080e+005,-2.79412762135539e+001,-8.42582947942373e+000

2.49332665491357e+005,-2.79423364022326e+001,-8.54298630102097e+000

2.52813219796278e+005,-2.79434260456279e+001,-8.66175915254036e+000

2.56342360828676e+005,-2.79445459522338e+001,-8.78216978648726e+000

2.59920766833993e+005,-2.79456969521937e+001,-8.90424022603842e+000

2.63549125525621e+005,-2.79468798978508e+001,-9.02799276750624e+000

2.67228134217075e+005,-2.79480956643103e+001,-9.15344998278834e+000

2.70958499956006e+005,-2.79493451500147e+001,-9.28063472179775e+000

2.74740939660078e+005,-2.79506292773317e+001,-9.40957011487533e+000

2.78576180254757e+005,-2.79519489931545e+001,-9.54027957517985e+000

2.82464958813007e+005,-2.79533052695163e+001,-9.67278680105373e+000

2.86408022696948e+005,-2.79546991042172e+001,-9.80711577836325e+000

2.90406129701488e+005,-2.79561315214649e+001,-9.94329078280970e+000

2.94460048199957e+005,-2.79576035725291e+001,-1.00813363822104e+001

2.98570557291775e+005,-2.79591163364102e+001,-1.02212774387444e+001

3.02738446952187e+005,-2.79606709205208e+001,-1.03631391111646e+001

3.06964518184081e+005,-2.79622684613826e+001,-1.05069468569684e+001

3.11249583171928e+005,-2.79639101253370e+001,-1.06527264345282e+001

3.15594465437872e+005,-2.79655971092703e+001,-1.08005039051771e+001

3.19999999999997e+005,-2.79673306413536e+001,-1.09503056352462e+001

3.24467033532806e+005,-2.79691119817972e+001,-1.11021582980522e+001

3.28996424529938e+005,-2.79709424236205e+001,-1.12560888758299e+001

3.33589043469155e+005,-2.79728232934356e+001,-1.14121246616087e+001

3.38245772979638e+005,-2.79747559522479e+001,-1.15702932610270e+001

3.42967508011610e+005,-2.79767417962700e+001,-1.17306225940840e+001

3.47755156008335e+005,-2.79787822577519e+001,-1.18931408968228e+001

3.52609637080511e+005,-2.79808788058269e+001,-1.20578767229414e+001

3.57531884183106e+005,-2.79830329473716e+001,-1.22248589453297e+001

3.62522843294651e+005,-2.79852462278830e+001,-1.23941167575263e+001

3.67583473599047e+005,-2.79875202323697e+001,-1.25656796750929e+001

3.72714747669902e+005,-2.79898565862595e+001,-1.27395775368993e+001

3.77917651657445e+005,-2.79922569563221e+001,-1.29158405063197e+001

3.83193185478053e+005,-2.79947230516080e+001,-1.30944990723297e+001

3.88542363006410e+005,-2.79972566244018e+001,-1.32755840505057e+001

3.93966212270369e+005,-2.79998594711919e+001,-1.34591265839165e+001

3.99465775648511e+005,-2.80025334336553e+001,-1.36451581439080e+001

4.05042110070485e+005,-2.80052803996577e+001,-1.38337105307705e+001

4.10696287220124e+005,-2.80081023042686e+001,-1.40248158742887e+001

4.16429393741414e+005,-2.80110011307920e+001,-1.42185066341661e+001

4.22242531447321e+005,-2.80139789118116e+001,-1.44148156003203e+001

4.28136817531551e+005,-2.80170377302507e+001,-1.46137758930442e+001

4.34113384783250e+005,-2.80201797204473e+001,-1.48154209630255e+001

4.40173381804713e+005,-2.80234070692425e+001,-1.50197845912228e+001

4.46317973232124e+005,-2.80267220170844e+001,-1.52269008885897e+001

4.52548339959385e+005,-2.80301268591440e+001,-1.54368042956430e+001

4.58865679365059e+005,-2.80336239464465e+001,-1.56495295818682e+001

4.65271205542494e+005,-2.80372156870144e+001,-1.58651118449581e+001

4.71766149533147e+005,-2.80409045470239e+001,-1.60835865098769e+001

4.78351759563174e+005,-2.80446930519737e+001,-1.63049893277460e+001

4.85029301283321e+005,-2.80485837878656e+001,-1.65293563745426e+001

4.91800058012158e+005,-2.80525794023968e+001,-1.67567240496083e+001

4.98665330982714e+005,-2.80566826061632e+001,-1.69871290739596e+001

5.05626439592555e+005,-2.80608961738724e+001,-1.72206084883940e+001

5.12684721657352e+005,-2.80652229455676e+001,-1.74571996513874e+001

5.19841533667984e+005,-2.80696658278602e+001,-1.76969402367737e+001

5.27098251051240e+005,-2.80742277951709e+001,-1.79398682312032e+001

5.34456268434150e+005,-2.80789118909784e+001,-1.81860219313709e+001

5.41916999912011e+005,-2.80837212290762e+001,-1.84354399410104e+001

