Freq.,VOut,OutRef

1.00000000000000e+004,-5.49386317029123e-001,-9.01854699068499e-002

1.01395947979003e+004,-5.49386295475300e-001,-9.14444126812406e-002

1.02811382665607e+004,-5.49386273315592e-001,-9.27209296639757e-002

1.04246576084112e+004,-5.49386250532869e-001,-9.40152661834831e-002

1.05701804056138e+004,-5.49386227109644e-001,-9.53276709921440e-002

1.07177346253629e+004,-5.49386203027984e-001,-9.66583963142941e-002

1.08673486252606e+004,-5.49386178269345e-001,-9.80076978961228e-002

1.10190511587661e+004,-5.49386152814617e-001,-9.93758350544265e-002

1.11728713807222e+004,-5.49386126644301e-001,-1.00763070724308e-001

1.13288388529580e+004,-5.49386099738275e-001,-1.02169671512724e-001

1.14869835499703e+004,-5.49386072075980e-001,-1.03595907747120e-001

1.16473358646846e+004,-5.49386043635879e-001,-1.05042053531046e-001

1.18099266142953e+004,-5.49386014396394e-001,-1.06508386790968e-001

1.19747870461893e+004,-5.49385984334852e-001,-1.07995189336574e-001

1.21419488439505e+004,-5.49385953428150e-001,-1.09502746909612e-001

1.23114441334492e+004,-5.49385921652745e-001,-1.11031349239805e-001

1.24833054890161e+004,-5.49385888983991e-001,-1.12581290104208e-001

1.26575659397028e+004,-5.49385855396824e-001,-1.14152867378893e-001

1.28342589756290e+004,-5.49385820865473e-001,-1.15746383098434e-001

1.30134185544193e+004,-5.49385785363421e-001,-1.17362143513747e-001

1.31950791077289e+004,-5.49385748863305e-001,-1.19000459151944e-001

1.33792755478611e+004,-5.49385711337167e-001,-1.20661644873094e-001

1.35660432744767e+004,-5.49385672756046e-001,-1.22346019934899e-001

1.37554181813974e+004,-5.49385633090375e-001,-1.24053908050030e-001

1.39474366635040e+004,-5.49385592309606e-001,-1.25785637451179e-001

1.41421356237309e+004,-5.49385550382412e-001,-1.27541540952488e-001

1.43395524801583e+004,-5.49385507276603e-001,-1.29321956014210e-001

1.45397251732031e+004,-5.49385462959104e-001,-1.31127224807323e-001

1.47426921729110e+004,-5.49385417395707e-001,-1.32957694280266e-001

1.49484924863494e+004,-5.49385370551503e-001,-1.34813716223844e-001

1.51571656651040e+004,-5.49385322390474e-001,-1.36695647340106e-001

1.53687518128801e+004,-5.49385272875545e-001,-1.38603849311047e-001

1.55832915932100e+004,-5.49385221968714e-001,-1.40538688867318e-001

1.58008262372675e+004,-5.49385169630842e-001,-1.42500537858692e-001

1.60213975517924e+004,-5.49385115821684e-001,-1.44489773326813e-001

1.62450479271247e+004,-5.49385060499972e-001,-1.46506777575658e-001

1.64718203453514e+004,-5.49385003623040e-001,-1.48551938247330e-001

1.67017583885674e+004,-5.49384945147393e-001,-1.50625648393895e-001

1.69349062472505e+004,-5.49384885027881e-001,-1.52728306556344e-001

1.71713087287550e+004,-5.49384823218354e-001,-1.54860316837778e-001

1.74110112659224e+004,-5.49384759671377e-001,-1.57022088982976e-001

1.76540599258131e+004,-5.49384694338131e-001,-1.59214038455966e-001

1.79005014185594e+004,-5.49384627168240e-001,-1.61436586522933e-001

1.81503831063432e+004,-5.49384558110258e-001,-1.63690160328106e-001

1.84037530124975e+004,-5.49384487111182e-001,-1.65975192979599e-001

1.86606598307361e+004,-5.49384414116248e-001,-1.68292123633240e-001

1.89211529345119e+004,-5.49384339069373e-001,-1.70641397574025e-001

1.91852823865052e+004,-5.49384261913057e-001,-1.73023466302622e-001

1.94530989482457e+004,-5.49384182587878e-001,-1.75438787623977e-001

1.97246540898671e+004,-5.49384101032955e-001,-1.77887825733137e-001

1.99999999999999e+004,-5.49384017185559e-001,-1.80371051306132e-001

2.02791895958005e+004,-5.49383930981337e-001,-1.82888941588481e-001

2.05622765331213e+004,-5.49383842354007e-001,-1.85441980489313e-001

2.08493152168224e+004,-5.49383751235417e-001,-1.88030658672824e-001

2.11403608112276e+004,-5.49383657555601e-001,-1.90655473652812e-001

2.14354692507258e+004,-5.49383561242623e-001,-1.93316929888086e-001

2.17346972505211e+004,-5.49383462222486e-001,-1.96015538879835e-001

2.20381023175322e+004,-5.49383360419020e-001,-1.98751819271421e-001

2.23457427614443e+004,-5.49383255754056e-001,-2.01526296944440e-001

2.26576777059159e+004,-5.49383148147197e-001,-2.04339505123127e-001

2.29739670999406e+004,-5.49383037515772e-001,-2.07191984475454e-001

2.32946717293690e+004,-5.49382923774731e-001,-2.10084283217307e-001

2.36198532285905e+004,-5.49382806836802e-001,-2.13016957217063e-001

2.39495740923785e+004,-5.49382686612013e-001,-2.15990570105062e-001

2.42838976879009e+004,-5.49382563008087e-001,-2.19005693378059e-001

2.46228882668982e+004,-5.49382435930088e-001,-2.22062906512233e-001

2.49666109780322e+004,-5.49382305280349e-001,-2.25162797073384e-001

2.53151318794055e+004,-5.49382170958491e-001,-2.28305960829885e-001

2.56685179512580e+004,-5.49382032861320e-001,-2.31493001867448e-001

2.60268371088386e+004,-5.49381890882853e-001,-2.34724532704195e-001

2.63901582154578e+004,-5.49381744914004e-001,-2.38001174410614e-001

2.67585510957221e+004,-5.49381594842560e-001,-2.41323556727311e-001

2.71320865489533e+004,-5.49381440553327e-001,-2.44692318185881e-001

2.75108363627948e+004,-5.49381281927826e-001,-2.48108106232425e-001

2.78948733270080e+004,-5.49381118844154e-001,-2.51571577352406e-001

2.82842712474618e+004,-5.49380951177080e-001,-2.55083397195459e-001

2.86791049603164e+004,-5.49380778797896e-001,-2.58644240704269e-001

2.90794503464061e+004,-5.49380601574155e-001,-2.62254792244767e-001

2.94853843458219e+004,-5.49380419369744e-001,-2.65915745736842e-001

2.98969849726987e+004,-5.49380232044724e-001,-2.69627804787883e-001

3.03143313302078e+004,-5.49380039455397e-001,-2.73391682827861e-001

3.07375036257601e+004,-5.49379841453680e-001,-2.77208103248310e-001

3.11665831864199e+004,-5.49379637887579e-001,-2.81077799538492e-001

3.16016524745350e+004,-5.49379428600868e-001,-2.85001515428369e-001

3.20427951035848e+004,-5.49379213432756e-001,-2.88980005031323e-001

3.24900958542493e+004,-5.49378992218118e-001,-2.93014032988509e-001

3.29436406907028e+004,-5.49378764787112e-001,-2.97104374616575e-001

3.34035167771346e+004,-5.49378530965047e-001,-3.01251816056775e-001

3.38698124945009e+004,-5.49378290572508e-001,-3.05457154425081e-001

3.43426174575100e+004,-5.49378043424801e-001,-3.09721197967210e-001

3.48220225318448e+004,-5.49377789332384e-001,-3.14044766211574e-001

3.53081198516260e+004,-5.49377528100089e-001,-3.18428690129605e-001

3.58010028371187e+004,-5.49377259527543e-001,-3.22873812293039e-001

3.63007662126863e+004,-5.49376983408425e-001,-3.27380987038690e-001

3.68075060249948e+004,-5.49376699530944e-001,-3.31951080629740e-001

3.73213196614721e+004,-5.49376407677041e-001,-3.36584971424918e-001

3.78423058690237e+004,-5.49376107622936e-001,-3.41283550044633e-001

3.83705647730104e+004,-5.49375799138330e-001,-3.46047719545150e-001

3.89061978964912e+004,-5.49375481986447e-001,-3.50878395590477e-001

3.94493081797342e+004,-5.49375155923922e-001,-3.55776506629355e-001

3.99999999999998e+004,-5.49374820700522e-001,-3.60742994073245e-001

4.05583791916010e+004,-5.49374476059193e-001,-3.65778812476203e-001

4.11245530662425e+004,-5.49374121735402e-001,-3.70884929721826e-001

4.16986304336447e+004,-5.49373757457386e-001,-3.76062327205781e-001

4.22807216224550e+004,-5.49373382945698e-001,-3.81312000026813e-001

4.28709385014515e+004,-5.49372997913032e-001,-3.86634957177262e-001

4.34693945010421e+004,-5.49372602064007e-001,-3.92032221737673e-001

4.40762046350642e+004,-5.49372195095120e-001,-3.97504831072029e-001

4.46914855228886e+004,-5.49371776694206e-001,-4.03053837029858e-001

4.53153554118317e+004,-5.49371346540406e-001,-4.08680306145885e-001

4.59479341998812e+004,-5.49370904303880e-001,-4.14385319847222e-001

4.65893434587380e+004,-5.49370449645499e-001,-4.20169974660494e-001

4.72397064571810e+004,-5.49369982216717e-001,-4.26035382422581e-001

4.78991481847569e+004,-5.49369501659223e-001,-4.31982670494605e-001

4.85677953758016e+004,-5.49369007604499e-001,-4.38012981980010e-001

4.92457765337964e+004,-5.49368499673918e-001,-4.44127475942208e-001

4.99332219560642e+004,-5.49367977478114e-001,-4.50327327629600e-001

5.06302637588109e+004,-5.49367440616997e-001,-4.56613728699935e-001

5.13370359025159e+004,-5.49366888678990e-001,-4.62987887451882e-001

5.20536742176771e+004,-5.49366321241308e-001,-4.69451029054671e-001

5.27803164309155e+004,-5.49365737869040e-001,-4.76004395786594e-001

5.35171021914442e+004,-5.49365138115325e-001,-4.82649247271782e-001

5.42641730979066e+004,-5.49364521520753e-001,-4.89386860723695e-001

5.50216727255895e+004,-5.49363887612981e-001,-4.96218531190771e-001

5.57897466540159e+004,-5.49363235906510e-001,-5.03145571805857e-001

5.65685424949235e+004,-5.49362565902224e-001,-5.10169314038395e-001

5.73582099206328e+004,-5.49361877087167e-001,-5.17291107950311e-001

5.81589006928121e+004,-5.49361168933788e-001,-5.24512322457666e-001

5.89707686916437e+004,-5.49360440900109e-001,-5.31834345591452e-001

5.97939699453972e+004,-5.49359692428805e-001,-5.39258584766602e-001

6.06286626604156e+004,-5.49358922946942e-001,-5.46786467053236e-001

6.14750072515201e+004,-5.49358131865679e-001,-5.54419439449410e-001

6.23331663728396e+004,-5.49357318579803e-001,-5.62158969160805e-001

6.32033049490698e+004,-5.49356482466929e-001,-5.70006543883999e-001

6.40855902071694e+004,-5.49355622887464e-001,-5.77963672091251e-001

6.49801917084985e+004,-5.49354739184010e-001,-5.86031883321624e-001

6.58872813814055e+004,-5.49353830680740e-001,-5.94212728475435e-001

6.68070335542691e+004,-5.49352896682837e-001,-6.02507780113548e-001

6.77396249890018e+004,-5.49351936476382e-001,-6.10918632758320e-001

6.86852349150199e+004,-5.49350949327270e-001,-6.19446903202842e-001

6.96440450636895e+004,-5.49349934481079e-001,-6.28094230820589e-001

7.06162397032520e+004,-5.49348891162229e-001,-6.36862277882186e-001

7.16020056742374e+004,-5.49347818573601e-001,-6.45752729874699e-001

7.26015324253724e+004,-5.49346715895847e-001,-6.54767295826779e-001

7.36150120499896e+004,-5.49345582286801e-001,-6.63907708637712e-001

7.46426393229441e+004,-5.49344416880717e-001,-6.73175725411317e-001

7.56846117380472e+004,-5.49343218787853e-001,-6.82573127794431e-001

7.67411295460207e+004,-5.49341987093640e-001,-6.92101722319331e-001

7.78123957929823e+004,-5.49340720858046e-001,-7.01763340753223e-001

7.88986163594682e+004,-5.49339419114916e-001,-7.11559840449966e-001

7.99999999999995e+004,-5.49338080871185e-001,-7.21493104708146e-001

8.11167583832018e+004,-5.49336705106053e-001,-7.31565043135122e-001

8.22491061324848e+004,-5.49335290770522e-001,-7.41777592012814e-001

8.33972608672892e+004,-5.49333836786334e-001,-7.52132714672959e-001

8.45614432449099e+004,-5.49332342045244e-001,-7.62632401874586e-001

8.57418770029029e+004,-5.49330805408294e-001,-7.73278672187490e-001

8.69387890020841e+004,-5.49329225704748e-001,-7.84073572382295e-001

8.81524092701283e+004,-5.49327601731493e-001,-7.95019177824293e-001

8.93829710457770e+004,-5.49325932252086e-001,-8.06117592872832e-001

9.06307108236633e+004,-5.49324215995574e-001,-8.17370951289260e-001

9.18958683997622e+004,-5.49322451655841e-001,-8.28781416646463e-001

9.31786869174758e+004,-5.49320637890688e-001,-8.40351182746519e-001

9.44794129143618e+004,-5.49318773320488e-001,-8.52082474044682e-001

9.57982963695136e+004,-5.49316856527574e-001,-8.63977546077148e-001

9.71355907516031e+004,-5.49314886055012e-001,-8.76038685896879e-001

9.84915530675926e+004,-5.49312860405400e-001,-8.88268212515390e-001

9.98664439121282e+004,-5.49310778040075e-001,-9.00668477348594e-001

1.01260527517622e+005,-5.49308637377701e-001,-9.13241864672574e-001

1.02674071805032e+005,-5.49306436793308e-001,-9.25990792081560e-001

1.04107348435354e+005,-5.49304174617014e-001,-9.38917710956370e-001

1.05560632861831e+005,-5.49301849132726e-001,-9.52025106936927e-001

1.07034204382888e+005,-5.49299458577177e-001,-9.65315500401400e-001

1.08528346195813e+005,-5.49297001138307e-001,-9.78791446953731e-001

1.10043345451179e+005,-5.49294474954145e-001,-9.92455537917118e-001

1.11579493308032e+005,-5.49291878111353e-001,-1.00631040083400e+000

1.13137084989847e+005,-5.49289208644014e-001,-1.02035869997376e+000

1.14716419841265e+005,-5.49286464531976e-001,-1.03460313684740e+000

1.16317801385624e+005,-5.49283643699542e-001,-1.04904645072954e+000

1.17941537383287e+005,-5.49280744013969e-001,-1.06369141918747e+000

1.19587939890794e+005,-5.49277763283981e-001,-1.07854085861806e+000

1.21257325320831e+005,-5.49274699258052e-001,-1.09359762479207e+000

1.22950014503040e+005,-5.49271549622805e-001,-1.10886461340675e+000

1.24666332745679e+005,-5.49268312001620e-001,-1.12434476064443e+000

1.26406609898139e+005,-5.49264983952547e-001,-1.14004104374190e+000

1.28171180414339e+005,-5.49261562966919e-001,-1.15595648156472e+000

1.29960383416997e+005,-5.49258046467395e-001,-1.17209413519169e+000

1.31774562762811e+005,-5.49254431806076e-001,-1.18845710850795e+000

1.33614067108538e+005,-5.49250716262846e-001,-1.20504854880394e+000

1.35479249978003e+005,-5.49246897043258e-001,-1.22187164738587e+000

1.37370469830040e+005,-5.49242971276670e-001,-1.23892964019277e+000

1.39288090127379e+005,-5.49238936014204e-001,-1.25622580842287e+000

1.41232479406504e+005,-5.49234788226675e-001,-1.27376347916960e+000

1.43204011348474e+005,-5.49230524802556e-001,-1.29154602606493e+000

1.45203064850745e+005,-5.49226142545687e-001,-1.30957686993416e+000

1.47230024099979e+005,-5.49221638173046e-001,-1.32785947945792e+000

1.49285278645888e+005,-5.49217008312759e-001,-1.34639737184387e+000

1.51369223476094e+005,-5.49212249501393e-001,-1.36519411350954e+000

1.53482259092041e+005,-5.49207358181801e-001,-1.38425332077336e+000

1.55624791585964e+005,-5.49202330700670e-001,-1.40357866055552e+000

1.57797232718936e+005,-5.49197163306055e-001,-1.42317385108895e+000

1.59999999999999e+005,-5.49191852144580e-001,-1.44304266264230e+000

1.62233516766403e+005,-5.49186393259206e-001,-1.46318891824934e+000

1.64498212264969e+005,-5.49180782586221e-001,-1.48361649445257e+000

1.66794521734578e+005,-5.49175015952748e-001,-1.50432932205486e+000

1.69122886489819e+005,-5.49169089073833e-001,-1.52533138688325e+000

1.71483754005805e+005,-5.49162997549485e-001,-1.54662673056329e+000

1.73877578004168e+005,-5.49156736862038e-001,-1.56821945130313e+000

1.76304818540256e+005,-5.49150302372823e-001,-1.59011370469145e+000

1.78765942091554e+005,-5.49143689319375e-001,-1.61231370450418e+000

1.81261421647326e+005,-5.49136892812127e-001,-1.63482372352403e+000

1.83791736799524e+005,-5.49129907831297e-001,-1.65764809437189e+000

1.86357373834951e+005,-5.49122729223633e-001,-1.68079121034878e+000

1.88958825828723e+005,-5.49115351699040e-001,-1.70425752629201e+000

1.91596592739027e+005,-5.49107769827164e-001,-1.72805155944131e+000

1.94271181503206e+005,-5.49099978033899e-001,-1.75217789031866e+000

1.96983106135185e+005,-5.49091970597897e-001,-1.77664116362091e+000

1.99732887824256e+005,-5.49083741646937e-001,-1.80144608912366e+000

2.02521055035243e+005,-5.49075285154085e-001,-1.82659744260026e+000

2.05348143610063e+005,-5.49066594934034e-001,-1.85210006675207e+000

2.08214696870707e+005,-5.49057664639284e-001,-1.87795887215298e+000

2.11121265723661e+005,-5.49048487756078e-001,-1.90417883820751e+000

2.14068408765776e+005,-5.49039057600469e-001,-1.93076501412243e+000

2.17056692391625e+005,-5.49029367314193e-001,-1.95772251989195e+000

2.20086690902357e+005,-5.49019409860584e-001,-1.98505654729817e+000

2.23158986616063e+005,-5.49009178020218e-001,-2.01277236092419e+000

2.26274169979693e+005,-5.48998664386600e-001,-2.04087529918396e+000

2.29432839682530e+005,-5.48987861361820e-001,-2.06937077536497e+000

2.32635602771247e+005,-5.48976761151937e-001,-2.09826427868687e+000

2.35883074766574e+005,-5.48965355762551e-001,-2.12756137537538e+000

2.39175879781588e+005,-5.48953636994110e-001,-2.15726770975079e+000

2.42514650641661e+005,-5.48941596437077e-001,-2.18738900533385e+000

2.45900029006080e+005,-5.48929225467241e-001,-2.21793106596551e+000

2.49332665491357e+005,-5.48916515240727e-001,-2.24889977694448e+000

2.52813219796278e+005,-5.48903456689065e-001,-2.28030110618009e+000

2.56342360828676e+005,-5.48890040514235e-001,-2.31214110536200e+000

2.59920766833993e+005,-5.48876257183260e-001,-2.34442591114791e+000

2.63549125525621e+005,-5.48862096923260e-001,-2.37716174636596e+000

2.67228134217075e+005,-5.48847549716012e-001,-2.41035492123724e+000

2.70958499956006e+005,-5.48832605292658e-001,-2.44401183461403e+000

2.74740939660078e+005,-5.48817253128223e-001,-2.47813897523625e+000

2.78576180254757e+005,-5.48801482436081e-001,-2.51274292300693e+000

2.82464958813007e+005,-5.48785282162340e-001,-2.54783035028513e+000

2.86408022696948e+005,-5.48768640980235e-001,-2.58340802319778e+000

2.90406129701488e+005,-5.48751547284380e-001,-2.61948280297051e+000

2.94460048199957e+005,-5.48733989184872e-001,-2.65606164727784e+000

2.98570557291775e+005,-5.48715954501555e-001,-2.69315161161259e+000

3.02738446952187e+005,-5.48697430757941e-001,-2.73075985067528e+000

3.06964518184081e+005,-5.48678405175245e-001,-2.76889361978323e+000

3.11249583171928e+005,-5.48658864666416e-001,-2.80756027630049e+000

3.15594465437872e+005,-5.48638795829886e-001,-2.84676728108787e+000

3.19999999999997e+005,-5.48618184943419e-001,-2.88652219997451e+000

3.24467033532806e+005,-5.48597017957925e-001,-2.92683270524982e+000

3.28996424529938e+005,-5.48575280491157e-001,-2.96770657717794e+000

3.33589043469155e+005,-5.48552957821346e-001,-3.00915170553287e+000

3.38245772979638e+005,-5.48530034880855e-001,-3.05117609115692e+000

3.42967508011610e+005,-5.48506496249867e-001,-3.09378784754041e+000

3.47755156008335e+005,-5.48482326149672e-001,-3.13699520242528e+000

3.52609637080511e+005,-5.48457508436562e-001,-3.18080649943044e+000

3.57531884183106e+005,-5.48432026594990e-001,-3.22523019970190e+000

3.62522843294651e+005,-5.48405863731247e-001,-3.27027488358521e+000

3.67583473599047e+005,-5.48379002566869e-001,-3.31594925232300e+000

3.72714747669902e+005,-5.48351425432051e-001,-3.36226212977614e+000

3.77917651657445e+005,-5.48323114259086e-001,-3.40922246416985e+000

3.83193185478053e+005,-5.48294050575875e-001,-3.45683932986470e+000

3.88542363006410e+005,-5.48264215499224e-001,-3.50512192915288e+000

3.93966212270369e+005,-5.48233589728451e-001,-3.55407959408029e+000

3.99465775648511e+005,-5.48202153538644e-001,-3.60372178829427e+000

4.05042110070485e+005,-5.48169886774308e-001,-3.65405810891789e+000

4.10696287220124e+005,-5.48136768842824e-001,-3.70509828845068e+000

4.16429393741414e+005,-5.48102778707863e-001,-3.75685219669645e+000

4.22242531447321e+005,-5.48067894883016e-001,-3.80932984271868e+000

4.28136817531551e+005,-5.48032095425407e-001,-3.86254137682292e+000

4.34113384783250e+005,-5.47995357929302e-001,-3.91649709256743e+000

4.40173381804713e+005,-5.47957659519863e-001,-3.97120742880265e+000

4.46317973232124e+005,-5.47918976846757e-001,-4.02668297173864e+000

4.52548339959385e+005,-5.47879286078090e-001,-4.08293445704181e+000

4.58865679365059e+005,-5.47838562894197e-001,-4.13997277196115e+000

4.65271205542494e+005,-5.47796782481596e-001,-4.19780895748411e+000

4.71766149533147e+005,-5.47753919527008e-001,-4.25645421052210e+000

4.78351759563174e+005,-5.47709948211508e-001,-4.31591988612688e+000

4.85029301283321e+005,-5.47664842204488e-001,-4.37621749973771e+000

4.91800058012158e+005,-5.47618574658113e-001,-4.43735872945901e+000

4.98665330982714e+005,-5.47571118201534e-001,-4.49935541837015e+000

5.05626439592555e+005,-5.47522444935391e-001,-4.56221957686651e+000

5.12684721657352e+005,-5.47472526426154e-001,-4.62596338503291e+000

5.19841533667984e+005,-5.47421333700850e-001,-4.69059919504937e+000

5.27098251051240e+005,-5.47368837241740e-001,-4.75613953362974e+000

5.34456268434150e+005,-5.47315006980852e-001,-4.82259710449355e+000

5.41916999912011e+005,-5.47259812295111e-001,-4.88998479087134e+000

