Freq.,VOut,OutRef

1.00000000000000e+004,-1.87778682403579e+001,-1.88663900008708e-001

1.01395947979003e+004,-1.87778686775624e+001,-1.91297542280455e-001

1.02811382665607e+004,-1.87778691270579e+001,-1.93967948504925e-001

1.04246576084112e+004,-1.87778695891901e+001,-1.96675631874093e-001

1.05701804056138e+004,-1.87778700643144e+001,-1.99421112741306e-001

1.07177346253629e+004,-1.87778705527957e+001,-2.02204918727162e-001

1.08673486252606e+004,-1.87778710550098e+001,-2.05027584813332e-001

1.10190511587661e+004,-1.87778715713426e+001,-2.07889653451790e-001

1.11728713807222e+004,-1.87778721021911e+001,-2.10791674663319e-001

1.13288388529580e+004,-1.87778726479633e+001,-2.13734206148035e-001

1.14869835499703e+004,-1.87778732090787e+001,-2.16717813389728e-001

1.16473358646846e+004,-1.87778737859688e+001,-2.19743069765457e-001

1.18099266142953e+004,-1.87778743790767e+001,-2.22810556655960e-001

1.19747870461893e+004,-1.87778749888587e+001,-2.25920863556179e-001

1.21419488439505e+004,-1.87778756157834e+001,-2.29074588189070e-001

1.23114441334492e+004,-1.87778762603328e+001,-2.32272336620107e-001

1.24833054890161e+004,-1.87778769230021e+001,-2.35514723376907e-001

1.26575659397028e+004,-1.87778776043009e+001,-2.38802371561638e-001

1.28342589756290e+004,-1.87778783047528e+001,-2.42135912975350e-001

1.30134185544193e+004,-1.87778790248964e+001,-2.45515988235256e-001

1.31950791077289e+004,-1.87778797652850e+001,-2.48943246903670e-001

1.33792755478611e+004,-1.87778805264880e+001,-2.52418347605544e-001

1.35660432744767e+004,-1.87778813090902e+001,-2.55941958162203e-001

1.37554181813974e+004,-1.87778821136935e+001,-2.59514755713104e-001

1.39474366635040e+004,-1.87778829409161e+001,-2.63137426851501e-001

1.41421356237309e+004,-1.87778837913939e+001,-2.66810667750858e-001

1.43395524801583e+004,-1.87778846657808e+001,-2.70535184303685e-001

1.45397251732031e+004,-1.87778855647488e+001,-2.74311692254468e-001

1.47426921729110e+004,-1.87778864889889e+001,-2.78140917336368e-001

1.49484924863494e+004,-1.87778874392115e+001,-2.82023595413021e-001

1.51571656651040e+004,-1.87778884161469e+001,-2.85960472618418e-001

1.53687518128801e+004,-1.87778894205462e+001,-2.89952305499936e-001

1.55832915932100e+004,-1.87778904531814e+001,-2.93999861163739e-001

1.58008262372675e+004,-1.87778915148460e+001,-2.98103917424291e-001

1.60213975517924e+004,-1.87778926063564e+001,-3.02265262948713e-001

1.62450479271247e+004,-1.87778937285512e+001,-3.06484697415114e-001

1.64718203453514e+004,-1.87778948822932e+001,-3.10763031659751e-001

1.67017583885674e+004,-1.87778960684691e+001,-3.15101087836613e-001

1.69349062472505e+004,-1.87778972879905e+001,-3.19499699574261e-001

1.71713087287550e+004,-1.87778985417950e+001,-3.23959712134139e-001

1.74110112659224e+004,-1.87778998308461e+001,-3.28481982576948e-001

1.76540599258131e+004,-1.87779011561346e+001,-3.33067379922814e-001

1.79005014185594e+004,-1.87779025186792e+001,-3.37716785321462e-001

1.81503831063432e+004,-1.87779039195270e+001,-3.42431092218979e-001

1.84037530124975e+004,-1.87779053597546e+001,-3.47211206531757e-001

1.86606598307361e+004,-1.87779068404694e+001,-3.52058046816163e-001

1.89211529345119e+004,-1.87779083628089e+001,-3.56972544452230e-001

1.91852823865052e+004,-1.87779099279434e+001,-3.61955643814454e-001

1.94530989482457e+004,-1.87779115370759e+001,-3.67008302457873e-001

1.97246540898671e+004,-1.87779131914429e+001,-3.72131491301322e-001

1.99999999999999e+004,-1.87779148923159e+001,-3.77326194812129e-001

2.02791895958005e+004,-1.87779166410023e+001,-3.82593411196875e-001

2.05622765331213e+004,-1.87779184388458e+001,-3.87934152592160e-001

2.08493152168224e+004,-1.87779202872282e+001,-3.93349445258810e-001

2.11403608112276e+004,-1.87779221875702e+001,-3.98840329778888e-001

2.14354692507258e+004,-1.87779241413320e+001,-4.04407861256328e-001

2.17346972505211e+004,-1.87779261500153e+001,-4.10053109517783e-001

2.20381023175322e+004,-1.87779282151636e+001,-4.15777159319430e-001

2.23457427614443e+004,-1.87779303383641e+001,-4.21581110554807e-001

2.26576777059159e+004,-1.87779325212485e+001,-4.27466078464901e-001

2.29739670999406e+004,-1.87779347654942e+001,-4.33433193852662e-001

2.32946717293690e+004,-1.87779370728260e+001,-4.39483603301363e-001

2.36198532285905e+004,-1.87779394450169e+001,-4.45618469393020e-001

2.39495740923785e+004,-1.87779418838898e+001,-4.51838970931538e-001

2.42838976879009e+004,-1.87779443913190e+001,-4.58146303170000e-001

2.46228882668982e+004,-1.87779469692312e+001,-4.64541678037654e-001

2.49666109780322e+004,-1.87779496196074e+001,-4.71026324376376e-001

2.53151318794055e+004,-1.87779523444842e+001,-4.77601488171456e-001

2.56685179512580e+004,-1.87779551459555e+001,-4.84268432794735e-001

2.60268371088386e+004,-1.87779580261738e+001,-4.91028439245798e-001

2.63901582154578e+004,-1.87779609873525e+001,-4.97882806395365e-001

2.67585510957221e+004,-1.87779640317667e+001,-5.04832851237717e-001

2.71320865489533e+004,-1.87779671617557e+001,-5.11879909141172e-001

2.75108363627948e+004,-1.87779703797245e+001,-5.19025334105532e-001

2.78948733270080e+004,-1.87779736881457e+001,-5.26270499020037e-001

2.82842712474618e+004,-1.87779770895611e+001,-5.33616795928894e-001

2.86791049603164e+004,-1.87779805865841e+001,-5.41065636295518e-001

2.90794503464061e+004,-1.87779841819018e+001,-5.48618451274701e-001

2.94853843458219e+004,-1.87779878782762e+001,-5.56276691988238e-001

2.98969849726987e+004,-1.87779916785472e+001,-5.64041829799162e-001

3.03143313302078e+004,-1.87779955856346e+001,-5.71915356598621e-001

3.07375036257601e+004,-1.87779996025399e+001,-5.79898785087897e-001

3.11665831864199e+004,-1.87780037323491e+001,-5.87993649070630e-001

3.16016524745350e+004,-1.87780079782349e+001,-5.96201503745338e-001

3.20427951035848e+004,-1.87780123434590e+001,-6.04523926004972e-001

3.24900958542493e+004,-1.87780168313748e+001,-6.12962514737280e-001

3.29436406907028e+004,-1.87780214454298e+001,-6.21518891132205e-001

3.34035167771346e+004,-1.87780261891684e+001,-6.30194698992920e-001

3.38698124945009e+004,-1.87780310662345e+001,-6.38991605049722e-001

3.43426174575100e+004,-1.87780360803743e+001,-6.47911299278883e-001

3.48220225318448e+004,-1.87780412354391e+001,-6.56955495228303e-001

3.53081198516260e+004,-1.87780465353887e+001,-6.66125930343397e-001

3.58010028371187e+004,-1.87780519842938e+001,-6.75424366301294e-001

3.63007662126863e+004,-1.87780575863395e+001,-6.84852589347154e-001

3.68075060249948e+004,-1.87780633458282e+001,-6.94412410637696e-001

3.73213196614721e+004,-1.87780692671834e+001,-7.04105666585653e-001

3.78423058690237e+004,-1.87780753549527e+001,-7.13934219212858e-001

3.83705647730104e+004,-1.87780816138113e+001,-7.23899956506104e-001

3.89061978964912e+004,-1.87780880485656e+001,-7.34004792778962e-001

3.94493081797342e+004,-1.87780946641572e+001,-7.44250669036182e-001

3.99999999999998e+004,-1.87781014656660e+001,-7.54639553348637e-001

4.05583791916010e+004,-1.87781084583149e+001,-7.65173441225636e-001

4.11245530662425e+004,-1.87781156474732e+001,-7.75854355998919e-001

4.16986304336447e+004,-1.87781230386609e+001,-7.86684349209825e-001

4.22807216224550e+004,-1.87781306375530e+001,-7.97665501000274e-001

4.28709385014515e+004,-1.87781384499837e+001,-8.08799920511585e-001

4.34693945010421e+004,-1.87781464819508e+001,-8.20089746287222e-001

4.40762046350642e+004,-1.87781547396209e+001,-8.31537146680113e-001

4.46914855228886e+004,-1.87781632293331e+001,-8.43144320270141e-001

4.53153554118317e+004,-1.87781719576046e+001,-8.54913496281848e-001

4.59479341998812e+004,-1.87781809311355e+001,-8.66846935009619e-001

4.65893434587380e+004,-1.87781901568137e+001,-8.78946928252861e-001

4.72397064571810e+004,-1.87781996417205e+001,-8.91215799749429e-001

4.78991481847569e+004,-1.87782093931359e+001,-9.03655905622363e-001

4.85677953758016e+004,-1.87782194185439e+001,-9.16269634828502e-001

4.92457765337964e+004,-1.87782297256387e+001,-9.29059409614239e-001

4.99332219560642e+004,-1.87782403223300e+001,-9.42027685978051e-001

5.06302637588109e+004,-1.87782512167495e+001,-9.55176954139977e-001

5.13370359025159e+004,-1.87782624172570e+001,-9.68509739014563e-001

5.20536742176771e+004,-1.87782739324466e+001,-9.82028600693885e-001

5.27803164309155e+004,-1.87782857711534e+001,-9.95736134935894e-001

5.35171021914442e+004,-1.87782979424603e+001,-1.00963497365813e+000

5.42641730979066e+004,-1.87783104557048e+001,-1.02372778543977e+000

5.50216727255895e+004,-1.87783233204862e+001,-1.03801727603064e+000

5.57897466540159e+004,-1.87783365466727e+001,-1.05250618886648e+000

5.65685424949235e+004,-1.87783501444093e+001,-1.06719730559002e+000

5.73582099206328e+004,-1.87783641241254e+001,-1.08209344658229e+000

5.81589006928121e+004,-1.87783784965425e+001,-1.09719747149944e+000

5.89707686916437e+004,-1.87783932726824e+001,-1.11251227981521e+000

5.97939699453972e+004,-1.87784084638761e+001,-1.12804081137490e+000

6.06286626604156e+004,-1.87784240817718e+001,-1.14378604695205e+000

6.14750072515201e+004,-1.87784401383440e+001,-1.15975100881769e+000

6.23331663728396e+004,-1.87784566459028e+001,-1.17593876131193e+000

6.32033049490698e+004,-1.87784736171029e+001,-1.19235241142961e+000

6.40855902071694e+004,-1.87784910649534e+001,-1.20899510940755e+000

6.49801917084985e+004,-1.87785090028279e+001,-1.22587004932407e+000

6.58872813814055e+004,-1.87785274444743e+001,-1.24298046970513e+000

6.68070335542691e+004,-1.87785464040253e+001,-1.26032965413943e+000

6.77396249890018e+004,-1.87785658960093e+001,-1.27792093190066e+000

6.86852349150199e+004,-1.87785859353614e+001,-1.29575767857858e+000

6.96440450636895e+004,-1.87786065374345e+001,-1.31384331671990e+000

7.06162397032520e+004,-1.87786277180112e+001,-1.33218131647599e+000

7.16020056742374e+004,-1.87786494933158e+001,-1.35077519626001e+000

7.26015324253724e+004,-1.87786718800262e+001,-1.36962852341419e+000

7.36150120499896e+004,-1.87786948952871e+001,-1.38874491488403e+000

7.46426393229441e+004,-1.87787185567224e+001,-1.40812803790279e+000

7.56846117380472e+004,-1.87787428824490e+001,-1.42778161068443e+000

7.67411295460207e+004,-1.87787678910903e+001,-1.44770940312755e+000

7.78123957929823e+004,-1.87787936017901e+001,-1.46791523752699e+000

7.88986163594682e+004,-1.87788200342275e+001,-1.48840298929560e+000

7.99999999999995e+004,-1.87788472086315e+001,-1.50917658769478e+000

8.11167583832018e+004,-1.87788751457962e+001,-1.53024001657736e+000

8.22491061324848e+004,-1.87789038670967e+001,-1.55159731513810e+000

8.33972608672892e+004,-1.87789333945050e+001,-1.57325257867466e+000

8.45614432449099e+004,-1.87789637506068e+001,-1.59520995935859e+000

8.57418770029029e+004,-1.87789949586184e+001,-1.61747366701753e+000

8.69387890020841e+004,-1.87790270424041e+001,-1.64004796992760e+000

8.81524092701283e+004,-1.87790600264943e+001,-1.66293719561444e+000

8.93829710457770e+004,-1.87790939361037e+001,-1.68614573166840e+000

9.06307108236633e+004,-1.87791287971508e+001,-1.70967802656623e+000

9.18958683997622e+004,-1.87791646362767e+001,-1.73353859050834e+000

9.31786869174758e+004,-1.87792014808656e+001,-1.75773199626201e+000

9.44794129143618e+004,-1.87792393590650e+001,-1.78226288002129e+000

9.57982963695136e+004,-1.87792782998070e+001,-1.80713594227272e+000

9.71355907516031e+004,-1.87793183328300e+001,-1.83235594867693e+000

9.84915530675926e+004,-1.87793594887008e+001,-1.85792773095872e+000

9.98664439121282e+004,-1.87794017988376e+001,-1.88385618781050e+000

1.01260527517622e+005,-1.87794452955334e+001,-1.91014628580724e+000

1.02674071805032e+005,-1.87794900119803e+001,-1.93680306033290e+000

1.04107348435354e+005,-1.87795359822938e+001,-1.96383161651916e+000

1.05560632861831e+005,-1.87795832415391e+001,-1.99123713019602e+000

1.07034204382888e+005,-1.87796318257561e+001,-2.01902484885642e+000

1.08528346195813e+005,-1.87796817719873e+001,-2.04720009263058e+000

1.10043345451179e+005,-1.87797331183045e+001,-2.07576825527557e+000

1.11579493308032e+005,-1.87797859038377e+001,-2.10473480517500e+000

1.13137084989847e+005,-1.87798401688040e+001,-2.13410528635475e+000

1.14716419841265e+005,-1.87798959545369e+001,-2.16388531950934e+000

1.16317801385624e+005,-1.87799533035178e+001,-2.19408060304149e+000

1.17941537383287e+005,-1.87800122594069e+001,-2.22469691411666e+000

1.19587939890794e+005,-1.87800728670753e+001,-2.25574010972926e+000

1.21257325320831e+005,-1.87801351726388e+001,-2.28721612778394e+000

1.22950014503040e+005,-1.87801992234912e+001,-2.31913098818871e+000

1.24666332745679e+005,-1.87802650683398e+001,-2.35149079396421e+000

1.26406609898139e+005,-1.87803327572410e+001,-2.38430173236440e+000

1.28171180414339e+005,-1.87804023416369e+001,-2.41757007601394e+000

1.29960383416997e+005,-1.87804738743934e+001,-2.45130218405831e+000

1.31774562762811e+005,-1.87805474098390e+001,-2.48550450332754e+000

1.33614067108538e+005,-1.87806230038040e+001,-2.52018356951717e+000

1.35479249978003e+005,-1.87807007136623e+001,-2.55534600838077e+000

1.37370469830040e+005,-1.87807805983722e+001,-2.59099853693962e+000

1.39288090127379e+005,-1.87808627185204e+001,-2.62714796470589e+000

1.41232479406504e+005,-1.87809471363653e+001,-2.66380119492176e+000

1.43204011348474e+005,-1.87810339158830e+001,-2.70096522581234e+000

1.45203064850745e+005,-1.87811231228131e+001,-2.73864715185685e+000

1.47230024099979e+005,-1.87812148247068e+001,-2.77685416507095e+000

1.49285278645888e+005,-1.87813090909755e+001,-2.81559355630929e+000

1.51369223476094e+005,-1.87814059929412e+001,-2.85487271657898e+000

1.53482259092041e+005,-1.87815056038877e+001,-2.89469913837427e+000

1.55624791585964e+005,-1.87816079991136e+001,-2.93508041702194e+000

1.57797232718936e+005,-1.87817132559861e+001,-2.97602425204609e+000

1.59999999999999e+005,-1.87818214539968e+001,-3.01753844854847e+000

1.62233516766403e+005,-1.87819326748186e+001,-3.05963091860455e+000

1.64498212264969e+005,-1.87820470023639e+001,-3.10230968267581e+000

1.66794521734578e+005,-1.87821645228443e+001,-3.14558287104035e+000

1.69122886489819e+005,-1.87822853248325e+001,-3.18945872523744e+000

1.71483754005805e+005,-1.87824094993246e+001,-3.23394559953212e+000

1.73877578004168e+005,-1.87825371398051e+001,-3.27905196239314e+000

1.76304818540256e+005,-1.87826683423125e+001,-3.32478639799081e+000

1.78765942091554e+005,-1.87828032055075e+001,-3.37115760771071e+000

1.81261421647326e+005,-1.87829418307422e+001,-3.41817441168440e+000

1.83791736799524e+005,-1.87830843221312e+001,-3.46584575033799e+000

1.86357373834951e+005,-1.87832307866246e+001,-3.51418068595817e+000

1.88958825828723e+005,-1.87833813340831e+001,-3.56318840427455e+000

1.91596592739027e+005,-1.87835360773536e+001,-3.61287821606195e+000

1.94271181503206e+005,-1.87836951323488e+001,-3.66325955875751e+000

1.96983106135185e+005,-1.87838586181267e+001,-3.71434199809785e+000

1.99732887824256e+005,-1.87840266569729e+001,-3.76613522977274e+000

2.02521055035243e+005,-1.87841993744854e+001,-3.81864908109771e+000

2.05348143610063e+005,-1.87843768996606e+001,-3.87189351270300e+000

2.08214696870707e+005,-1.87845593649814e+001,-3.92587862024311e+000

2.11121265723661e+005,-1.87847469065080e+001,-3.98061463612144e+000

2.14068408765776e+005,-1.87849396639707e+001,-4.03611193123599e+000

2.17056692391625e+005,-1.87851377808641e+001,-4.09238101674082e+000

2.20086690902357e+005,-1.87853414045446e+001,-4.14943254582807e+000

2.23158986616063e+005,-1.87855506863294e+001,-4.20727731552637e+000

2.26274169979693e+005,-1.87857657815987e+001,-4.26592626851866e+000

2.29432839682530e+005,-1.87859868498988e+001,-4.32539049497852e+000

2.32635602771247e+005,-1.87862140550491e+001,-4.38568123442434e+000

2.35883074766574e+005,-1.87864475652507e+001,-4.44680987759219e+000

2.39175879781588e+005,-1.87866875531975e+001,-4.50878796832813e+000

2.42514650641661e+005,-1.87869341961903e+001,-4.57162720549720e+000

2.45900029006080e+005,-1.87871876762530e+001,-4.63533944491302e+000

2.49332665491357e+005,-1.87874481802515e+001,-4.69993670128361e+000

2.52813219796278e+005,-1.87877159000153e+001,-4.76543115017889e+000

2.56342360828676e+005,-1.87879910324618e+001,-4.83183513001382e+000

2.59920766833993e+005,-1.87882737797234e+001,-4.89916114405142e+000

2.63549125525621e+005,-1.87885643492771e+001,-4.96742186242468e+000

2.67228134217075e+005,-1.87888629540773e+001,-5.03663012417656e+000

2.70958499956006e+005,-1.87891698126909e+001,-5.10679893931856e+000

2.74740939660078e+005,-1.87894851494359e+001,-5.17794149090779e+000

2.78576180254757e+005,-1.87898091945227e+001,-5.25007113714314e+000

2.82464958813007e+005,-1.87901421841978e+001,-5.32320141347931e+000

2.86408022696948e+005,-1.87904843608918e+001,-5.39734603475936e+000

2.90406129701488e+005,-1.87908359733689e+001,-5.47251889736661e+000

2.94460048199957e+005,-1.87911972768808e+001,-5.54873408139377e+000

2.98570557291775e+005,-1.87915685333229e+001,-5.62600585283146e+000

3.02738446952187e+005,-1.87919500113938e+001,-5.70434866577453e+000

3.06964518184081e+005,-1.87923419867586e+001,-5.78377716464722e+000

3.11249583171928e+005,-1.87927447422144e+001,-5.86430618644607e+000

3.15594465437872e+005,-1.87931585678600e+001,-5.94595076300167e+000

3.19999999999997e+005,-1.87935837612683e+001,-6.02872612325869e+000

3.24467033532806e+005,-1.87940206276623e+001,-6.11264769557382e+000

3.28996424529938e+005,-1.87944694800942e+001,-6.19773111003216e+000

3.33589043469155e+005,-1.87949306396287e+001,-6.28399220078152e+000

3.38245772979638e+005,-1.87954044355285e+001,-6.37144700838605e+000

3.42967508011610e+005,-1.87958912054440e+001,-6.46011178219636e+000

3.47755156008335e+005,-1.87963912956068e+001,-6.55000298273883e+000

3.52609637080511e+005,-1.87969050610256e+001,-6.64113728412354e+000

3.57531884183106e+005,-1.87974328656871e+001,-6.73353157646941e+000

3.62522843294651e+005,-1.87979750827591e+001,-6.82720296834818e+000

3.67583473599047e+005,-1.87985320947981e+001,-6.92216878924648e+000

3.72714747669902e+005,-1.87991042939604e+001,-7.01844659204595e+000

3.77917651657445e+005,-1.87996920822161e+001,-7.11605415552242e+000

3.83193185478053e+005,-1.88002958715684e+001,-7.21500948686282e+000

3.88542363006410e+005,-1.88009160842744e+001,-7.31533082420077e+000

3.93966212270369e+005,-1.88015531530720e+001,-7.41703663917092e+000

3.99465775648511e+005,-1.88022075214085e+001,-7.52014563948203e+000

4.05042110070485e+005,-1.88028796436746e+001,-7.62467677150822e+000

4.10696287220124e+005,-1.88035699854411e+001,-7.73064922290020e+000

4.16429393741414e+005,-1.88042790237001e+001,-7.83808242521523e+000

4.22242531447321e+005,-1.88050072471096e+001,-7.94699605656599e+000

4.28136817531551e+005,-1.88057551562429e+001,-8.05741004428955e+000

4.34113384783250e+005,-1.88065232638407e+001,-8.16934456763618e+000

4.40173381804713e+005,-1.88073120950682e+001,-8.28282006047769e+000

4.46317973232124e+005,-1.88081221877759e+001,-8.39785721403650e+000

4.52548339959385e+005,-1.88089540927642e+001,-8.51447697963548e+000

4.58865679365059e+005,-1.88098083740527e+001,-8.63270057146840e+000

4.65271205542494e+005,-1.88106856091531e+001,-8.75254946939225e+000

4.71766149533147e+005,-1.88115863893466e+001,-8.87404542174072e+000

4.78351759563174e+005,-1.88125113199657e+001,-8.99721044816011e+000

4.85029301283321e+005,-1.88134610206800e+001,-9.12206684246876e+000

4.91800058012158e+005,-1.88144361257871e+001,-9.24863717553774e+000

4.98665330982714e+005,-1.88154372845068e+001,-9.37694429819719e+000

5.05626439592555e+005,-1.88164651612811e+001,-9.50701134416557e+000

5.12684721657352e+005,-1.88175204360784e+001,-9.63886173300394e+000

5.19841533667984e+005,-1.88186038047024e+001,-9.77251917309641e+000

5.27098251051240e+005,-1.88197159791061e+001,-9.90800766465468e+000

5.34456268434150e+005,-1.88208576877104e+001,-1.00453515027516e+001

5.41916999912011e+005,-1.88220296757286e+001,-1.01845752803802e+001

