Freq.,VOut,OutRef

1.00000000000000e+004,-2.29014001561215e+001,-1.64177505037221e-001

1.01395947979003e+004,-2.29014006152626e+001,-1.66469329238464e-001

1.02811382665607e+004,-2.29014010873116e+001,-1.68793145757639e-001

1.04246576084112e+004,-2.29014015726312e+001,-1.71149401177191e-001

1.05701804056138e+004,-2.29014020715946e+001,-1.73538548310719e-001

1.07177346253629e+004,-2.29014025845854e+001,-1.75961046292464e-001

1.08673486252606e+004,-2.29014031119978e+001,-1.78417360667235e-001

1.10190511587661e+004,-2.29014036542374e+001,-1.80907963474928e-001

1.11728713807222e+004,-2.29014042117208e+001,-1.83433333347288e-001

1.13288388529580e+004,-2.29014047848768e+001,-1.85993955593452e-001

1.14869835499703e+004,-2.29014053741458e+001,-1.88590322299014e-001

1.16473358646846e+004,-2.29014059799807e+001,-1.91222932416957e-001

1.18099266142953e+004,-2.29014066028473e+001,-1.93892291864937e-001

1.19747870461893e+004,-2.29014072432246e+001,-1.96598913620241e-001

1.21419488439505e+004,-2.29014079016044e+001,-1.99343317823215e-001

1.23114441334492e+004,-2.29014085784931e+001,-2.02126031870986e-001

1.24833054890161e+004,-2.29014092744110e+001,-2.04947590523656e-001

1.26575659397028e+004,-2.29014099898928e+001,-2.07808536005239e-001

1.28342589756290e+004,-2.29014107254888e+001,-2.10709418106082e-001

1.30134185544193e+004,-2.29014114817642e+001,-2.13650794292138e-001

1.31950791077289e+004,-2.29014122593005e+001,-2.16633229808813e-001

1.33792755478611e+004,-2.29014130586952e+001,-2.19657297791397e-001

1.35660432744767e+004,-2.29014138805629e+001,-2.22723579374238e-001

1.37554181813974e+004,-2.29014147255352e+001,-2.25832663802550e-001

1.39474366635040e+004,-2.29014155942617e+001,-2.28985148545486e-001

1.41421356237309e+004,-2.29014164874100e+001,-2.32181639411664e-001

1.43395524801583e+004,-2.29014174056669e+001,-2.35422750663503e-001

1.45397251732031e+004,-2.29014183497381e+001,-2.38709105138098e-001

1.47426921729110e+004,-2.29014193203490e+001,-2.42041334365498e-001

1.49484924863494e+004,-2.29014203182459e+001,-2.45420078687744e-001

1.51571656651040e+004,-2.29014213441960e+001,-2.48845987384310e-001

1.53687518128801e+004,-2.29014223989874e+001,-2.52319718799097e-001

1.55832915932100e+004,-2.29014234834311e+001,-2.55841940461140e-001

1.58008262372675e+004,-2.29014245983607e+001,-2.59413329216416e-001

1.60213975517924e+004,-2.29014257446330e+001,-2.63034571357116e-001

1.62450479271247e+004,-2.29014269231293e+001,-2.66706362753089e-001

1.64718203453514e+004,-2.29014281347551e+001,-2.70429408987587e-001

1.67017583885674e+004,-2.29014293804418e+001,-2.74204425488399e-001

1.69349062472505e+004,-2.29014306611468e+001,-2.78032137668864e-001

1.71713087287550e+004,-2.29014319778546e+001,-2.81913281065902e-001

1.74110112659224e+004,-2.29014333315769e+001,-2.85848601482019e-001

1.76540599258131e+004,-2.29014347233544e+001,-2.89838855126496e-001

1.79005014185594e+004,-2.29014361542568e+001,-2.93884808761604e-001

1.81503831063432e+004,-2.29014376253838e+001,-2.97987239851518e-001

1.84037530124975e+004,-2.29014391378659e+001,-3.02146936709212e-001

1.86606598307361e+004,-2.29014406928657e+001,-3.06364698649104e-001

1.89211529345119e+004,-2.29014422915785e+001,-3.10641336137073e-001

1.91852823865052e+004,-2.29014439352327e+001,-3.14977670953574e-001

1.94530989482457e+004,-2.29014456250915e+001,-3.19374536344033e-001

1.97246540898671e+004,-2.29014473624539e+001,-3.23832777180204e-001

1.99999999999999e+004,-2.29014491486548e+001,-3.28353250126789e-001

2.02791895958005e+004,-2.29014509850673e+001,-3.32936823798884e-001

2.05622765331213e+004,-2.29014528731024e+001,-3.37584378935965e-001

2.08493152168224e+004,-2.29014548142113e+001,-3.42296808564027e-001

2.11403608112276e+004,-2.29014568098855e+001,-3.47075018172493e-001

2.14354692507258e+004,-2.29014588616589e+001,-3.51919925884217e-001

2.17346972505211e+004,-2.29014609711083e+001,-3.56832462633462e-001

2.20381023175322e+004,-2.29014631398545e+001,-3.61813572343886e-001

2.23457427614443e+004,-2.29014653695645e+001,-3.66864212109631e-001

2.26576777059159e+004,-2.29014676619514e+001,-3.71985352380431e-001

2.29739670999406e+004,-2.29014700187769e+001,-3.77177977145263e-001

2.32946717293690e+004,-2.29014724418523e+001,-3.82443084120798e-001

2.36198532285905e+004,-2.29014749330394e+001,-3.87781684947638e-001

2.39495740923785e+004,-2.29014774942525e+001,-3.93194805377804e-001

2.42838976879009e+004,-2.29014801274596e+001,-3.98683485476607e-001

2.46228882668982e+004,-2.29014828346843e+001,-4.04248779817934e-001

2.49666109780322e+004,-2.29014856180067e+001,-4.09891757691260e-001

2.53151318794055e+004,-2.29014884795656e+001,-4.15613503301377e-001

2.56685179512580e+004,-2.29014914215595e+001,-4.21415115980741e-001

2.60268371088386e+004,-2.29014944462492e+001,-4.27297710396848e-001

2.63901582154578e+004,-2.29014975559586e+001,-4.33262416769625e-001

2.67585510957221e+004,-2.29015007530770e+001,-4.39310381082889e-001

2.71320865489533e+004,-2.29015040400609e+001,-4.45442765309855e-001

2.75108363627948e+004,-2.29015074194358e+001,-4.51660747631161e-001

2.78948733270080e+004,-2.29015108937980e+001,-4.57965522663031e-001

2.82842712474618e+004,-2.29015144658169e+001,-4.64358301685471e-001

2.86791049603164e+004,-2.29015181382367e+001,-4.70840312875875e-001

2.90794503464061e+004,-2.29015219138789e+001,-4.77412801541040e-001

2.94853843458219e+004,-2.29015257956442e+001,-4.84077030358833e-001

2.98969849726987e+004,-2.29015297865146e+001,-4.90834279618747e-001

3.03143313302078e+004,-2.29015338895560e+001,-4.97685847468285e-001

3.07375036257601e+004,-2.29015381079203e+001,-5.04633050158980e-001

3.11665831864199e+004,-2.29015424448481e+001,-5.11677222301355e-001

3.16016524745350e+004,-2.29015469036710e+001,-5.18819717118893e-001

3.20427951035848e+004,-2.29015514878139e+001,-5.26061906707868e-001

3.24900958542493e+004,-2.29015562007981e+001,-5.33405182300160e-001

3.29436406907028e+004,-2.29015610462439e+001,-5.40850954527419e-001

3.34035167771346e+004,-2.29015660278729e+001,-5.48400653695327e-001

3.38698124945009e+004,-2.29015711495115e+001,-5.56055730053575e-001

3.43426174575100e+004,-2.29015764150935e+001,-5.63817654073505e-001

3.48220225318448e+004,-2.29015818286629e+001,-5.71687916733227e-001

3.53081198516260e+004,-2.29015873943778e+001,-5.79668029798157e-001

3.58010028371187e+004,-2.29015931165124e+001,-5.87759526113823e-001

3.63007662126863e+004,-2.29015989994613e+001,-5.95963959896469e-001

3.68075060249948e+004,-2.29016050477424e+001,-6.04282907032406e-001

3.73213196614721e+004,-2.29016112660003e+001,-6.12717965377651e-001

3.78423058690237e+004,-2.29016176590102e+001,-6.21270755064402e-001

3.83705647730104e+004,-2.29016242316811e+001,-6.29942918811560e-001

3.89061978964912e+004,-2.29016309890601e+001,-6.38736122236109e-001

3.94493081797342e+004,-2.29016379363356e+001,-6.47652054173324e-001

3.99999999999998e+004,-2.29016450788419e+001,-6.56692427000537e-001

4.05583791916010e+004,-2.29016524220629e+001,-6.65858976961758e-001

4.11245530662425e+004,-2.29016599716364e+001,-6.75153464500313e-001

4.16986304336447e+004,-2.29016677333585e+001,-6.84577674595907e-001

4.22807216224550e+004,-2.29016757131877e+001,-6.94133417105077e-001

4.28709385014515e+004,-2.29016839172501e+001,-7.03822527105540e-001

4.34693945010421e+004,-2.29016923518433e+001,-7.13646865248426e-001

4.40762046350642e+004,-2.29017010234418e+001,-7.23608318111240e-001

4.46914855228886e+004,-2.29017099387017e+001,-7.33708798560514e-001

4.53153554118317e+004,-2.29017191044659e+001,-7.43950246113369e-001

4.59479341998812e+004,-2.29017285277691e+001,-7.54334627311179e-001

4.65893434587380e+004,-2.29017382158434e+001,-7.64863936090959e-001

4.72397064571810e+004,-2.29017481761238e+001,-7.75540194168255e-001

4.78991481847569e+004,-2.29017584162539e+001,-7.86365451421358e-001

4.85677953758016e+004,-2.29017689440913e+001,-7.97341786281839e-001

4.92457765337964e+004,-2.29017797677143e+001,-8.08471306130912e-001

4.99332219560642e+004,-2.29017908954277e+001,-8.19756147700510e-001

5.06302637588109e+004,-2.29018023357691e+001,-8.31198477479820e-001

5.13370359025159e+004,-2.29018140975153e+001,-8.42800492129721e-001

5.20536742176771e+004,-2.29018261896894e+001,-8.54564418898094e-001

5.27803164309155e+004,-2.29018386215673e+001,-8.66492516044940e-001

5.35171021914442e+004,-2.29018514026850e+001,-8.78587073272422e-001

5.42641730979066e+004,-2.29018645428457e+001,-8.90850412159731e-001

5.50216727255895e+004,-2.29018780521273e+001,-9.03284886603982e-001

5.57897466540159e+004,-2.29018919408901e+001,-9.15892883269169e-001

5.65685424949235e+004,-2.29019062197851e+001,-9.28676822036515e-001

5.73582099206328e+004,-2.29019208997610e+001,-9.41639156467906e-001

5.81589006928121e+004,-2.29019359920738e+001,-9.54782374269622e-001

5.89707686916437e+004,-2.29019515082946e+001,-9.68108997764542e-001

5.97939699453972e+004,-2.29019674603186e+001,-9.81621584370666e-001

6.06286626604156e+004,-2.29019838603742e+001,-9.95322727086913e-001

6.14750072515201e+004,-2.29020007210320e+001,-1.00921505498496e+000

6.23331663728396e+004,-2.29020180552151e+001,-1.02330123370542e+000

6.32033049490698e+004,-2.29020358762078e+001,-1.03758396596633e+000

6.40855902071694e+004,-2.29020541976668e+001,-1.05206599207134e+000

6.49801917084985e+004,-2.29020730336307e+001,-1.06675009043098e+000

6.58872813814055e+004,-2.29020923985312e+001,-1.08163907808749e+000

6.68070335542691e+004,-2.29021123072036e+001,-1.09673581124840e+000

6.77396249890018e+004,-2.29021327748987e+001,-1.11204318582415e+000

6.86852349150199e+004,-2.29021538172936e+001,-1.12756413797904e+000

6.96440450636895e+004,-2.29021754505042e+001,-1.14330164468232e+000

7.06162397032520e+004,-2.29021976910968e+001,-1.15925872427246e+000

7.16020056742374e+004,-2.29022205561013e+001,-1.17543843702565e+000

7.26015324253724e+004,-2.29022440630237e+001,-1.19184388573338e+000

7.36150120499896e+004,-2.29022682298591e+001,-1.20847821628792e+000

7.46426393229441e+004,-2.29022930751061e+001,-1.22534461827266e+000

7.56846117380472e+004,-2.29023186177797e+001,-1.24244632556587e+000

7.67411295460207e+004,-2.29023448774267e+001,-1.25978661694698e+000

7.78123957929823e+004,-2.29023718741397e+001,-1.27736881671447e+000

7.88986163594682e+004,-2.29023996285728e+001,-1.29519629530952e+000

7.99999999999995e+004,-2.29024281619567e+001,-1.31327246995080e+000

8.11167583832018e+004,-2.29024574961149e+001,-1.33160080527495e+000

8.22491061324848e+004,-2.29024876534804e+001,-1.35018481398573e+000

8.33972608672892e+004,-2.29025186571121e+001,-1.36902805751484e+000

8.45614432449099e+004,-2.29025505307124e+001,-1.38813414668705e+000

8.57418770029029e+004,-2.29025832986451e+001,-1.40750674239761e+000

8.69387890020841e+004,-2.29026169859537e+001,-1.42714955629619e+000

8.81524092701283e+004,-2.29026516183798e+001,-1.44706635148142e+000

8.93829710457770e+004,-2.29026872223829e+001,-1.46726094320374e+000

9.06307108236633e+004,-2.29027238251604e+001,-1.48773719957673e+000

9.18958683997622e+004,-2.29027614546670e+001,-1.50849904230037e+000

9.31786869174758e+004,-2.29028001396367e+001,-1.52955044738980e+000

9.44794129143618e+004,-2.29028399096040e+001,-1.55089544591641e+000

9.57982963695136e+004,-2.29028807949256e+001,-1.57253812475855e+000

9.71355907516031e+004,-2.29029228268034e+001,-1.59448262735966e+000

9.84915530675926e+004,-2.29029660373077e+001,-1.61673315449952e+000

9.98664439121282e+004,-2.29030104594013e+001,-1.63929396507096e+000

1.01260527517622e+005,-2.29030561269639e+001,-1.66216937687134e+000

1.02674071805032e+005,-2.29031030748173e+001,-1.68536376740163e+000

1.04107348435354e+005,-2.29031513387514e+001,-1.70888157467548e+000

1.05560632861831e+005,-2.29032009555507e+001,-1.73272729803858e+000

1.07034204382888e+005,-2.29032519630217e+001,-1.75690549900131e+000

1.08528346195813e+005,-2.29033044000211e+001,-1.78142080207678e+000

1.10043345451179e+005,-2.29033583064842e+001,-1.80627789563496e+000

1.11579493308032e+005,-2.29034137234548e+001,-1.83148153276327e+000

1.13137084989847e+005,-2.29034706931154e+001,-1.85703653214088e+000

1.14716419841265e+005,-2.29035292588185e+001,-1.88294777892131e+000

1.16317801385624e+005,-2.29035894651184e+001,-1.90922022562968e+000

1.17941537383287e+005,-2.29036513578041e+001,-1.93585889306757e+000

1.19587939890794e+005,-2.29037149839334e+001,-1.96286887123047e+000

1.21257325320831e+005,-2.29037803918669e+001,-1.99025532023789e+000

1.22950014503040e+005,-2.29038476313037e+001,-2.01802347127344e+000

1.24666332745679e+005,-2.29039167533182e+001,-2.04617862753551e+000

1.26406609898139e+005,-2.29039878103971e+001,-2.07472616520302e+000

1.28171180414339e+005,-2.29040608564780e+001,-2.10367153440876e+000

1.29960383416997e+005,-2.29041359469889e+001,-2.13302026022869e+000

1.31774562762811e+005,-2.29042131388883e+001,-2.16277794367996e+000

1.33614067108538e+005,-2.29042924907071e+001,-2.19295026273194e+000

1.35479249978003e+005,-2.29043740625908e+001,-2.22354297333082e+000

1.37370469830040e+005,-2.29044579163435e+001,-2.25456191043516e+000

1.39288090127379e+005,-2.29045441154728e+001,-2.28601298906235e+000

1.41232479406504e+005,-2.29046327252350e+001,-2.31790220535187e+000

1.43204011348474e+005,-2.29047238126835e+001,-2.35023563763551e+000

1.45203064850745e+005,-2.29048174467160e+001,-2.38301944752503e+000

1.47230024099979e+005,-2.29049136981250e+001,-2.41625988100947e+000

1.49285278645888e+005,-2.29050126396480e+001,-2.44996326956721e+000

1.51369223476094e+005,-2.29051143460206e+001,-2.48413603128845e+000

1.53482259092041e+005,-2.29052188940289e+001,-2.51878467201367e+000

1.55624791585964e+005,-2.29053263625654e+001,-2.55391578648262e+000

1.57797232718936e+005,-2.29054368326846e+001,-2.58953605949796e+000

1.59999999999999e+005,-2.29055503876611e+001,-2.62565226710091e+000

1.62233516766403e+005,-2.29056671130488e+001,-2.66227127776125e+000

1.64498212264969e+005,-2.29057870967411e+001,-2.69940005358008e+000

1.66794521734578e+005,-2.29059104290336e+001,-2.73704565150546e+000

1.69122886489819e+005,-2.29060372026875e+001,-2.77521522456245e+000

1.71483754005805e+005,-2.29061675129952e+001,-2.81391602309595e+000

1.73877578004168e+005,-2.29063014578469e+001,-2.85315539602799e+000

1.76304818540256e+005,-2.29064391377993e+001,-2.89294079212665e+000

1.78765942091554e+005,-2.29065806561460e+001,-2.93327976129178e+000

1.81261421647326e+005,-2.29067261189896e+001,-2.97417995585052e+000

1.83791736799524e+005,-2.29068756353150e+001,-3.01564913187038e+000

1.86357373834951e+005,-2.29070293170654e+001,-3.05769515048361e+000

1.88958825828723e+005,-2.29071872792194e+001,-3.10032597922647e+000

1.91596592739027e+005,-2.29073496398707e+001,-3.14354969339119e+000

1.94271181503206e+005,-2.29075165203085e+001,-3.18737447739369e+000

1.96983106135185e+005,-2.29076880451016e+001,-3.23180862615356e+000

1.99732887824256e+005,-2.29078643421824e+001,-3.27686054648843e+000

2.02521055035243e+005,-2.29080455429349e+001,-3.32253875852313e+000

2.05348143610063e+005,-2.29082317822834e+001,-3.36885189711074e+000

2.08214696870707e+005,-2.29084231987838e+001,-3.41580871326994e+000

2.11121265723661e+005,-2.29086199347170e+001,-3.46341807563491e+000

2.14068408765776e+005,-2.29088221361845e+001,-3.51168897191882e+000

2.17056692391625e+005,-2.29090299532062e+001,-3.56063051039319e+000

2.20086690902357e+005,-2.29092435398202e+001,-3.61025192137859e+000

2.23158986616063e+005,-2.29094630541852e+001,-3.66056255875109e+000

2.26274169979693e+005,-2.29096886586852e+001,-3.71157190146188e+000

2.29432839682530e+005,-2.29099205200363e+001,-3.76328955507078e+000

2.32635602771247e+005,-2.29101588093960e+001,-3.81572525329409e+000

2.35883074766574e+005,-2.29104037024755e+001,-3.86888885956464e+000

2.39175879781588e+005,-2.29106553796531e+001,-3.92279036860783e+000

2.42514650641661e+005,-2.29109140260921e+001,-3.97743990802892e+000

2.45900029006080e+005,-2.29111798318590e+001,-4.03284773991655e+000

2.49332665491357e+005,-2.29114529920462e+001,-4.08902426245733e+000

2.52813219796278e+005,-2.29117337068962e+001,-4.14598001156571e+000

2.56342360828676e+005,-2.29120221819291e+001,-4.20372566252620e+000

2.59920766833993e+005,-2.29123186280721e+001,-4.26227203164987e+000

2.63549125525621e+005,-2.29126232617923e+001,-4.32163007794310e+000

2.67228134217075e+005,-2.29129363052325e+001,-4.38181090479068e+000

2.70958499956006e+005,-2.29132579863487e+001,-4.44282576165143e+000

2.74740939660078e+005,-2.29135885390514e+001,-4.50468604576646e+000

2.78576180254757e+005,-2.29139282033499e+001,-4.56740330388152e+000

2.82464958813007e+005,-2.29142772254985e+001,-4.63098923398148e+000

2.86408022696948e+005,-2.29146358581465e+001,-4.69545568703786e+000

2.90406129701488e+005,-2.29150043604908e+001,-4.76081466876884e+000

2.94460048199957e+005,-2.29153829984318e+001,-4.82707834141214e+000

2.98570557291775e+005,-2.29157720447317e+001,-4.89425902551060e+000

3.02738446952187e+005,-2.29161717791764e+001,-4.96236920170982e+000

3.06964518184081e+005,-2.29165824887404e+001,-5.03142151256862e+000

3.11249583171928e+005,-2.29170044677546e+001,-5.10142876438141e+000

3.15594465437872e+005,-2.29174380180772e+001,-5.17240392901278e+000

3.19999999999997e+005,-2.29178834492680e+001,-5.24436014574510e+000

3.24467033532806e+005,-2.29183410787655e+001,-5.31731072313647e+000

3.28996424529938e+005,-2.29188112320678e+001,-5.39126914089309e+000

3.33589043469155e+005,-2.29192942429159e+001,-5.46624905175076e+000

3.38245772979638e+005,-2.29197904534808e+001,-5.54226428337060e+000

3.42967508011610e+005,-2.29203002145534e+001,-5.61932884024624e+000

3.47755156008335e+005,-2.29208238857385e+001,-5.69745690562148e+000

3.52609637080511e+005,-2.29213618356509e+001,-5.77666284342114e+000

3.57531884183106e+005,-2.29219144421156e+001,-5.85696120019373e+000

3.62522843294651e+005,-2.29224820923712e+001,-5.93836670706542e+000

3.67583473599047e+005,-2.29230651832763e+001,-6.02089428170560e+000

3.72714747669902e+005,-2.29236641215196e+001,-6.10455903030547e+000

3.77917651657445e+005,-2.29242793238326e+001,-6.18937624956828e+000

3.83193185478053e+005,-2.29249112172073e+001,-6.27536142871041e+000

3.88542363006410e+005,-2.29255602391149e+001,-6.36253025147637e+000

3.93966212270369e+005,-2.29262268377301e+001,-6.45089859816570e+000

3.99465775648511e+005,-2.29269114721574e+001,-6.54048254767112e+000

4.05042110070485e+005,-2.29276146126610e+001,-6.63129837953193e+000

4.10696287220124e+005,-2.29283367408990e+001,-6.72336257599682e+000

4.16429393741414e+005,-2.29290783501594e+001,-6.81669182410372e+000

4.22242531447321e+005,-2.29298399456014e+001,-6.91130301777002e+000

4.28136817531551e+005,-2.29306220444986e+001,-7.00721325989805e+000

4.34113384783250e+005,-2.29314251764867e+001,-7.10443986449480e+000

4.40173381804713e+005,-2.29322498838140e+001,-7.20300035880516e+000

4.46317973232124e+005,-2.29330967215958e+001,-7.30291248546153e+000

4.52548339959385e+005,-2.29339662580725e+001,-7.40419420464734e+000

4.58865679365059e+005,-2.29348590748707e+001,-7.50686369627809e+000

4.65271205542494e+005,-2.29357757672685e+001,-7.61093936219736e+000

4.71766149533147e+005,-2.29367169444643e+001,-7.71643982839194e+000

4.78351759563174e+005,-2.29376832298491e+001,-7.82338394722220e+000

4.85029301283321e+005,-2.29386752612828e+001,-7.93179079967339e+000

4.91800058012158e+005,-2.29396936913743e+001,-8.04167969762491e+000

4.98665330982714e+005,-2.29407391877654e+001,-8.15307018613955e+000

5.05626439592555e+005,-2.29418124334190e+001,-8.26598204577440e+000

5.12684721657352e+005,-2.29429141269108e+001,-8.38043529491225e+000

5.19841533667984e+005,-2.29440449827261e+001,-8.49645019211766e+000

5.27098251051240e+005,-2.29452057315599e+001,-8.61404723851431e+000

5.34456268434150e+005,-2.29463971206221e+001,-8.73324718018889e+000

5.41916999912011e+005,-2.29476199139472e+001,-8.85407101061979e+000

