Freq.,VOut,OutRef

1.00000000000000e+004,-2.14578179072462e+001,-2.44934203017350e-001

1.01395947979003e+004,-2.14578187450920e+001,-2.48353342554648e-001

1.02811382665607e+004,-2.14578196064923e+001,-2.51820210885499e-001

1.04246576084112e+004,-2.14578204921092e+001,-2.55335474252189e-001

1.05701804056138e+004,-2.14578214026236e+001,-2.58899808196371e-001

1.07177346253629e+004,-2.14578223387354e+001,-2.62513897689914e-001

1.08673486252606e+004,-2.14578233011643e+001,-2.66178437264325e-001

1.10190511587661e+004,-2.14578242906499e+001,-2.69894131146044e-001

1.11728713807222e+004,-2.14578253079531e+001,-2.73661693389910e-001

1.13288388529580e+004,-2.14578263538559e+001,-2.77481848017572e-001

1.14869835499703e+004,-2.14578274291620e+001,-2.81355329157414e-001

1.16473358646846e+004,-2.14578285346983e+001,-2.85282881181985e-001

1.18099266142953e+004,-2.14578296713143e+001,-2.89265258856036e-001

1.19747870461893e+004,-2.14578308398842e+001,-2.93303227475834e-001

1.21419488439505e+004,-2.14578320413059e+001,-2.97397563021294e-001

1.23114441334492e+004,-2.14578332765031e+001,-3.01549052302552e-001

1.24833054890161e+004,-2.14578345464252e+001,-3.05758493111540e-001

1.26575659397028e+004,-2.14578358520485e+001,-3.10026694373390e-001

1.28342589756290e+004,-2.14578371943766e+001,-3.14354476305033e-001

1.30134185544193e+004,-2.14578385744413e+001,-3.18742670570892e-001

1.31950791077289e+004,-2.14578399933033e+001,-3.23192120443355e-001

1.33792755478611e+004,-2.14578414520536e+001,-3.27703680961667e-001

1.35660432744767e+004,-2.14578429518132e+001,-3.32278219102086e-001

1.37554181813974e+004,-2.14578444937350e+001,-3.36916613938950e-001

1.39474366635040e+004,-2.14578460790044e+001,-3.41619756815034e-001

1.41421356237309e+004,-2.14578477088398e+001,-3.46388551515099e-001

1.43395524801583e+004,-2.14578493844942e+001,-3.51223914435299e-001

1.45397251732031e+004,-2.14578511072554e+001,-3.56126774762910e-001

1.47426921729110e+004,-2.14578528784478e+001,-3.61098074652078e-001

1.49484924863494e+004,-2.14578546994327e+001,-3.66138769407418e-001

1.51571656651040e+004,-2.14578565716101e+001,-3.71249827663049e-001

1.53687518128801e+004,-2.14578584964187e+001,-3.76432231574545e-001

1.55832915932100e+004,-2.14578604753383e+001,-3.81686977001850e-001

1.58008262372675e+004,-2.14578625098899e+001,-3.87015073703791e-001

1.60213975517924e+004,-2.14578646016374e+001,-3.92417545530657e-001

1.62450479271247e+004,-2.14578667521885e+001,-3.97895430622662e-001

1.64718203453514e+004,-2.14578689631963e+001,-4.03449781605255e-001

1.67017583885674e+004,-2.14578712363603e+001,-4.09081665795639e-001

1.69349062472505e+004,-2.14578735734276e+001,-4.14792165404201e-001

1.71713087287550e+004,-2.14578759761947e+001,-4.20582377744700e-001

1.74110112659224e+004,-2.14578784465084e+001,-4.26453415443214e-001

1.76540599258131e+004,-2.14578809862674e+001,-4.32406406652884e-001

1.79005014185594e+004,-2.14578835974237e+001,-4.38442495269755e-001

1.81503831063432e+004,-2.14578862819846e+001,-4.44562841151200e-001

1.84037530124975e+004,-2.14578890420130e+001,-4.50768620342146e-001

1.86606598307361e+004,-2.14578918796307e+001,-4.57061025296224e-001

1.89211529345119e+004,-2.14578947970185e+001,-4.63441265107705e-001

1.91852823865052e+004,-2.14578977964187e+001,-4.69910565742591e-001

1.94530989482457e+004,-2.14579008801367e+001,-4.76470170273033e-001

1.97246540898671e+004,-2.14579040505424e+001,-4.83121339117994e-001

1.99999999999999e+004,-2.14579073100727e+001,-4.89865350282259e-001

2.02791895958005e+004,-2.14579106612329e+001,-4.96703499603402e-001

2.05622765331213e+004,-2.14579141065983e+001,-5.03637101000685e-001

2.08493152168224e+004,-2.14579176488171e+001,-5.10667486726042e-001

2.11403608112276e+004,-2.14579212906116e+001,-5.17796007620455e-001

2.14354692507258e+004,-2.14579250347807e+001,-5.25024033371265e-001

2.17346972505211e+004,-2.14579288842021e+001,-5.32352952778576e-001

2.20381023175322e+004,-2.14579328418340e+001,-5.39784174017482e-001

2.23457427614443e+004,-2.14579369107182e+001,-5.47319124910559e-001

2.26576777059159e+004,-2.14579410939817e+001,-5.54959253201152e-001

2.29739670999406e+004,-2.14579453948392e+001,-5.62706026831191e-001

2.32946717293690e+004,-2.14579498165963e+001,-5.70560934222011e-001

2.36198532285905e+004,-2.14579543626508e+001,-5.78525484560317e-001

2.39495740923785e+004,-2.14579590364966e+001,-5.86601208087141e-001

2.42838976879009e+004,-2.14579638417253e+001,-5.94789656392302e-001

2.46228882668982e+004,-2.14579687820298e+001,-6.03092402709490e-001

2.49666109780322e+004,-2.14579738612065e+001,-6.11511042220348e-001

2.53151318794055e+004,-2.14579790831585e+001,-6.20047192359332e-001

2.56685179512580e+004,-2.14579844518987e+001,-6.28702493122644e-001

2.60268371088386e+004,-2.14579899715528e+001,-6.37478607383618e-001

2.63901582154578e+004,-2.14579956463621e+001,-6.46377221212186e-001

2.67585510957221e+004,-2.14580014806874e+001,-6.55400044195436e-001

2.71320865489533e+004,-2.14580074790120e+001,-6.64548809767382e-001

2.75108363627948e+004,-2.14580136459448e+001,-6.73825275540822e-001

2.78948733270080e+004,-2.14580199862247e+001,-6.83231223642634e-001

2.82842712474618e+004,-2.14580265047234e+001,-6.92768461055847e-001

2.86791049603164e+004,-2.14580332064495e+001,-7.02438819967027e-001

2.90794503464061e+004,-2.14580400965524e+001,-7.12244158115165e-001

2.94853843458219e+004,-2.14580471803262e+001,-7.22186359148036e-001

2.98969849726987e+004,-2.14580544632137e+001,-7.32267332983528e-001

3.03143313302078e+004,-2.14580619508104e+001,-7.42489016174470e-001

3.07375036257601e+004,-2.14580696488693e+001,-7.52853372280144e-001

3.11665831864199e+004,-2.14580775633048e+001,-7.63362392241009e-001

3.16016524745350e+004,-2.14580857001974e+001,-7.74018094761092e-001

3.20427951035848e+004,-2.14580940657987e+001,-7.84822526692870e-001

3.24900958542493e+004,-2.14581026665355e+001,-7.95777763429857e-001

3.29436406907028e+004,-2.14581115090154e+001,-8.06885909303464e-001

3.34035167771346e+004,-2.14581206000315e+001,-8.18149097985737e-001

3.38698124945009e+004,-2.14581299465676e+001,-8.29569492897002e-001

3.43426174575100e+004,-2.14581395558039e+001,-8.41149287619160e-001

3.48220225318448e+004,-2.14581494351220e+001,-8.52890706315833e-001

3.53081198516260e+004,-2.14581595921110e+001,-8.64796004158605e-001

3.58010028371187e+004,-2.14581700345729e+001,-8.76867467756500e-001

3.63007662126863e+004,-2.14581807705290e+001,-8.89107415592187e-001

3.68075060249948e+004,-2.14581918082259e+001,-9.01518198467978e-001

3.73213196614721e+004,-2.14582031561416e+001,-9.14102199952451e-001

3.78423058690237e+004,-2.14582148229922e+001,-9.26861836837130e-001

3.83705647730104e+004,-2.14582268177385e+001,-9.39799559597623e-001

3.89061978964912e+004,-2.14582391495932e+001,-9.52917852861114e-001

3.94493081797342e+004,-2.14582518280273e+001,-9.66219235881838e-001

3.99999999999998e+004,-2.14582648627777e+001,-9.79706263021695e-001

4.05583791916010e+004,-2.14582782638552e+001,-9.93381524236202e-001

4.11245530662425e+004,-2.14582920415509e+001,-1.00724764557220e+000

4.16986304336447e+004,-2.14583062064454e+001,-1.02130728966421e+000

4.22807216224550e+004,-2.14583207694160e+001,-1.03556315624681e+000

4.28709385014515e+004,-2.14583357416452e+001,-1.05001798266714e+000

4.34693945010421e+004,-2.14583511346300e+001,-1.06467454440631e+000

4.40762046350642e+004,-2.14583669601894e+001,-1.07953565561058e+000

4.46914855228886e+004,-2.14583832304745e+001,-1.09460416962593e+000

4.53153554118317e+004,-2.14583999579773e+001,-1.10988297954215e+000

4.59479341998812e+004,-2.14584171555405e+001,-1.12537501874480e+000

4.65893434587380e+004,-2.14584348363670e+001,-1.14108326147248e+000

4.72397064571810e+004,-2.14584530140304e+001,-1.15701072338430e+000

4.78991481847569e+004,-2.14584717024852e+001,-1.17316046213273e+000

4.85677953758016e+004,-2.14584909160771e+001,-1.18953557794742e+000

4.92457765337964e+004,-2.14585106695546e+001,-1.20613921422212e+000

4.99332219560642e+004,-2.14585309780800e+001,-1.22297455811494e+000

5.06302637588109e+004,-2.14585518572408e+001,-1.24004484115391e+000

5.13370359025159e+004,-2.14585733230617e+001,-1.25735333984991e+000

5.20536742176771e+004,-2.14585953920170e+001,-1.27490337632098e+000

5.27803164309155e+004,-2.14586180810433e+001,-1.29269831892171e+000

5.35171021914442e+004,-2.14586414075517e+001,-1.31074158288445e+000

5.42641730979066e+004,-2.14586653894421e+001,-1.32903663096608e+000

5.50216727255895e+004,-2.14586900451160e+001,-1.34758697410636e+000

5.57897466540159e+004,-2.14587153934912e+001,-1.36639617209394e+000

5.65685424949235e+004,-2.14587414540156e+001,-1.38546783424021e+000

5.73582099206328e+004,-2.14587682466825e+001,-1.40480562006427e+000

5.81589006928121e+004,-2.14587957920459e+001,-1.42441323998628e+000

5.89707686916437e+004,-2.14588241112356e+001,-1.44429445603079e+000

5.97939699453972e+004,-2.14588532259739e+001,-1.46445308253743e+000

6.06286626604156e+004,-2.14588831585920e+001,-1.48489298688478e+000

6.14750072515201e+004,-2.14589139320466e+001,-1.50561809022035e+000

6.23331663728396e+004,-2.14589455699380e+001,-1.52663236820238e+000

6.32033049490698e+004,-2.14589780965278e+001,-1.54793985175168e+000

6.40855902071694e+004,-2.14590115367571e+001,-1.56954462781358e+000

6.49801917084985e+004,-2.14590459162659e+001,-1.59145084012767e+000

6.58872813814055e+004,-2.14590812614124e+001,-1.61366269001213e+000

6.68070335542691e+004,-2.14591175992931e+001,-1.63618443715400e+000

6.77396249890018e+004,-2.14591549577633e+001,-1.65902040041475e+000

6.86852349150199e+004,-2.14591933654584e+001,-1.68217495864135e+000

6.96440450636895e+004,-2.14592328518156e+001,-1.70565255149342e+000

7.06162397032520e+004,-2.14592734470960e+001,-1.72945768027708e+000

7.16020056742374e+004,-2.14593151824083e+001,-1.75359490879242e+000

7.26015324253724e+004,-2.14593580897315e+001,-1.77806886419103e+000

7.36150120499896e+004,-2.14594022019399e+001,-1.80288423784657e+000

7.46426393229441e+004,-2.14594475528275e+001,-1.82804578623328e+000

7.56846117380472e+004,-2.14594941771341e+001,-1.85355833182099e+000

7.67411295460207e+004,-2.14595421105710e+001,-1.87942676397794e+000

7.78123957929823e+004,-2.14595913898488e+001,-1.90565603988674e+000

7.88986163594682e+004,-2.14596420527047e+001,-1.93225118547331e+000

7.99999999999995e+004,-2.14596941379310e+001,-1.95921729634754e+000

8.11167583832018e+004,-2.14597476854050e+001,-1.98655953875481e+000

8.22491061324848e+004,-2.14598027361185e+001,-2.01428315054213e+000

8.33972608672892e+004,-2.14598593322091e+001,-2.04239344213559e+000

8.45614432449099e+004,-2.14599175169922e+001,-2.07089579753122e+000

8.57418770029029e+004,-2.14599773349932e+001,-2.09979567529742e+000

8.69387890020841e+004,-2.14600388319817e+001,-2.12909860959273e+000

8.81524092701283e+004,-2.14601020550057e+001,-2.15881021119447e+000

8.93829710457770e+004,-2.14601670524271e+001,-2.18893616854208e+000

9.06307108236633e+004,-2.14602338739580e+001,-2.21948224879280e+000

9.18958683997622e+004,-2.14603025706986e+001,-2.25045429889264e+000

9.31786869174758e+004,-2.14603731951751e+001,-2.28185824665932e+000

9.44794129143618e+004,-2.14604458013796e+001,-2.31370010187989e+000

9.57982963695136e+004,-2.14605204448107e+001,-2.34598595742264e+000

9.71355907516031e+004,-2.14605971825148e+001,-2.37872199036171e+000

9.84915530675926e+004,-2.14606760731295e+001,-2.41191446311897e+000

9.98664439121282e+004,-2.14607571769270e+001,-2.44556972461661e+000

1.01260527517622e+005,-2.14608405558598e+001,-2.47969421144713e+000

1.02674071805032e+005,-2.14609262736070e+001,-2.51429444905689e+000

1.04107348435354e+005,-2.14610143956216e+001,-2.54937705294462e+000

1.05560632861831e+005,-2.14611049891801e+001,-2.58494872987539e+000

1.07034204382888e+005,-2.14611981234322e+001,-2.62101627910906e+000

1.08528346195813e+005,-2.14612938694531e+001,-2.65758659364379e+000

1.10043345451179e+005,-2.14613923002958e+001,-2.69466666147676e+000

1.11579493308032e+005,-2.14614934910462e+001,-2.73226356687779e+000

1.13137084989847e+005,-2.14615975188790e+001,-2.77038449168151e+000

1.14716419841265e+005,-2.14617044631147e+001,-2.80903671659216e+000

1.16317801385624e+005,-2.14618144052791e+001,-2.84822762250759e+000

1.17941537383287e+005,-2.14619274291637e+001,-2.88796469185689e+000

1.19587939890794e+005,-2.14620436208880e+001,-2.92825550995589e+000

1.21257325320831e+005,-2.14621630689634e+001,-2.96910776637693e+000

1.22950014503040e+005,-2.14622858643585e+001,-3.01052925633845e+000

1.24666332745679e+005,-2.14624121005668e+001,-3.05252788210756e+000

1.26406609898139e+005,-2.14625418736759e+001,-3.09511165442106e+000

1.28171180414339e+005,-2.14626752824382e+001,-3.13828869392413e+000

1.29960383416997e+005,-2.14628124283439e+001,-3.18206723262389e+000

1.31774562762811e+005,-2.14629534156958e+001,-3.22645561536202e+000

1.33614067108538e+005,-2.14630983516863e+001,-3.27146230130276e+000

1.35479249978003e+005,-2.14632473464759e+001,-3.31709586543969e+000

1.37370469830040e+005,-2.14634005132742e+001,-3.36336500011904e+000

1.39288090127379e+005,-2.14635579684234e+001,-3.41027851658060e+000

1.41232479406504e+005,-2.14637198314828e+001,-3.45784534651643e+000

1.43204011348474e+005,-2.14638862253169e+001,-3.50607454364663e+000

1.45203064850745e+005,-2.14640572761846e+001,-3.55497528531397e+000

1.47230024099979e+005,-2.14642331138321e+001,-3.60455687409550e+000

1.49285278645888e+005,-2.14644138715866e+001,-3.65482873943119e+000

1.51369223476094e+005,-2.14645996864539e+001,-3.70580043927333e+000

1.53482259092041e+005,-2.14647906992177e+001,-3.75748166175070e+000

1.55624791585964e+005,-2.14649870545417e+001,-3.80988222685296e+000

1.57797232718936e+005,-2.14651889010743e+001,-3.86301208813252e+000

1.59999999999999e+005,-2.14653963915561e+001,-3.91688133442493e+000

1.62233516766403e+005,-2.14656096829305e+001,-3.97150019158639e+000

1.64498212264969e+005,-2.14658289364560e+001,-4.02687902425123e+000

1.66794521734578e+005,-2.14660543178230e+001,-4.08302833760617e+000

1.69122886489819e+005,-2.14662859972720e+001,-4.13995877918425e+000

1.71483754005805e+005,-2.14665241497163e+001,-4.19768114067526e+000

1.73877578004168e+005,-2.14667689548665e+001,-4.25620635975713e+000

1.76304818540256e+005,-2.14670205973592e+001,-4.31554552194236e+000

1.78765942091554e+005,-2.14672792668879e+001,-4.37570986244612e+000

1.81261421647326e+005,-2.14675451583387e+001,-4.43671076806988e+000

1.83791736799524e+005,-2.14678184719277e+001,-4.49855977910510e+000

1.86357373834951e+005,-2.14680994133432e+001,-4.56126859125428e+000

1.88958825828723e+005,-2.14683881938908e+001,-4.62484905756986e+000

1.91596592739027e+005,-2.14686850306421e+001,-4.68931319041232e+000

1.94271181503206e+005,-2.14689901465875e+001,-4.75467316342546e+000

1.96983106135185e+005,-2.14693037707924e+001,-4.82094131352926e+000

1.99732887824256e+005,-2.14696261385575e+001,-4.88813014293209e+000

2.02521055035243e+005,-2.14699574915825e+001,-4.95625232115833e+000

2.05348143610063e+005,-2.14702980781350e+001,-5.02532068709567e+000

2.08214696870707e+005,-2.14706481532222e+001,-5.09534825105892e+000

2.11121265723661e+005,-2.14710079787672e+001,-5.16634819687107e+000

2.14068408765776e+005,-2.14713778237903e+001,-5.23833388396127e+000

2.17056692391625e+005,-2.14717579645935e+001,-5.31131884948088e+000

2.20086690902357e+005,-2.14721486849504e+001,-5.38531681043410e+000

2.23158986616063e+005,-2.14725502762999e+001,-5.46034166582815e+000

2.26274169979693e+005,-2.14729630379450e+001,-5.53640749883691e+000

2.29432839682530e+005,-2.14733872772563e+001,-5.61352857898174e+000

2.32635602771247e+005,-2.14738233098796e+001,-5.69171936432891e+000

2.35883074766574e+005,-2.14742714599495e+001,-5.77099450370122e+000

2.39175879781588e+005,-2.14747320603071e+001,-5.85136883890554e+000

2.42514650641661e+005,-2.14752054527231e+001,-5.93285740697514e+000

2.45900029006080e+005,-2.14756919881258e+001,-6.01547544242671e+000

2.49332665491357e+005,-2.14761920268346e+001,-6.09923837953148e+000

2.52813219796278e+005,-2.14767059387992e+001,-6.18416185460018e+000

2.56342360828676e+005,-2.14772341038429e+001,-6.27026170828170e+000

2.59920766833993e+005,-2.14777769119129e+001,-6.35755398787468e+000

2.63549125525621e+005,-2.14783347633355e+001,-6.44605494965189e+000

2.67228134217075e+005,-2.14789080690767e+001,-6.53578106119656e+000

2.70958499956006e+005,-2.14794972510094e+001,-6.62674900375107e+000

2.74740939660078e+005,-2.14801027421857e+001,-6.71897567457618e+000

2.78576180254757e+005,-2.14807249871153e+001,-6.81247818932154e+000

2.82464958813007e+005,-2.14813644420506e+001,-6.90727388440642e+000

2.86408022696948e+005,-2.14820215752769e+001,-7.00338031940989e+000

2.90406129701488e+005,-2.14826968674098e+001,-7.10081527947043e+000

2.94460048199957e+005,-2.14833908116980e+001,-7.19959677769409e+000

2.98570557291775e+005,-2.14841039143333e+001,-7.29974305757045e+000

3.02738446952187e+005,-2.14848366947665e+001,-7.40127259539600e+000

3.06964518184081e+005,-2.14855896860301e+001,-7.50420410270466e+000

3.11249583171928e+005,-2.14863634350676e+001,-7.60855652870323e+000

3.15594465437872e+005,-2.14871585030696e+001,-7.71434906271349e+000

3.19999999999997e+005,-2.14879754658166e+001,-7.82160113661813e+000

3.24467033532806e+005,-2.14888149140284e+001,-7.93033242731121e+000

3.28996424529938e+005,-2.14896774537212e+001,-8.04056285915120e+000

3.33589043469155e+005,-2.14905637065711e+001,-8.15231260641640e+000

3.38245772979638e+005,-2.14914743102845e+001,-8.26560209576322e+000

3.42967508011610e+005,-2.14924099189765e+001,-8.38045200868371e+000

3.47755156008335e+005,-2.14933712035559e+001,-8.49688328396461e+000

3.52609637080511e+005,-2.14943588521177e+001,-8.61491712014410e+000

3.57531884183106e+005,-2.14953735703425e+001,-8.73457497796861e+000

3.62522843294651e+005,-2.14964160819044e+001,-8.85587858284596e+000

3.67583473599047e+005,-2.14974871288854e+001,-8.97884992729542e+000

3.72714747669902e+005,-2.14985874721977e+001,-9.10351127339412e+000

3.77917651657445e+005,-2.14997178920135e+001,-9.22988515521761e+000

3.83193185478053e+005,-2.15008791882029e+001,-9.35799438127441e+000

3.88542363006410e+005,-2.15020721807785e+001,-9.48786203693472e+000

3.93966212270369e+005,-2.15032977103493e+001,-9.61951148684982e+000

3.99465775648511e+005,-2.15045566385806e+001,-9.75296637736361e+000

4.05042110070485e+005,-2.15058498486634e+001,-9.88825063891380e+000

4.10696287220124e+005,-2.15071782457905e+001,-1.00253884884230e+001

4.16429393741414e+005,-2.15085427576411e+001,-1.01644044316778e+001

4.22242531447321e+005,-2.15099443348736e+001,-1.03053232656958e+001

4.28136817531551e+005,-2.15113839516257e+001,-1.04481700810769e+001

4.34113384783250e+005,-2.15128626060231e+001,-1.05929702643444e+001

4.40173381804713e+005,-2.15143813206964e+001,-1.07397495002654e+001

4.46317973232124e+005,-2.15159411433057e+001,-1.08885337741588e+001

4.52548339959385e+005,-2.15175431470734e+001,-1.10393493741837e+001

4.58865679365059e+005,-2.15191884313260e+001,-1.11922228936100e+001

4.65271205542494e+005,-2.15208781220429e+001,-1.13471812330697e+001

4.71766149533147e+005,-2.15226133724147e+001,-1.15042516027873e+001

4.78351759563174e+005,-2.15243953634091e+001,-1.16634615247897e+001

4.85029301283321e+005,-2.15262253043453e+001,-1.18248388350929e+001

4.91800058012158e+005,-2.15281044334771e+001,-1.19884116858658e+001

4.98665330982714e+005,-2.15300340185841e+001,-1.21542085475697e+001

5.05626439592555e+005,-2.15320153575719e+001,-1.23222582110725e+001

5.12684721657352e+005,-2.15340497790805e+001,-1.24925897897362e+001

5.19841533667984e+005,-2.15361386431014e+001,-1.26652327214779e+001

5.27098251051240e+005,-2.15382833416037e+001,-1.28402167708015e+001

5.34456268434150e+005,-2.15404852991687e+001,-1.30175720308011e+001

5.41916999912011e+005,-2.15427459736334e+001,-1.31973289251328e+001

