Freq.,VOut,OutRef

1.00000000000000e+004,-9.29068164341511e+000,-1.33804882672763e-001

1.01395947979003e+004,-9.29068153686395e+000,-1.35672729361585e-001

1.02811382665607e+004,-9.29068142731711e+000,-1.37566650224741e-001

1.04246576084112e+004,-9.29068131469064e+000,-1.39487009242520e-001

1.05701804056138e+004,-9.29068119889765e+000,-1.41434175480187e-001

1.07177346253629e+004,-9.29068107984927e+000,-1.43408523151721e-001

1.08673486252606e+004,-9.29068095745381e+000,-1.45410431697050e-001

1.10190511587661e+004,-9.29068083161740e+000,-1.47440285850632e-001

1.11728713807222e+004,-9.29068070224322e+000,-1.49498475719334e-001

1.13288388529580e+004,-9.29068056923179e+000,-1.51585396855477e-001

1.14869835499703e+004,-9.29068043248071e+000,-1.53701450333715e-001

1.16473358646846e+004,-9.29068029188519e+000,-1.55847042824546e-001

1.18099266142953e+004,-9.29068014733681e+000,-1.58022586679713e-001

1.19747870461893e+004,-9.29067999872451e+000,-1.60228500004481e-001

1.21419488439505e+004,-9.29067984593407e+000,-1.62465206741128e-001

1.23114441334492e+004,-9.29067968884802e+000,-1.64733136750107e-001

1.24833054890161e+004,-9.29067952734562e+000,-1.67032725892147e-001

1.26575659397028e+004,-9.29067936130262e+000,-1.69364416113232e-001

1.28342589756290e+004,-9.29067919059163e+000,-1.71728655526549e-001

1.30134185544193e+004,-9.29067901508087e+000,-1.74125898505722e-001

1.31950791077289e+004,-9.29067883463600e+000,-1.76556605760168e-001

1.33792755478611e+004,-9.29067864911804e+000,-1.79021244435717e-001

1.35660432744767e+004,-9.29067845838414e+000,-1.81520288199399e-001

1.37554181813974e+004,-9.29067826228796e+000,-1.84054217326816e-001

1.39474366635040e+004,-9.29067806067869e+000,-1.86623518800509e-001

1.41421356237309e+004,-9.29067785340110e+000,-1.89228686401949e-001

1.43395524801583e+004,-9.29067764029621e+000,-1.91870220802140e-001

1.45397251732031e+004,-9.29067742119985e+000,-1.94548629664787e-001

1.47426921729110e+004,-9.29067719594367e+000,-1.97264427738931e-001

1.49484924863494e+004,-9.29067696435456e+000,-2.00018136958326e-001

1.51571656651040e+004,-9.29067672625446e+000,-2.02810286543856e-001

1.53687518128801e+004,-9.29067648146007e+000,-2.05641413105103e-001

1.55832915932100e+004,-9.29067622978348e+000,-2.08512060739453e-001

1.58008262372675e+004,-9.29067597103117e+000,-2.11422781141435e-001

1.60213975517924e+004,-9.29067570500402e+000,-2.14374133708265e-001

1.62450479271247e+004,-9.29067543149760e+000,-2.17366685643706e-001

1.64718203453514e+004,-9.29067515030155e+000,-2.20401012071076e-001

1.67017583885674e+004,-9.29067486119974e+000,-2.23477696141145e-001

1.69349062472505e+004,-9.29067456396999e+000,-2.26597329145008e-001

1.71713087287550e+004,-9.29067425838364e+000,-2.29760510629381e-001

1.74110112659224e+004,-9.29067394420563e+000,-2.32967848510295e-001

1.76540599258131e+004,-9.29067362119472e+000,-2.36219959186810e-001

1.79005014185594e+004,-9.29067328910234e+000,-2.39517467666820e-001

1.81503831063432e+004,-9.29067294767306e+000,-2.42861007681945e-001

1.84037530124975e+004,-9.29067259664470e+000,-2.46251221807572e-001

1.86606598307361e+004,-9.29067223574703e+000,-2.49688761593554e-001

1.89211529345119e+004,-9.29067186470276e+000,-2.53174287681545e-001

1.91852823865052e+004,-9.29067148322638e+000,-2.56708469938452e-001

1.94530989482457e+004,-9.29067109102488e+000,-2.60291987578893e-001

1.97246540898671e+004,-9.29067068779666e+000,-2.63925529300779e-001

1.99999999999999e+004,-9.29067027323139e+000,-2.67609793417864e-001

2.02791895958005e+004,-9.29066984701059e+000,-2.71345487988509e-001

2.05622765331213e+004,-9.29066940880652e+000,-2.75133330957189e-001

2.08493152168224e+004,-9.29066895828217e+000,-2.78974050290632e-001

2.11403608112276e+004,-9.29066849509118e+000,-2.82868384117264e-001

2.14354692507258e+004,-9.29066801887735e+000,-2.86817080869911e-001

2.17346972505211e+004,-9.29066752927451e+000,-2.90820899429001e-001

2.20381023175322e+004,-9.29066702590628e+000,-2.94880609267858e-001

2.23457427614443e+004,-9.29066650838556e+000,-2.98996990602725e-001

2.26576777059159e+004,-9.29066597631444e+000,-3.03170834540158e-001

2.29739670999406e+004,-9.29066542928384e+000,-3.07402943231187e-001

2.32946717293690e+004,-9.29066486687298e+000,-3.11694130024285e-001

2.36198532285905e+004,-9.29066428864953e+000,-3.16045219621599e-001

2.39495740923785e+004,-9.29066369416901e+000,-3.20457048237136e-001

2.42838976879009e+004,-9.29066308297400e+000,-3.24930463760853e-001

2.46228882668982e+004,-9.29066245459470e+000,-3.29466325916276e-001

2.49666109780322e+004,-9.29066180854798e+000,-3.34065506428492e-001

2.53151318794055e+004,-9.29066114433694e+000,-3.38728889193370e-001

2.56685179512580e+004,-9.29066046145084e+000,-3.43457370444207e-001

2.60268371088386e+004,-9.29065975936460e+000,-3.48251858925878e-001

2.63901582154578e+004,-9.29065903753827e+000,-3.53113276069176e-001

2.67585510957221e+004,-9.29065829541696e+000,-3.58042556166459e-001

2.71320865489533e+004,-9.29065753242989e+000,-3.63040646554186e-001

2.75108363627948e+004,-9.29065674799024e+000,-3.68108507793316e-001

2.78948733270080e+004,-9.29065594149499e+000,-3.73247113851942e-001

2.82842712474618e+004,-9.29065511232376e+000,-3.78457452297031e-001

2.86791049603164e+004,-9.29065425983899e+000,-3.83740524479906e-001

2.90794503464061e+004,-9.29065338338518e+000,-3.89097345730613e-001

2.94853843458219e+004,-9.29065248228818e+000,-3.94528945554227e-001

2.98969849726987e+004,-9.29065155585517e+000,-4.00036367825304e-001

3.03143313302078e+004,-9.29065060337362e+000,-4.05620670992648e-001

3.07375036257601e+004,-9.29064962411101e+000,-4.11282928279638e-001

3.11665831864199e+004,-9.29064861731437e+000,-4.17024227891214e-001

3.16016524745350e+004,-9.29064758220930e+000,-4.22845673224212e-001

3.20427951035848e+004,-9.29064651799981e+000,-4.28748383078463e-001

3.24900958542493e+004,-9.29064542386739e+000,-4.34733491871832e-001

3.29436406907028e+004,-9.29064429897066e+000,-4.40802149857859e-001

3.34035167771346e+004,-9.29064314244436e+000,-4.46955523348525e-001

3.38698124945009e+004,-9.29064195339918e+000,-4.53194794935597e-001

3.43426174575100e+004,-9.29064073092055e+000,-4.59521163721087e-001

3.48220225318448e+004,-9.29063947406813e+000,-4.65935845546242e-001

3.53081198516260e+004,-9.29063818187542e+000,-4.72440073223685e-001

3.58010028371187e+004,-9.29063685334846e+000,-4.79035096777469e-001

3.63007662126863e+004,-9.29063548746556e+000,-4.85722183680367e-001

3.68075060249948e+004,-9.29063408317590e+000,-4.92502619100853e-001

3.73213196614721e+004,-9.29063263939970e+000,-4.99377706145183e-001

3.78423058690237e+004,-9.29063115502619e+000,-5.06348766113915e-001

3.83705647730104e+004,-9.29062962891370e+000,-5.13417138750871e-001

3.89061978964912e+004,-9.29062805988842e+000,-5.20584182502743e-001

3.94493081797342e+004,-9.29062644674330e+000,-5.27851274780887e-001

3.99999999999998e+004,-9.29062478823759e+000,-5.35219812224037e-001

4.05583791916010e+004,-9.29062308309554e+000,-5.42691210968454e-001

4.11245530662425e+004,-9.29062133000545e+000,-5.50266906919403e-001

4.16986304336447e+004,-9.29061952761875e+000,-5.57948356027359e-001

4.22807216224550e+004,-9.29061767454893e+000,-5.65737034567983e-001

4.28709385014515e+004,-9.29061576937045e+000,-5.73634439425384e-001

4.34693945010421e+004,-9.29061381061761e+000,-5.81642088380399e-001

4.40762046350642e+004,-9.29061179678364e+000,-5.89761520401526e-001

4.46914855228886e+004,-9.29060972631920e+000,-5.97994295941698e-001

4.53153554118317e+004,-9.29060759763136e+000,-6.06341997237980e-001

4.59479341998812e+004,-9.29060540908243e+000,-6.14806228615166e-001

4.65893434587380e+004,-9.29060315898863e+000,-6.23388616794207e-001

4.72397064571810e+004,-9.29060084561875e+000,-6.32090811206328e-001

4.78991481847569e+004,-9.29059846719285e+000,-6.40914484307477e-001

4.85677953758016e+004,-9.29059602188092e+000,-6.49861331902545e-001

4.92457765337964e+004,-9.29059350780138e+000,-6.58933073469621e-001

4.99332219560642e+004,-9.29059092301984e+000,-6.68131452490228e-001

5.06302637588109e+004,-9.29058826554721e+000,-6.77458236786644e-001

5.13370359025159e+004,-9.29058553333886e+000,-6.86915218857908e-001

5.20536742176771e+004,-9.29058272429207e+000,-6.96504216229225e-001

5.27803164309155e+004,-9.29057983624508e+000,-7.06227071798547e-001

5.35171021914442e+004,-9.29057686697564e+000,-7.16085654188616e-001

5.42641730979066e+004,-9.29057381419839e+000,-7.26081858111803e-001

5.50216727255895e+004,-9.29057067556410e+000,-7.36217604729040e-001

5.57897466540159e+004,-9.29056744865707e+000,-7.46494842022367e-001

5.65685424949235e+004,-9.29056413099370e+000,-7.56915545167851e-001

5.73582099206328e+004,-9.29056072002047e+000,-7.67481716916030e-001

5.81589006928121e+004,-9.29055721311185e+000,-7.78195387976938e-001

5.89707686916437e+004,-9.29055360756872e+000,-7.89058617408230e-001

5.97939699453972e+004,-9.29054990061539e+000,-8.00073493016085e-001

6.06286626604156e+004,-9.29054608939852e+000,-8.11242131750478e-001

6.14750072515201e+004,-9.29054217098408e+000,-8.22566680117013e-001

6.23331663728396e+004,-9.29053814235553e+000,-8.34049314586939e-001

6.32033049490698e+004,-9.29053400041144e+000,-8.45692242015580e-001

6.40855902071694e+004,-9.29052974196277e+000,-8.57497700069146e-001

6.49801917084985e+004,-9.29052536373093e+000,-8.69467957651054e-001

6.58872813814055e+004,-9.29052086234478e+000,-8.81605315341292e-001

6.68070335542691e+004,-9.29051623433820e+000,-8.93912105837846e-001

6.77396249890018e+004,-9.29051147614765e+000,-9.06390694403395e-001

6.86852349150199e+004,-9.29050658410876e+000,-9.19043479323580e-001

6.96440450636895e+004,-9.29050155445437e+000,-9.31872892363896e-001

7.06162397032520e+004,-9.29049638331080e+000,-9.44881399241422e-001

7.16020056742374e+004,-9.29049106669547e+000,-9.58071500094993e-001

7.26015324253724e+004,-9.29048560051330e+000,-9.71445729969776e-001

7.36150120499896e+004,-9.29047998055397e+000,-9.85006659300939e-001

7.46426393229441e+004,-9.29047420248847e+000,-9.98756894410353e-001

7.56846117380472e+004,-9.29046826186566e+000,-1.01269907800717e+000

7.67411295460207e+004,-9.29046215410904e+000,-1.02683588969492e+000

7.78123957929823e+004,-9.29045587451292e+000,-1.04117004648905e+000

7.88986163594682e+004,-9.29044941823908e+000,-1.05570430333639e+000

7.99999999999995e+004,-9.29044278031281e+000,-1.07044145364746e+000

8.11167583832018e+004,-9.29043595561909e+000,-1.08538432983220e+000

8.22491061324848e+004,-9.29042893889872e+000,-1.10053580384470e+000

8.33972608672892e+004,-9.29042172474400e+000,-1.11589878773659e+000

8.45614432449099e+004,-9.29041430759489e+000,-1.13147623421534e+000

8.57418770029029e+004,-9.29040668173442e+000,-1.14727113721354e+000

8.69387890020841e+004,-9.29039884128422e+000,-1.16328653246387e+000

8.81524092701283e+004,-9.29039078020013e+000,-1.17952549808381e+000

8.93829710457770e+004,-9.29038249226759e+000,-1.19599115516558e+000

9.06307108236633e+004,-9.29037397109645e+000,-1.21268666837858e+000

9.18958683997622e+004,-9.29036521011616e+000,-1.22961524657791e+000

9.31786869174758e+004,-9.29035620257089e+000,-1.24678014341996e+000

9.44794129143618e+004,-9.29034694151401e+000,-1.26418465798905e+000

9.57982963695136e+004,-9.29033741980280e+000,-1.28183213543233e+000

9.71355907516031e+004,-9.29032763009270e+000,-1.29972596760350e+000

9.84915530675926e+004,-9.29031756483191e+000,-1.31786959371363e+000

9.98664439121282e+004,-9.29030721625521e+000,-1.33626650099492e+000

1.01260527517622e+005,-9.29029657637821e+000,-1.35492022536921e+000

1.02674071805032e+005,-9.29028563699070e+000,-1.37383435213060e+000

1.04107348435354e+005,-9.29027438965076e+000,-1.39301251663268e+000

1.05560632861831e+005,-9.29026282567763e+000,-1.41245840499097e+000

1.07034204382888e+005,-9.29025093614546e+000,-1.43217575478865e+000

1.08528346195813e+005,-9.29023871187603e+000,-1.45216835579818e+000

1.10043345451179e+005,-9.29022614343151e+000,-1.47244005070981e+000

1.11579493308032e+005,-9.29021322110743e+000,-1.49299473587050e+000

1.13137084989847e+005,-9.29019993492471e+000,-1.51383636203437e+000

1.14716419841265e+005,-9.29018627462213e+000,-1.53496893512230e+000

1.16317801385624e+005,-9.29017222964818e+000,-1.55639651699329e+000

1.17941537383287e+005,-9.29015778915279e+000,-1.57812322622631e+000

1.19587939890794e+005,-9.29014294197887e+000,-1.60015323891246e+000

1.21257325320831e+005,-9.29012767665359e+000,-1.62249078945904e+000

1.22950014503040e+005,-9.29011198137937e+000,-1.64514017140435e+000

1.24666332745679e+005,-9.29009584402443e+000,-1.66810573824546e+000

1.26406609898139e+005,-9.29007925211372e+000,-1.69139190427364e+000

1.28171180414339e+005,-9.29006219281867e+000,-1.71500314542682e+000

1.29960383416997e+005,-9.29004465294729e+000,-1.73894400015034e+000

1.31774562762811e+005,-9.29002661893392e+000,-1.76321907027003e+000

1.33614067108538e+005,-9.29000807682831e+000,-1.78783302188001e+000

1.35479249978003e+005,-9.28998901228487e+000,-1.81279058623942e+000

1.37370469830040e+005,-9.28996941055128e+000,-1.83809656068460e+000

1.39288090127379e+005,-9.28994925645672e+000,-1.86375580955385e+000

1.41232479406504e+005,-9.28992853440023e+000,-1.88977326512211e+000

1.43204011348474e+005,-9.28990722833819e+000,-1.91615392855292e+000

1.45203064850745e+005,-9.28988532177148e+000,-1.94290287086226e+000

1.47230024099979e+005,-9.28986279773292e+000,-1.97002523389361e+000

1.49285278645888e+005,-9.28983963877352e+000,-1.99752623130986e+000

1.51369223476094e+005,-9.28981582694868e+000,-2.02541114959877e+000

1.53482259092041e+005,-9.28979134380395e+000,-2.05368534909090e+000

1.55624791585964e+005,-9.28976617036071e+000,-2.08235426499241e+000

1.57797232718936e+005,-9.28974028710097e+000,-2.11142340843342e+000

1.59999999999999e+005,-9.28971367395151e+000,-2.14089836753141e+000

1.62233516766403e+005,-9.28968631026851e+000,-2.17078480846704e+000

1.64498212264969e+005,-9.28965817482095e+000,-2.20108847657737e+000

1.66794521734578e+005,-9.28962924577349e+000,-2.23181519746507e+000

1.69122886489819e+005,-9.28959950066941e+000,-2.26297087812067e+000

1.71483754005805e+005,-9.28956891641245e+000,-2.29456150806354e+000

1.73877578004168e+005,-9.28953746924876e+000,-2.32659316049579e+000

1.76304818540256e+005,-9.28950513474751e+000,-2.35907199347664e+000

1.78765942091554e+005,-9.28947188778170e+000,-2.39200425110939e+000

1.81261421647326e+005,-9.28943770250788e+000,-2.42539626474765e+000

1.83791736799524e+005,-9.28940255234561e+000,-2.45925445421770e+000

1.86357373834951e+005,-9.28936640995605e+000,-2.49358532905823e+000

1.88958825828723e+005,-9.28932924722019e+000,-2.52839548977809e+000

1.91596592739027e+005,-9.28929103521612e+000,-2.56369162913126e+000

1.94271181503206e+005,-9.28925174419589e+000,-2.59948053341099e+000

1.96983106135185e+005,-9.28921134356164e+000,-2.63576908376065e+000

1.99732887824256e+005,-9.28916980184087e+000,-2.67256425750440e+000

2.02521055035243e+005,-9.28912708666110e+000,-2.70987312949774e+000

2.05348143610063e+005,-9.28908316472388e+000,-2.74770287349412e+000

2.08214696870707e+005,-9.28903800177767e+000,-2.78606076353536e+000

2.11121265723661e+005,-9.28899156259046e+000,-2.82495417535776e+000

2.14068408765776e+005,-9.28894381092097e+000,-2.86439058782112e+000

2.17056692391625e+005,-9.28889470948957e+000,-2.90437758435676e+000

2.20086690902357e+005,-9.28884421994770e+000,-2.94492285443804e+000

2.23158986616063e+005,-9.28879230284714e+000,-2.98603419506848e+000

2.26274169979693e+005,-9.28873891760761e+000,-3.02771951229566e+000

2.29432839682530e+005,-9.28868402248387e+000,-3.06998682274364e+000

2.32635602771247e+005,-9.28862757453190e+000,-3.11284425516778e+000

2.35883074766574e+005,-9.28856952957344e+000,-3.15630005203456e+000

2.39175879781588e+005,-9.28850984216033e+000,-3.20036257112052e+000

2.42514650641661e+005,-9.28844846553709e+000,-3.24504028713676e+000

2.45900029006080e+005,-9.28838535160279e+000,-3.29034179337652e+000

2.49332665491357e+005,-9.28832045087150e+000,-3.33627580338606e+000

2.52813219796278e+005,-9.28825371243173e+000,-3.38285115265985e+000

2.56342360828676e+005,-9.28818508390466e+000,-3.43007680036154e+000

2.59920766833993e+005,-9.28811451140085e+000,-3.47796183106858e+000

2.63549125525621e+005,-9.28804193947607e+000,-3.52651545654293e+000

2.67228134217075e+005,-9.28796731108539e+000,-3.57574701752781e+000

2.70958499956006e+005,-9.28789056753615e+000,-3.62566598557058e+000

2.74740939660078e+005,-9.28781164843942e+000,-3.67628196487260e+000

2.78576180254757e+005,-9.28773049165986e+000,-3.72760469416585e+000

2.82464958813007e+005,-9.28764703326437e+000,-3.77964404861785e+000

2.86408022696948e+005,-9.28756120746898e+000,-3.83241004176446e+000

2.90406129701488e+005,-9.28747294658389e+000,-3.88591282747153e+000

2.94460048199957e+005,-9.28738218095762e+000,-3.94016270192490e+000

2.98570557291775e+005,-9.28728883891843e+000,-3.99517010565175e+000

3.02738446952187e+005,-9.28719284671485e+000,-4.05094562557043e+000

3.06964518184081e+005,-9.28709412845393e+000,-4.10749999707184e+000

3.11249583171928e+005,-9.28699260603770e+000,-4.16484410613232e+000

3.15594465437872e+005,-9.28688819909783e+000,-4.22298899145784e+000

3.19999999999997e+005,-9.28678082492805e+000,-4.28194584666171e+000

3.24467033532806e+005,-9.28667039841489e+000,-4.34172602247322e+000

3.28996424529938e+005,-9.28655683196597e+000,-4.40234102898264e+000

3.33589043469155e+005,-9.28644003543634e+000,-4.46380253791859e+000

3.38245772979638e+005,-9.28631991605241e+000,-4.52612238496110e+000

3.42967508011610e+005,-9.28619637833362e+000,-4.58931257209081e+000

3.47755156008335e+005,-9.28606932401194e+000,-4.65338526997328e+000

3.52609637080511e+005,-9.28593865194873e+000,-4.71835282038126e+000

3.57531884183106e+005,-9.28580425804888e+000,-4.78422773865534e+000

3.62522843294651e+005,-9.28566603517283e+000,-4.85102271620113e+000

3.67583473599047e+005,-9.28552387304565e+000,-4.91875062302782e+000

3.72714747669902e+005,-9.28537765816328e+000,-4.98742451032647e+000

3.77917651657445e+005,-9.28522727369612e+000,-5.05705761308811e+000

3.83193185478053e+005,-9.28507259938973e+000,-5.12766335276488e+000

3.88542363006410e+005,-9.28491351146225e+000,-5.19925533997394e+000

3.93966212270369e+005,-9.28474988249910e+000,-5.27184737724405e+000

3.99465775648511e+005,-9.28458158134440e+000,-5.34545346180745e+000

4.05042110070485e+005,-9.28440847298882e+000,-5.42008778843733e+000

4.10696287220124e+005,-9.28423041845468e+000,-5.49576475233134e+000

4.16429393741414e+005,-9.28404727467698e+000,-5.57249895204351e+000

4.22242531447321e+005,-9.28385889438129e+000,-5.65030519246375e+000

4.28136817531551e+005,-9.28366512595787e+000,-5.72919848784865e+000

4.34113384783250e+005,-9.28346581333207e+000,-5.80919406490140e+000

4.40173381804713e+005,-9.28326079583091e+000,-5.89030736590488e+000

4.46317973232124e+005,-9.28304990804561e+000,-5.97255405190832e+000

4.52548339959385e+005,-9.28283297969026e+000,-6.05595000596779e+000

4.58865679365059e+005,-9.28260983545615e+000,-6.14051133644314e+000

4.65271205542494e+005,-9.28238029486198e+000,-6.22625438035185e+000

4.71766149533147e+005,-9.28214417209966e+000,-6.31319570678096e+000

4.78351759563174e+005,-9.28190127587552e+000,-6.40135212036138e+000

4.85029301283321e+005,-9.28165140924718e+000,-6.49074066480045e+000

4.91800058012158e+005,-9.28139436945546e+000,-6.58137862647992e+000

4.98665330982714e+005,-9.28112994775165e+000,-6.67328353811816e+000

5.05626439592555e+005,-9.28085792921980e+000,-6.76647318249765e+000

5.12684721657352e+005,-9.28057809259380e+000,-6.86096559626263e+000

5.19841533667984e+005,-9.28029021006956e+000,-6.95677907378425e+000

5.27098251051240e+005,-9.27999404711193e+000,-7.05393217109812e+000

5.34456268434150e+005,-9.27968936225582e+000,-7.15244370991667e+000

5.41916999912011e+005,-9.27937590690232e+000,-7.25233278171428e+000

