Freq.,VOut,OutRef

1.00000000000000e+004,-9.88820765082089e+000,-8.19351790871137e-002

1.01395947979003e+004,-9.88820766923032e+000,-8.30789493438840e-002

1.02811382665607e+004,-9.88820768815743e+000,-8.42386859425664e-002

1.04246576084112e+004,-9.88820770761656e+000,-8.54146117623226e-002

1.05701804056138e+004,-9.88820772762240e+000,-8.66069527934069e-002

1.07177346253629e+004,-9.88820774819060e+000,-8.78159381779539e-002

1.08673486252606e+004,-9.88820776933692e+000,-8.90418002578707e-002

1.10190511587661e+004,-9.88820779107736e+000,-9.02847746198838e-002

1.11728713807222e+004,-9.88820781342900e+000,-9.15451001352245e-002

1.13288388529580e+004,-9.88820783640900e+000,-9.28230190120308e-002

1.14869835499703e+004,-9.88820786003465e+000,-9.41187768413779e-002

1.16473358646846e+004,-9.88820788432427e+000,-9.54326226387805e-002

1.18099266142953e+004,-9.88820790929666e+000,-9.67648088964540e-002

1.19747870461893e+004,-9.88820793497067e+000,-9.81155916335951e-002

1.21419488439505e+004,-9.88820796136653e+000,-9.94852304377123e-002

1.23114441334492e+004,-9.88820798850389e+000,-1.00873988526972e-001

1.24833054890161e+004,-9.88820801640406e+000,-1.02282132787213e-001

1.26575659397028e+004,-9.88820804508836e+000,-1.03709933832152e-001

1.28342589756290e+004,-9.88820807457864e+000,-1.05157666054569e-001

1.30134185544193e+004,-9.88820810489779e+000,-1.06625607673547e-001

1.31950791077289e+004,-9.88820813606884e+000,-1.08114040795344e-001

1.33792755478611e+004,-9.88820816811586e+000,-1.09623251461472e-001

1.35660432744767e+004,-9.88820820106363e+000,-1.11153529705468e-001

1.37554181813974e+004,-9.88820823493703e+000,-1.12705169613578e-001

1.39474366635040e+004,-9.88820826976243e+000,-1.14278469371083e-001

1.41421356237309e+004,-9.88820830556647e+000,-1.15873731329321e-001

1.43395524801583e+004,-9.88820834237653e+000,-1.17491262059086e-001

1.45397251732031e+004,-9.88820838022102e+000,-1.19131372409190e-001

1.47426921729110e+004,-9.88820841912876e+000,-1.20794377569577e-001

1.49484924863494e+004,-9.88820845912981e+000,-1.22480597126798e-001

1.51571656651040e+004,-9.88820850025489e+000,-1.24190355129044e-001

1.53687518128801e+004,-9.88820854253541e+000,-1.25923980149324e-001

1.55832915932100e+004,-9.88820858600384e+000,-1.27681805345042e-001

1.58008262372675e+004,-9.88820863069382e+000,-1.29464168522424e-001

1.60213975517924e+004,-9.88820867663929e+000,-1.31271412206649e-001

1.62450479271247e+004,-9.88820872387560e+000,-1.33103883700797e-001

1.64718203453514e+004,-9.88820877243906e+000,-1.34961935156013e-001

1.67017583885674e+004,-9.88820882236695e+000,-1.36845923638602e-001

1.69349062472505e+004,-9.88820887369753e+000,-1.38756211198779e-001

1.71713087287550e+004,-9.88820892647024e+000,-1.40693164939952e-001

1.74110112659224e+004,-9.88820898072543e+000,-1.42657157090448e-001

1.76540599258131e+004,-9.88820903650483e+000,-1.44648565072141e-001

1.79005014185594e+004,-9.88820909385120e+000,-1.46667771575620e-001

1.81503831063432e+004,-9.88820915280846e+000,-1.48715164633224e-001

1.84037530124975e+004,-9.88820921342193e+000,-1.50791137691669e-001

1.86606598307361e+004,-9.88820927573790e+000,-1.52896089691442e-001

1.89211529345119e+004,-9.88820933980455e+000,-1.55030425136916e-001

1.91852823865052e+004,-9.88820940567063e+000,-1.57194554183106e-001

1.94530989482457e+004,-9.88820947338682e+000,-1.59388892706118e-001

1.97246540898671e+004,-9.88820954300494e+000,-1.61613862387962e-001

1.99999999999999e+004,-9.88820961457846e+000,-1.63869890794904e-001

2.02791895958005e+004,-9.88820968816211e+000,-1.66157411462039e-001

2.05622765331213e+004,-9.88820976381239e+000,-1.68476863973247e-001

2.08493152168224e+004,-9.88820984158725e+000,-1.70828694049136e-001

2.11403608112276e+004,-9.88820992154644e+000,-1.73213353628881e-001

2.14354692507258e+004,-9.88821000375091e+000,-1.75631300962954e-001

2.17346972505211e+004,-9.88821008826399e+000,-1.78083000692444e-001

2.20381023175322e+004,-9.88821017515014e+000,-1.80568923947272e-001

2.23457427614443e+004,-9.88821026447626e+000,-1.83089548428636e-001

2.26576777059159e+004,-9.88821035631046e+000,-1.85645358508224e-001

2.29739670999406e+004,-9.88821045072308e+000,-1.88236845316163e-001

2.32946717293690e+004,-9.88821054778666e+000,-1.90864506834589e-001

2.36198532285905e+004,-9.88821064757539e+000,-1.93528847998371e-001

2.39495740923785e+004,-9.88821075016563e+000,-1.96230380787867e-001

2.42838976879009e+004,-9.88821085563606e+000,-1.98969624327202e-001

2.46228882668982e+004,-9.88821096406720e+000,-2.01747104987823e-001

2.49666109780322e+004,-9.88821107554230e+000,-2.04563356483214e-001

2.53151318794055e+004,-9.88821119014659e+000,-2.07418919977452e-001

2.56685179512580e+004,-9.88821130796760e+000,-2.10314344186978e-001

2.60268371088386e+004,-9.88821142909561e+000,-2.13250185483534e-001

2.63901582154578e+004,-9.88821155362334e+000,-2.16227008003342e-001

2.67585510957221e+004,-9.88821168164609e+000,-2.19245383755130e-001

2.71320865489533e+004,-9.88821181326155e+000,-2.22305892731154e-001

2.75108363627948e+004,-9.88821194857041e+000,-2.25409123015771e-001

2.78948733270080e+004,-9.88821208767635e+000,-2.28555670897820e-001

2.82842712474618e+004,-9.88821223068537e+000,-2.31746140991051e-001

2.86791049603164e+004,-9.88821237770708e+000,-2.34981146341435e-001

2.90794503464061e+004,-9.88821252885372e+000,-2.38261308551693e-001

2.94853843458219e+004,-9.88821268424072e+000,-2.41587257898583e-001

2.98969849726987e+004,-9.88821284398682e+000,-2.44959633451828e-001

3.03143313302078e+004,-9.88821300821406e+000,-2.48379083198425e-001

3.07375036257601e+004,-9.88821317704783e+000,-2.51846264167761e-001

3.11665831864199e+004,-9.88821335061711e+000,-2.55361842555634e-001

3.16016524745350e+004,-9.88821352905431e+000,-2.58926493853842e-001

3.20427951035848e+004,-9.88821371249564e+000,-2.62540902978453e-001

3.24900958542493e+004,-9.88821390108113e+000,-2.66205764401957e-001

3.29436406907028e+004,-9.88821409495466e+000,-2.69921782285616e-001

3.34035167771346e+004,-9.88821429426393e+000,-2.73689670616928e-001

3.38698124945009e+004,-9.88821449916116e+000,-2.77510153341742e-001

3.43426174575100e+004,-9.88821470980246e+000,-2.81383964508432e-001

3.48220225318448e+004,-9.88821492634829e+000,-2.85311848405913e-001

3.53081198516260e+004,-9.88821514896381e+000,-2.89294559705215e-001

3.58010028371187e+004,-9.88821537781859e+000,-2.93332863606978e-001

3.63007662126863e+004,-9.88821561308693e+000,-2.97427535986484e-001

3.68075060249948e+004,-9.88821585494793e+000,-3.01579363542566e-001

3.73213196614721e+004,-9.88821610358564e+000,-3.05789143949207e-001

3.78423058690237e+004,-9.88821635918952e+000,-3.10057686005410e-001

3.83705647730104e+004,-9.88821662195378e+000,-3.14385809795965e-001

3.89061978964912e+004,-9.88821689207851e+000,-3.18774346841864e-001

3.94493081797342e+004,-9.88821716976892e+000,-3.23224140265502e-001

3.99999999999998e+004,-9.88821745523609e+000,-3.27736044948693e-001

4.05583791916010e+004,-9.88821774869707e+000,-3.32310927696515e-001

4.11245530662425e+004,-9.88821805037467e+000,-3.36949667405795e-001

4.16986304336447e+004,-9.88821836049803e+000,-3.41653155230523e-001

4.22807216224550e+004,-9.88821867930252e+000,-3.46422294755137e-001

4.28709385014515e+004,-9.88821900703022e+000,-3.51258002164824e-001

4.34693945010421e+004,-9.88821934392951e+000,-3.56161206424504e-001

4.40762046350642e+004,-9.88821969025591e+000,-3.61132849453899e-001

4.46914855228886e+004,-9.88822004627201e+000,-3.66173886307481e-001

4.53153554118317e+004,-9.88822041224741e+000,-3.71285285360556e-001

4.59479341998812e+004,-9.88822078845940e+000,-3.76468028490626e-001

4.65893434587380e+004,-9.88822117519289e+000,-3.81723111267839e-001

4.72397064571810e+004,-9.88822157274018e+000,-3.87051543146935e-001

4.78991481847569e+004,-9.88822198140234e+000,-3.92454347654554e-001

4.85677953758016e+004,-9.88822240148805e+000,-3.97932562592735e-001

4.92457765337964e+004,-9.88822283331485e+000,-4.03487240231135e-001

4.99332219560642e+004,-9.88822327720892e+000,-4.09119447511765e-001

5.06302637588109e+004,-9.88822373350528e+000,-4.14830266252247e-001

5.13370359025159e+004,-9.88822420254823e+000,-4.20620793351769e-001

5.20536742176771e+004,-9.88822468469149e+000,-4.26492141002367e-001

5.27803164309155e+004,-9.88822518029851e+000,-4.32445436899873e-001

5.35171021914442e+004,-9.88822568974260e+000,-4.38481824460567e-001

5.42641730979066e+004,-9.88822621340715e+000,-4.44602463040945e-001

5.50216727255895e+004,-9.88822675168631e+000,-4.50808528155538e-001

5.57897466540159e+004,-9.88822730498471e+000,-4.57101211705206e-001

5.65685424949235e+004,-9.88822787371836e+000,-4.63481722201835e-001

5.73582099206328e+004,-9.88822845831405e+000,-4.69951285003531e-001

5.81589006928121e+004,-9.88822905921065e+000,-4.76511142542846e-001

5.89707686916437e+004,-9.88822967685876e+000,-4.83162554568368e-001

5.97939699453972e+004,-9.88823031172132e+000,-4.89906798383075e-001

6.06286626604156e+004,-9.88823096427356e+000,-4.96745169090200e-001

6.14750072515201e+004,-9.88823163500405e+000,-5.03678979836269e-001

6.23331663728396e+004,-9.88823232441413e+000,-5.10709562067134e-001

6.32033049490698e+004,-9.88823303301889e+000,-5.17838265777603e-001

6.40855902071694e+004,-9.88823376134750e+000,-5.25066459769668e-001

6.49801917084985e+004,-9.88823450994294e+000,-5.32395531916943e-001

6.58872813814055e+004,-9.88823527936327e+000,-5.39826889423344e-001

6.68070335542691e+004,-9.88823607018134e+000,-5.47361959096390e-001

6.77396249890018e+004,-9.88823688298548e+000,-5.55002187616271e-001

6.86852349150199e+004,-9.88823771837975e+000,-5.62749041812192e-001

6.96440450636895e+004,-9.88823857698434e+000,-5.70604008942708e-001

7.06162397032520e+004,-9.88823945943621e+000,-5.78568596976543e-001

7.16020056742374e+004,-9.88824036638911e+000,-5.86644334882592e-001

7.26015324253724e+004,-9.88824129851449e+000,-5.94832772917572e-001

7.36150120499896e+004,-9.88824225650142e+000,-6.03135482924201e-001

7.46426393229441e+004,-9.88824324105744e+000,-6.11554058628057e-001

7.56846117380472e+004,-9.88824425290891e+000,-6.20090115940699e-001

7.67411295460207e+004,-9.88824529280142e+000,-6.28745293267581e-001

7.78123957929823e+004,-9.88824636150010e+000,-6.37521251820269e-001

7.88986163594682e+004,-9.88824745979044e+000,-6.46419675929717e-001

7.99999999999995e+004,-9.88824858847871e+000,-6.55442273366982e-001

8.11167583832018e+004,-9.88824974839229e+000,-6.64590775668190e-001

8.22491061324848e+004,-9.88825094038016e+000,-6.73866938463439e-001

8.33972608672892e+004,-9.88825216531379e+000,-6.83272541807856e-001

8.45614432449099e+004,-9.88825342408722e+000,-6.92809390520992e-001

8.57418770029029e+004,-9.88825471761783e+000,-7.02479314529135e-001

8.69387890020841e+004,-9.88825604684711e+000,-7.12284169209454e-001

8.81524092701283e+004,-9.88825741274056e+000,-7.22225835746270e-001

8.93829710457770e+004,-9.88825881628912e+000,-7.32306221481391e-001

9.06307108236633e+004,-9.88826025850901e+000,-7.42527260280551e-001

9.18958683997622e+004,-9.88826174044272e+000,-7.52890912895822e-001

9.31786869174758e+004,-9.88826326315965e+000,-7.63399167337407e-001

9.44794129143618e+004,-9.88826482775631e+000,-7.74054039250998e-001

9.57982963695136e+004,-9.88826643535751e+000,-7.84857572295703e-001

9.71355907516031e+004,-9.88826808711649e+000,-7.95811838532852e-001

9.84915530675926e+004,-9.88826978421594e+000,-8.06918938814892e-001

9.98664439121282e+004,-9.88827152786830e+000,-8.18181003184140e-001

1.01260527517622e+005,-9.88827331931674e+000,-8.29600191272173e-001

1.02674071805032e+005,-9.88827515983546e+000,-8.41178692709451e-001

1.04107348435354e+005,-9.88827705073087e+000,-8.52918727534856e-001

1.05560632861831e+005,-9.88827899334167e+000,-8.64822546616796e-001

1.07034204382888e+005,-9.88828098904001e+000,-8.76892432074793e-001

1.08528346195813e+005,-9.88828303923187e+000,-8.89130697709882e-001

1.10043345451179e+005,-9.88828514535799e+000,-9.01539689438783e-001

1.11579493308032e+005,-9.88828730889439e+000,-9.14121785735457e-001

1.13137084989847e+005,-9.88828953135317e+000,-9.26879398077100e-001

1.14716419841265e+005,-9.88829181428332e+000,-9.39814971396654e-001

1.16317801385624e+005,-9.88829415927109e+000,-9.52930984542564e-001

1.17941537383287e+005,-9.88829656794101e+000,-9.66229950742140e-001

1.19587939890794e+005,-9.88829904195654e+000,-9.79714418072481e-001

1.21257325320831e+005,-9.88830158302077e+000,-9.93386969937535e-001

1.22950014503040e+005,-9.88830419287717e+000,-1.00725022555127e+000

1.24666332745679e+005,-9.88830687331011e+000,-1.02130684042814e+000

1.26406609898139e+005,-9.88830962614582e+000,-1.03555950687763e+000

1.28171180414339e+005,-9.88831245325303e+000,-1.05001095450760e+000

1.29960383416997e+005,-9.88831535654354e+000,-1.06466395073314e+000

1.31774562762811e+005,-9.88831833797309e+000,-1.07952130129252e+000

1.33614067108538e+005,-9.88832139954190e+000,-1.09458585076955e+000

1.35479249978003e+005,-9.88832454329544e+000,-1.10986048312247e+000

1.37370469830040e+005,-9.88832777132495e+000,-1.12534812222102e+000

1.39288090127379e+005,-9.88833108576830e+000,-1.14105173238816e+000

1.41232479406504e+005,-9.88833448881043e+000,-1.15697431895168e+000

1.43204011348474e+005,-9.88833798268395e+000,-1.17311892880061e+000

1.45203064850745e+005,-9.88834156966990e+000,-1.18948865094957e+000

1.47230024099979e+005,-9.88834525209812e+000,-1.20608661711098e+000

1.49285278645888e+005,-9.88834903234789e+000,-1.22291600227373e+000

1.51369223476094e+005,-9.88835291284843e+000,-1.23998002529000e+000

1.53482259092041e+005,-9.88835689607919e+000,-1.25728194946929e+000

1.55624791585964e+005,-9.88836098457054e+000,-1.27482508317965e+000

1.57797232718936e+005,-9.88836518090400e+000,-1.29261278045719e+000

1.59999999999999e+005,-9.88836948771251e+000,-1.31064844162380e+000

1.62233516766403e+005,-9.88837390768096e+000,-1.32893551391050e+000

1.64498212264969e+005,-9.88837844354619e+000,-1.34747749209207e+000

1.66794521734578e+005,-9.88838309809728e+000,-1.36627791912652e+000

1.69122886489819e+005,-9.88838787417553e+000,-1.38534038680526e+000

1.71483754005805e+005,-9.88839277467466e+000,-1.40466853640939e+000

1.73877578004168e+005,-9.88839780254086e+000,-1.42426605937413e+000

1.76304818540256e+005,-9.88840296077221e+000,-1.44413669796588e+000

1.78765942091554e+005,-9.88840825241906e+000,-1.46428424596061e+000

1.81261421647326e+005,-9.88841368058337e+000,-1.48471254933669e+000

1.83791736799524e+005,-9.88841924841826e+000,-1.50542550697455e+000

1.86357373834951e+005,-9.88842495912775e+000,-1.52642707136336e+000

1.88958825828723e+005,-9.88843081596600e+000,-1.54772124931868e+000

1.91596592739027e+005,-9.88843682223655e+000,-1.56931210270811e+000

1.94271181503206e+005,-9.88844298129141e+000,-1.59120374918601e+000

1.96983106135185e+005,-9.88844929652990e+000,-1.61340036293780e+000

1.99732887824256e+005,-9.88845577139776e+000,-1.63590617543183e+000

2.02521055035243e+005,-9.88846240938564e+000,-1.65872547618197e+000

2.05348143610063e+005,-9.88846921402731e+000,-1.68186261352052e+000

2.08214696870707e+005,-9.88847618889829e+000,-1.70532199537724e+000

2.11121265723661e+005,-9.88848333761378e+000,-1.72910809007108e+000

2.14068408765776e+005,-9.88849066382641e+000,-1.75322542711038e+000

2.17056692391625e+005,-9.88849817122402e+000,-1.77767859800221e+000

2.20086690902357e+005,-9.88850586352688e+000,-1.80247225707333e+000

2.23158986616063e+005,-9.88851374448510e+000,-1.82761112229767e+000

2.26274169979693e+005,-9.88852181787490e+000,-1.85309997613969e+000

2.29432839682530e+005,-9.88853008749581e+000,-1.87894366640071e+000

2.32635602771247e+005,-9.88853855716651e+000,-1.90514710708161e+000

2.35883074766574e+005,-9.88854723072078e+000,-1.93171527925232e+000

2.39175879781588e+005,-9.88855611200321e+000,-1.95865323193327e+000

2.42514650641661e+005,-9.88856520486411e+000,-1.98596608298724e+000

2.45900029006080e+005,-9.88857451315462e+000,-2.01365902002122e+000

2.49332665491357e+005,-9.88858404072083e+000,-2.04173730130041e+000

2.52813219796278e+005,-9.88859379139786e+000,-2.07020625667184e+000

2.56342360828676e+005,-9.88860376900317e+000,-2.09907128850067e+000

2.59920766833993e+005,-9.88861397732991e+000,-2.12833787261455e+000

2.63549125525621e+005,-9.88862442013871e+000,-2.15801155926505e+000

2.67228134217075e+005,-9.88863510115034e+000,-2.18809797409329e+000

2.70958499956006e+005,-9.88864602403643e+000,-2.21860281911425e+000

2.74740939660078e+005,-9.88865719241054e+000,-2.24953187370723e+000

2.78576180254757e+005,-9.88866860981817e+000,-2.28089099562178e+000

2.82464958813007e+005,-9.88868027972604e+000,-2.31268612199458e+000

2.86408022696948e+005,-9.88869220551086e+000,-2.34492327037838e+000

2.90406129701488e+005,-9.88870439044727e+000,-2.37760853978360e+000

2.94460048199957e+005,-9.88871683769495e+000,-2.41074811173225e+000

2.98570557291775e+005,-9.88872955028487e+000,-2.44434825132584e+000

3.02738446952187e+005,-9.88874253110484e+000,-2.47841530832440e+000

3.06964518184081e+005,-9.88875578288394e+000,-2.51295571824038e+000

3.11249583171928e+005,-9.88876930817610e+000,-2.54797600344445e+000

3.15594465437872e+005,-9.88878310934256e+000,-2.58348277428735e+000

3.19999999999997e+005,-9.88879718853353e+000,-2.61948273023185e+000

3.24467033532806e+005,-9.88881154766827e+000,-2.65598266100299e+000

3.28996424529938e+005,-9.88882618841448e+000,-2.69298944774958e+000

3.33589043469155e+005,-9.88884111216638e+000,-2.73051006422114e+000

3.38245772979638e+005,-9.88885632002100e+000,-2.76855157796149e+000

3.42967508011610e+005,-9.88887181275383e+000,-2.80712115151499e+000

3.47755156008335e+005,-9.88888759079286e+000,-2.84622604364927e+000

3.52609637080511e+005,-9.88890365419076e+000,-2.88587361059497e+000

3.57531884183106e+005,-9.88892000259608e+000,-2.92607130729948e+000

3.62522843294651e+005,-9.88893663522243e+000,-2.96682668870019e+000

3.67583473599047e+005,-9.88895355081637e+000,-3.00814741101114e+000

3.72714747669902e+005,-9.88897074762324e+000,-3.05004123302958e+000

3.77917651657445e+005,-9.88898822335133e+000,-3.09251601745990e+000

3.83193185478053e+005,-9.88900597513418e+000,-3.13557973225516e+000

3.88542363006410e+005,-9.88902399949078e+000,-3.17924045197764e+000

3.93966212270369e+005,-9.88904229228407e+000,-3.22350635917854e+000

3.99465775648511e+005,-9.88906084867687e+000,-3.26838574579713e+000

4.05042110070485e+005,-9.88907966308582e+000,-3.31388701458129e+000

4.10696287220124e+005,-9.88909872913318e+000,-3.36001868052712e+000

4.16429393741414e+005,-9.88911803959602e+000,-3.40678937234161e+000

4.22242531447321e+005,-9.88913758635309e+000,-3.45420783392637e+000

4.28136817531551e+005,-9.88915736032899e+000,-3.50228292588473e+000

4.34113384783250e+005,-9.88917735143598e+000,-3.55102362705188e+000

4.40173381804713e+005,-9.88919754851271e+000,-3.60043903605033e+000

4.46317973232124e+005,-9.88921793926050e+000,-3.65053837286803e+000

4.52548339959385e+005,-9.88923851017648e+000,-3.70133098046489e+000

4.58865679365059e+005,-9.88925924648360e+000,-3.75282632640517e+000

4.65271205542494e+005,-9.88928013205787e+000,-3.80503400451687e+000

4.71766149533147e+005,-9.88930114935246e+000,-3.85796373657894e+000

4.78351759563174e+005,-9.88932227931794e+000,-3.91162537404140e+000

4.85029301283321e+005,-9.88934350131978e+000,-3.96602889977191e+000

4.91800058012158e+005,-9.88936479305220e+000,-4.02118442983639e+000

4.98665330982714e+005,-9.88938613044818e+000,-4.07710221531228e+000

5.05626439592555e+005,-9.88940748758635e+000,-4.13379264413488e+000

5.12684721657352e+005,-9.88942883659374e+000,-4.19126624297896e+000

5.19841533667984e+005,-9.88945014754484e+000,-4.24953367917844e+000

5.27098251051240e+005,-9.88947138835697e+000,-4.30860576268099e+000

5.34456268434150e+005,-9.88949252468130e+000,-4.36849344804479e+000

5.41916999912011e+005,-9.88951351979018e+000,-4.42920783647354e+000

