Freq.,VOut,OutRef

1.00000000000000e+004,-1.20241006100573e+001,-4.38584643032650e-002

1.01395947979003e+004,-1.20241006432916e+001,-4.44707041190555e-002

1.02811382665607e+004,-1.20241006774600e+001,-4.50914904194386e-002

1.04246576084112e+004,-1.20241007125890e+001,-4.57209425058453e-002

1.05701804056138e+004,-1.20241007487053e+001,-4.63591813458933e-002

1.07177346253629e+004,-1.20241007858370e+001,-4.70063295946723e-002

1.08673486252606e+004,-1.20241008240125e+001,-4.76625116189453e-002

1.10190511587661e+004,-1.20241008632612e+001,-4.83278535231254e-002

1.11728713807222e+004,-1.20241009036131e+001,-4.90024831708257e-002

1.13288388529580e+004,-1.20241009450995e+001,-4.96865302104846e-002

1.14869835499703e+004,-1.20241009877521e+001,-5.03801260993986e-002

1.16473358646846e+004,-1.20241010316036e+001,-5.10834041326461e-002

1.18099266142953e+004,-1.20241010766876e+001,-5.17964994638079e-002

1.19747870461893e+004,-1.20241011230392e+001,-5.25195491308154e-002

1.21419488439505e+004,-1.20241011706938e+001,-5.32526920877418e-002

1.23114441334492e+004,-1.20241012196877e+001,-5.39960692289281e-002

1.24833054890161e+004,-1.20241012700590e+001,-5.47498234109628e-002

1.26575659397028e+004,-1.20241013218461e+001,-5.55140994891003e-002

1.28342589756290e+004,-1.20241013750891e+001,-5.62890443358402e-002

1.30134185544193e+004,-1.20241014298288e+001,-5.70748068779197e-002

1.31950791077289e+004,-1.20241014861071e+001,-5.78715381193222e-002

1.33792755478611e+004,-1.20241015439673e+001,-5.86793911716812e-002

1.35660432744767e+004,-1.20241016034538e+001,-5.94985212840305e-002

1.37554181813974e+004,-1.20241016646127e+001,-6.03290858691321e-002

1.39474366635040e+004,-1.20241017274906e+001,-6.11712445426634e-002

1.41421356237309e+004,-1.20241017921357e+001,-6.20251591451229e-002

1.43395524801583e+004,-1.20241018585983e+001,-6.28909937730260e-002

1.45397251732031e+004,-1.20241019269290e+001,-6.37689148180187e-002

1.47426921729110e+004,-1.20241019971801e+001,-6.46590909948397e-002

1.49484924863494e+004,-1.20241020694062e+001,-6.55616933661175e-002

1.51571656651040e+004,-1.20241021436621e+001,-6.64768953905021e-002

1.53687518128801e+004,-1.20241022200056e+001,-6.74048729398350e-002

1.55832915932100e+004,-1.20241022984946e+001,-6.83458043489109e-002

1.58008262372675e+004,-1.20241023791900e+001,-6.92998704343760e-002

1.60213975517924e+004,-1.20241024621534e+001,-7.02672545407847e-002

1.62450479271247e+004,-1.20241025474487e+001,-7.12481425694585e-002

1.64718203453514e+004,-1.20241026351414e+001,-7.22427230176880e-002

1.67017583885674e+004,-1.20241027252991e+001,-7.32511870122605e-002

1.69349062472505e+004,-1.20241028179906e+001,-7.42737283507803e-002

1.71713087287550e+004,-1.20241029132875e+001,-7.53105435310146e-002

1.74110112659224e+004,-1.20241030112627e+001,-7.63618317968249e-002

1.76540599258131e+004,-1.20241031119919e+001,-7.74277951702756e-002

1.79005014185594e+004,-1.20241032155520e+001,-7.85086384953835e-002

1.81503831063432e+004,-1.20241033220228e+001,-7.96045694737786e-002

1.84037530124975e+004,-1.20241034314860e+001,-8.07157987061426e-002

1.86606598307361e+004,-1.20241035440257e+001,-8.18425397327549e-002

1.89211529345119e+004,-1.20241036597282e+001,-8.29850090732414e-002

1.91852823865052e+004,-1.20241037786829e+001,-8.41434262676198e-002

1.94530989482457e+004,-1.20241039009804e+001,-8.53180139255519e-002

1.97246540898671e+004,-1.20241040267153e+001,-8.65089977551814e-002

1.99999999999999e+004,-1.20241041559837e+001,-8.77166066233470e-002

2.02791895958005e+004,-1.20241042888850e+001,-8.89410725843566e-002

2.05622765331213e+004,-1.20241044255213e+001,-9.01826309343870e-002

2.08493152168224e+004,-1.20241045659977e+001,-9.14415202497534e-002

2.11403608112276e+004,-1.20241047104218e+001,-9.27179824418377e-002

2.14354692507258e+004,-1.20241048589046e+001,-9.40122627933537e-002

2.17346972505211e+004,-1.20241050115602e+001,-9.53246100116092e-002

2.20381023175322e+004,-1.20241051685056e+001,-9.66552762752535e-002

2.23457427614443e+004,-1.20241053298616e+001,-9.80045172803391e-002

2.26576777059159e+004,-1.20241054957520e+001,-9.93725922923438e-002

2.29739670999406e+004,-1.20241056663038e+001,-1.00759764197069e-001

2.32946717293690e+004,-1.20241058416484e+001,-1.02166299543945e-001

2.36198532285905e+004,-1.20241060219204e+001,-1.03592468604247e-001

2.39495740923785e+004,-1.20241062072577e+001,-1.05038545423632e-001

2.42838976879009e+004,-1.20241063978031e+001,-1.06504807866858e-001

2.46228882668982e+004,-1.20241065937026e+001,-1.07991537679694e-001

2.49666109780322e+004,-1.20241067951068e+001,-1.09499020536041e-001

2.53151318794055e+004,-1.20241070021700e+001,-1.11027546100960e-001

2.56685179512580e+004,-1.20241072150511e+001,-1.12577408078047e-001

2.60268371088386e+004,-1.20241074339137e+001,-1.14148904267988e-001

2.63901582154578e+004,-1.20241076589258e+001,-1.15742336628516e-001

2.67585510957221e+004,-1.20241078902599e+001,-1.17358011331895e-001

2.71320865489533e+004,-1.20241081280935e+001,-1.18996238821134e-001

2.75108363627948e+004,-1.20241083726094e+001,-1.20657333869272e-001

2.78948733270080e+004,-1.20241086239946e+001,-1.22341615645067e-001

2.82842712474618e+004,-1.20241088824426e+001,-1.24049407765716e-001

2.86791049603164e+004,-1.20241091481513e+001,-1.25781038367779e-001

2.90794503464061e+004,-1.20241094213247e+001,-1.27536840163721e-001

2.94853843458219e+004,-1.20241097021723e+001,-1.29317150507652e-001

2.98969849726987e+004,-1.20241099909095e+001,-1.31122311462903e-001

3.03143313302078e+004,-1.20241102877579e+001,-1.32952669861458e-001

3.07375036257601e+004,-1.20241105929449e+001,-1.34808577377584e-001

3.11665831864199e+004,-1.20241109067049e+001,-1.36690390588494e-001

3.16016524745350e+004,-1.20241112292783e+001,-1.38598471048983e-001

3.20427951035848e+004,-1.20241115609123e+001,-1.40533185355897e-001

3.24900958542493e+004,-1.20241119018613e+001,-1.42494905220968e-001

3.29436406907028e+004,-1.20241122523870e+001,-1.44484007538460e-001

3.34035167771346e+004,-1.20241126127577e+001,-1.46500874465168e-001

3.38698124945009e+004,-1.20241129832499e+001,-1.48545893485281e-001

3.43426174575100e+004,-1.20241133641473e+001,-1.50619457489866e-001

3.48220225318448e+004,-1.20241137557422e+001,-1.52721964847348e-001

3.53081198516260e+004,-1.20241141583344e+001,-1.54853819487308e-001

3.58010028371187e+004,-1.20241145722327e+001,-1.57015430969433e-001

3.63007662126863e+004,-1.20241149977539e+001,-1.59207214568797e-001

3.68075060249948e+004,-1.20241154352243e+001,-1.61429591350236e-001

3.73213196614721e+004,-1.20241158849790e+001,-1.63682988252426e-001

3.78423058690237e+004,-1.20241163473623e+001,-1.65967838170068e-001

3.83705647730104e+004,-1.20241168227286e+001,-1.68284580031857e-001

3.89061978964912e+004,-1.20241173114419e+001,-1.70633658890510e-001

3.94493081797342e+004,-1.20241178138764e+001,-1.73015526005339e-001

3.99999999999998e+004,-1.20241183304168e+001,-1.75430638927484e-001

4.05583791916010e+004,-1.20241188614585e+001,-1.77879461589094e-001

4.11245530662425e+004,-1.20241194074082e+001,-1.80362464391913e-001

4.16986304336447e+004,-1.20241199686837e+001,-1.82880124296352e-001

4.22807216224550e+004,-1.20241205457145e+001,-1.85432924915239e-001

4.28709385014515e+004,-1.20241211389422e+001,-1.88021356602829e-001

4.34693945010421e+004,-1.20241217488209e+001,-1.90645916550597e-001

4.40762046350642e+004,-1.20241223758167e+001,-1.93307108884567e-001

4.46914855228886e+004,-1.20241230204097e+001,-1.96005444754482e-001

4.53153554118317e+004,-1.20241236830925e+001,-1.98741442441171e-001

4.59479341998812e+004,-1.20241243643721e+001,-2.01515627448452e-001

4.65893434587380e+004,-1.20241250647694e+001,-2.04328532605714e-001

4.72397064571810e+004,-1.20241257848198e+001,-2.07180698170566e-001

4.78991481847569e+004,-1.20241265250736e+001,-2.10072671932145e-001

4.85677953758016e+004,-1.20241272860966e+001,-2.13005009313576e-001

4.92457765337964e+004,-1.20241280684702e+001,-2.15978273482146e-001

4.99332219560642e+004,-1.20241288727923e+001,-2.18993035451041e-001

5.06302637588109e+004,-1.20241296996771e+001,-2.22049874194547e-001

5.13370359025159e+004,-1.20241305497561e+001,-2.25149376755966e-001

5.20536742176771e+004,-1.20241314236785e+001,-2.28292138356284e-001

5.27803164309155e+004,-1.20241323221112e+001,-2.31478762514995e-001

5.35171021914442e+004,-1.20241332457403e+001,-2.34709861157892e-001

5.42641730979066e+004,-1.20241341952703e+001,-2.37986054740629e-001

5.50216727255895e+004,-1.20241351714259e+001,-2.41307972360085e-001

5.57897466540159e+004,-1.20241361749514e+001,-2.44676251882121e-001

5.65685424949235e+004,-1.20241372066123e+001,-2.48091540055461e-001

5.73582099206328e+004,-1.20241382671952e+001,-2.51554492639688e-001

5.81589006928121e+004,-1.20241393575085e+001,-2.55065774530353e-001

5.89707686916437e+004,-1.20241404783831e+001,-2.58626059883265e-001

5.97939699453972e+004,-1.20241416306729e+001,-2.62236032244836e-001

6.06286626604156e+004,-1.20241428152557e+001,-2.65896384680551e-001

6.14750072515201e+004,-1.20241440330336e+001,-2.69607819909431e-001

6.23331663728396e+004,-1.20241452849334e+001,-2.73371050436559e-001

6.32033049490698e+004,-1.20241465719082e+001,-2.77186798685358e-001

6.40855902071694e+004,-1.20241478949372e+001,-2.81055797141749e-001

6.49801917084985e+004,-1.20241492550266e+001,-2.84978788488671e-001

6.58872813814055e+004,-1.20241506532108e+001,-2.88956525748334e-001

6.68070335542691e+004,-1.20241520905526e+001,-2.92989772426199e-001

6.77396249890018e+004,-1.20241535681443e+001,-2.97079302654258e-001

6.86852349150199e+004,-1.20241550871084e+001,-3.01225901341405e-001

6.96440450636895e+004,-1.20241566485985e+001,-3.05430364318356e-001

7.06162397032520e+004,-1.20241582538001e+001,-3.09693498492568e-001

7.16020056742374e+004,-1.20241599039312e+001,-3.14016121998858e-001

7.26015324253724e+004,-1.20241616002440e+001,-3.18399064355353e-001

7.36150120499896e+004,-1.20241633440246e+001,-3.22843166622034e-001

7.46426393229441e+004,-1.20241651365950e+001,-3.27349281557816e-001

7.56846117380472e+004,-1.20241669793136e+001,-3.31918273784076e-001

7.67411295460207e+004,-1.20241688735761e+001,-3.36551019948625e-001

7.78123957929823e+004,-1.20241708208167e+001,-3.41248408890219e-001

7.88986163594682e+004,-1.20241728225092e+001,-3.46011341807567e-001

7.99999999999995e+004,-1.20241748801676e+001,-3.50840732430937e-001

8.11167583832018e+004,-1.20241769953481e+001,-3.55737507192583e-001

8.22491061324848e+004,-1.20241791696490e+001,-3.60702605404631e-001

8.33972608672892e+004,-1.20241814047129e+001,-3.65736979435134e-001

8.45614432449099e+004,-1.20241837022273e+001,-3.70841594888158e-001

8.57418770029029e+004,-1.20241860639263e+001,-3.76017430784800e-001

8.69387890020841e+004,-1.20241884915909e+001,-3.81265479751612e-001

8.81524092701283e+004,-1.20241909870514e+001,-3.86586748203598e-001

8.93829710457770e+004,-1.20241935521878e+001,-3.91982256537817e-001

9.06307108236633e+004,-1.20241961889319e+001,-3.97453039321237e-001

9.18958683997622e+004,-1.20241988992678e+001,-4.03000145490138e-001

9.31786869174758e+004,-1.20242016852343e+001,-4.08624638544797e-001

9.44794129143618e+004,-1.20242045489249e+001,-4.14327596751505e-001

9.57982963695136e+004,-1.20242074924914e+001,-4.20110113341297e-001

9.71355907516031e+004,-1.20242105181430e+001,-4.25973296720741e-001

9.84915530675926e+004,-1.20242136281497e+001,-4.31918270676594e-001

9.98664439121282e+004,-1.20242168248427e+001,-4.37946174588102e-001

1.01260527517622e+005,-1.20242201106170e+001,-4.44058163639148e-001

1.02674071805032e+005,-1.20242234879321e+001,-4.50255409037283e-001

1.04107348435354e+005,-1.20242269593143e+001,-4.56539098230879e-001

1.05560632861831e+005,-1.20242305273580e+001,-4.62910435133130e-001

1.07034204382888e+005,-1.20242341947282e+001,-4.69370640344600e-001

1.08528346195813e+005,-1.20242379641614e+001,-4.75920951385342e-001

1.10043345451179e+005,-1.20242418384682e+001,-4.82562622921462e-001

1.11579493308032e+005,-1.20242458205346e+001,-4.89296927003833e-001

1.13137084989847e+005,-1.20242499133245e+001,-4.96125153301615e-001

1.14716419841265e+005,-1.20242541198813e+001,-5.03048609344753e-001

1.16317801385624e+005,-1.20242584433299e+001,-5.10068620766749e-001

1.17941537383287e+005,-1.20242628868792e+001,-5.17186531550642e-001

1.19587939890794e+005,-1.20242674538239e+001,-5.24403704279331e-001

1.21257325320831e+005,-1.20242721475463e+001,-5.31721520390295e-001

1.22950014503040e+005,-1.20242769715196e+001,-5.39141380427891e-001

1.24666332745679e+005,-1.20242819293091e+001,-5.46664704306389e-001

1.26406609898139e+005,-1.20242870245748e+001,-5.54292931572821e-001

1.28171180414339e+005,-1.20242922610741e+001,-5.62027521671091e-001

1.29960383416997e+005,-1.20242976426640e+001,-5.69869954213023e-001

1.31774562762811e+005,-1.20243031733035e+001,-5.77821729251540e-001

1.33614067108538e+005,-1.20243088570559e+001,-5.85884367558130e-001

1.35479249978003e+005,-1.20243146980921e+001,-5.94059410900564e-001

1.37370469830040e+005,-1.20243207006924e+001,-6.02348422328930e-001

1.39288090127379e+005,-1.20243268692497e+001,-6.10752986462576e-001

1.41232479406504e+005,-1.20243332082717e+001,-6.19274709780705e-001

1.43204011348474e+005,-1.20243397223845e+001,-6.27915220915948e-001

1.45203064850745e+005,-1.20243464163344e+001,-6.36676170954793e-001

1.47230024099979e+005,-1.20243532949918e+001,-6.45559233738094e-001

1.49285278645888e+005,-1.20243603633532e+001,-6.54566106167501e-001

1.51369223476094e+005,-1.20243676265448e+001,-6.63698508515265e-001

1.53482259092041e+005,-1.20243750898255e+001,-6.72958184737088e-001

1.55624791585964e+005,-1.20243827585896e+001,-6.82346902789966e-001

1.57797232718936e+005,-1.20243906383701e+001,-6.91866454954263e-001

1.59999999999999e+005,-1.20243987348424e+001,-7.01518658156476e-001

1.62233516766403e+005,-1.20244070538266e+001,-7.11305354302418e-001

1.64498212264969e+005,-1.20244156012916e+001,-7.21228410606438e-001

1.66794521734578e+005,-1.20244243833581e+001,-7.31289719931792e-001

1.69122886489819e+005,-1.20244334063019e+001,-7.41491201131304e-001

1.71483754005805e+005,-1.20244426765576e+001,-7.51834799391571e-001

1.73877578004168e+005,-1.20244522007219e+001,-7.62322486585483e-001

1.76304818540256e+005,-1.20244619855574e+001,-7.72956261623391e-001

1.78765942091554e+005,-1.20244720379956e+001,-7.83738150814363e-001

1.81261421647326e+005,-1.20244823651411e+001,-7.94670208226279e-001

1.83791736799524e+005,-1.20244929742751e+001,-8.05754516053950e-001

1.86357373834951e+005,-1.20245038728590e+001,-8.16993184990603e-001

1.88958825828723e+005,-1.20245150685381e+001,-8.28388354602982e-001

1.91596592739027e+005,-1.20245265691456e+001,-8.39942193712654e-001

1.94271181503206e+005,-1.20245383827061e+001,-8.51656900778383e-001

1.96983106135185e+005,-1.20245505174398e+001,-8.63534704288727e-001

1.99732887824256e+005,-1.20245629817660e+001,-8.75577863152297e-001

2.02521055035243e+005,-1.20245757843072e+001,-8.87788667098530e-001

2.05348143610063e+005,-1.20245889338929e+001,-9.00169437079733e-001

2.08214696870707e+005,-1.20246024395635e+001,-9.12722525679394e-001

2.11121265723661e+005,-1.20246163105744e+001,-9.25450317522471e-001

2.14068408765776e+005,-1.20246305563998e+001,-9.38355229695781e-001

2.17056692391625e+005,-1.20246451867365e+001,-9.51439712167319e-001

2.20086690902357e+005,-1.20246602115082e+001,-9.64706248214449e-001

2.23158986616063e+005,-1.20246756408688e+001,-9.78157354854693e-001

2.26274169979693e+005,-1.20246914852070e+001,-9.91795583283087e-001

2.29432839682530e+005,-1.20247077551499e+001,-1.00562351931246e+000

2.32635602771247e+005,-1.20247244615666e+001,-1.01964378382180e+000

2.35883074766574e+005,-1.20247416155724e+001,-1.03385903320455e+000

2.39175879781588e+005,-1.20247592285323e+001,-1.04827195983003e+000

2.42514650641661e+005,-1.20247773120649e+001,-1.06288529250030e+000

2.45900029006080e+005,-1.20247958780459e+001,-1.07770179692062e+000

2.49332665491357e+005,-1.20248149386117e+001,-1.09272427616939e+000

2.52813219796278e+005,-1.20248345061633e+001,-1.10795557117618e+000

2.56342360828676e+005,-1.20248545933686e+001,-1.12339856120579e+000

2.59920766833993e+005,-1.20248752131674e+001,-1.13905616434363e+000

2.63549125525621e+005,-1.20248963787729e+001,-1.15493133799160e+000

2.67228134217075e+005,-1.20249181036760e+001,-1.17102707936522e+000

2.70958499956006e+005,-1.20249404016473e+001,-1.18734642600064e+000

2.74740939660078e+005,-1.20249632867406e+001,-1.20389245626193e+000

2.78576180254757e+005,-1.20249867732951e+001,-1.22066828985742e+000

2.82464958813007e+005,-1.20250108759379e+001,-1.23767708836246e+000

2.86408022696948e+005,-1.20250356095861e+001,-1.25492205574577e+000

2.90406129701488e+005,-1.20250609894489e+001,-1.27240643890258e+000

2.94460048199957e+005,-1.20250870310294e+001,-1.29013352819291e+000

2.98570557291775e+005,-1.20251137501260e+001,-1.30810665798728e+000

3.02738446952187e+005,-1.20251411628337e+001,-1.32632920721786e+000

3.06964518184081e+005,-1.20251692855448e+001,-1.34480459993523e+000

3.11249583171928e+005,-1.20251981349497e+001,-1.36353630587208e+000

3.15594465437872e+005,-1.20252277280372e+001,-1.38252784101273e+000

3.19999999999997e+005,-1.20252580820944e+001,-1.40178276816899e+000

3.24467033532806e+005,-1.20252892147059e+001,-1.42130469756479e+000

3.28996424529938e+005,-1.20253211437535e+001,-1.44109728742275e+000

3.33589043469155e+005,-1.20253538874142e+001,-1.46116424456310e+000

3.38245772979638e+005,-1.20253874641587e+001,-1.48150932500566e+000

3.42967508011610e+005,-1.20254218927495e+001,-1.50213633457942e+000

3.47755156008335e+005,-1.20254571922373e+001,-1.52304912954139e+000

3.52609637080511e+005,-1.20254933819582e+001,-1.54425161719999e+000

3.57531884183106e+005,-1.20255304815294e+001,-1.56574775654847e+000

3.62522843294651e+005,-1.20255685108450e+001,-1.58754155890382e+000

3.67583473599047e+005,-1.20256074900702e+001,-1.60963708855540e+000

3.72714747669902e+005,-1.20256474396362e+001,-1.63203846341995e+000

3.77917651657445e+005,-1.20256883802328e+001,-1.65474985570600e+000

3.83193185478053e+005,-1.20257303328012e+001,-1.67777549258731e+000

3.88542363006410e+005,-1.20257733185261e+001,-1.70111965688271e+000

3.93966212270369e+005,-1.20258173588264e+001,-1.72478668774776e+000

3.99465775648511e+005,-1.20258624753455e+001,-1.74878098137226e+000

4.05042110070485e+005,-1.20259086899402e+001,-1.77310699169128e+000

4.10696287220124e+005,-1.20259560246694e+001,-1.79776923110252e+000

4.16429393741414e+005,-1.20260045017807e+001,-1.82277227119617e+000

4.22242531447321e+005,-1.20260541436975e+001,-1.84812074349247e+000

4.28136817531551e+005,-1.20261049730032e+001,-1.87381934019359e+000

4.34113384783250e+005,-1.20261570124260e+001,-1.89987281494296e+000

4.40173381804713e+005,-1.20262102848213e+001,-1.92628598359945e+000

4.46317973232124e+005,-1.20262648131535e+001,-1.95306372502069e+000

4.52548339959385e+005,-1.20263206204767e+001,-1.98021098186050e+000

4.58865679365059e+005,-1.20263777299131e+001,-2.00773276137864e+000

4.65271205542494e+005,-1.20264361646317e+001,-2.03563413626302e+000

4.71766149533147e+005,-1.20264959478241e+001,-2.06392024546704e+000

4.78351759563174e+005,-1.20265571026798e+001,-2.09259629506014e+000

4.85029301283321e+005,-1.20266196523596e+001,-2.12166755909436e+000

4.91800058012158e+005,-1.20266836199679e+001,-2.15113938048422e+000

4.98665330982714e+005,-1.20267490285229e+001,-2.18101717190493e+000

5.05626439592555e+005,-1.20268159009258e+001,-2.21130641670595e+000

5.12684721657352e+005,-1.20268842599284e+001,-2.24201266984204e+000

5.19841533667984e+005,-1.20269541280982e+001,-2.27314155882167e+000

5.27098251051240e+005,-1.20270255277832e+001,-2.30469878467631e+000

5.34456268434150e+005,-1.20270984810734e+001,-2.33669012294650e+000

5.41916999912011e+005,-1.20271730097627e+001,-2.36912142468862e+000

