Freq.,VOut,OutRef

1.00000000000000e+004,-1.72885625717940e+001,-1.09529342165231e-001

1.01395947979003e+004,-1.72885627394600e+001,-1.11058310949532e-001

1.02811382665607e+004,-1.72885629118396e+001,-1.12608623179113e-001

1.04246576084112e+004,-1.72885630890652e+001,-1.14180576790215e-001

1.05701804056138e+004,-1.72885632712730e+001,-1.15774473878823e-001

1.07177346253629e+004,-1.72885634586032e+001,-1.17390620755334e-001

1.08673486252606e+004,-1.72885636511996e+001,-1.19029328009466e-001

1.10190511587661e+004,-1.72885638492106e+001,-1.20690910560797e-001

1.11728713807222e+004,-1.72885640527880e+001,-1.22375687731866e-001

1.13288388529580e+004,-1.72885642620884e+001,-1.24083983296973e-001

1.14869835499703e+004,-1.72885644772729e+001,-1.25816125550111e-001

1.16473358646846e+004,-1.72885646985066e+001,-1.27572447371374e-001

1.18099266142953e+004,-1.72885649259598e+001,-1.29353286282511e-001

1.19747870461893e+004,-1.72885651598071e+001,-1.31158984520456e-001

1.21419488439505e+004,-1.72885654002285e+001,-1.32989889096301e-001

1.23114441334492e+004,-1.72885656474086e+001,-1.34846351867165e-001

1.24833054890161e+004,-1.72885659015376e+001,-1.36728729598850e-001

1.26575659397028e+004,-1.72885661628105e+001,-1.38637384039539e-001

1.28342589756290e+004,-1.72885664314284e+001,-1.40572681985201e-001

1.30134185544193e+004,-1.72885667075975e+001,-1.42534995351655e-001

1.31950791077289e+004,-1.72885669915303e+001,-1.44524701246263e-001

1.33792755478611e+004,-1.72885672834452e+001,-1.46542182038381e-001

1.35660432744767e+004,-1.72885675835661e+001,-1.48587825437691e-001

1.37554181813974e+004,-1.72885678921241e+001,-1.50662024562315e-001

1.39474366635040e+004,-1.72885682093561e+001,-1.52765178019577e-001

1.41421356237309e+004,-1.72885685355060e+001,-1.54897689979105e-001

1.43395524801583e+004,-1.72885688708246e+001,-1.57059970251354e-001

1.45397251732031e+004,-1.72885692155694e+001,-1.59252434369847e-001

1.47426921729110e+004,-1.72885695700055e+001,-1.61475503663815e-001

1.49484924863494e+004,-1.72885699344052e+001,-1.63729605345897e-001

1.51571656651040e+004,-1.72885703090487e+001,-1.66015172590800e-001

1.53687518128801e+004,-1.72885706942240e+001,-1.68332644617888e-001

1.55832915932100e+004,-1.72885710902269e+001,-1.70682466779860e-001

1.58008262372675e+004,-1.72885714973618e+001,-1.73065090643029e-001

1.60213975517924e+004,-1.72885719159417e+001,-1.75480974076765e-001

1.62450479271247e+004,-1.72885723462885e+001,-1.77930581340211e-001

1.64718203453514e+004,-1.72885727887325e+001,-1.80414383174165e-001

1.67017583885674e+004,-1.72885732436139e+001,-1.82932856889236e-001

1.69349062472505e+004,-1.72885737112824e+001,-1.85486486454446e-001

1.71713087287550e+004,-1.72885741920974e+001,-1.88075762598122e-001

1.74110112659224e+004,-1.72885746864282e+001,-1.90701182895982e-001

1.76540599258131e+004,-1.72885751946550e+001,-1.93363251865650e-001

1.79005014185594e+004,-1.72885757171681e+001,-1.96062481070908e-001

1.81503831063432e+004,-1.72885762543692e+001,-1.98799389210823e-001

1.84037530124975e+004,-1.72885768066710e+001,-2.01574502226758e-001

1.86606598307361e+004,-1.72885773744980e+001,-2.04388353398558e-001

1.89211529345119e+004,-1.72885779582866e+001,-2.07241483448639e-001

1.91852823865052e+004,-1.72885785584853e+001,-2.10134440647332e-001

1.94530989482457e+004,-1.72885791755555e+001,-2.13067780914936e-001

1.97246540898671e+004,-1.72885798099713e+001,-2.16042067931403e-001

1.99999999999999e+004,-1.72885804622200e+001,-2.19057873243824e-001

2.02791895958005e+004,-1.72885811328031e+001,-2.22115776372996e-001

2.05622765331213e+004,-1.72885818222356e+001,-2.25216364931125e-001

2.08493152168224e+004,-1.72885825310474e+001,-2.28360234728191e-001

2.11403608112276e+004,-1.72885832597832e+001,-2.31547989889927e-001

2.14354692507258e+004,-1.72885840090028e+001,-2.34780242973244e-001

2.17346972505211e+004,-1.72885847792820e+001,-2.38057615082150e-001

2.20381023175322e+004,-1.72885855712126e+001,-2.41380735989478e-001

2.23457427614443e+004,-1.72885863854029e+001,-2.44750244257049e-001

2.26576777059159e+004,-1.72885872224788e+001,-2.48166787355500e-001

2.29739670999406e+004,-1.72885880830831e+001,-2.51631021793842e-001

2.32946717293690e+004,-1.72885889678773e+001,-2.55143613240018e-001

2.36198532285905e+004,-1.72885898775409e+001,-2.58705236652287e-001

2.39495740923785e+004,-1.72885908127729e+001,-2.62316576406879e-001

2.42838976879009e+004,-1.72885917742918e+001,-2.65978326430450e-001

2.46228882668982e+004,-1.72885927628362e+001,-2.69691190333040e-001

2.49666109780322e+004,-1.72885937791657e+001,-2.73455881541567e-001

2.53151318794055e+004,-1.72885948240608e+001,-2.77273123440508e-001

2.56685179512580e+004,-1.72885958983244e+001,-2.81143649504520e-001

2.60268371088386e+004,-1.72885970027816e+001,-2.85068203445820e-001

2.63901582154578e+004,-1.72885981382810e+001,-2.89047539352506e-001

2.67585510957221e+004,-1.72885993056946e+001,-2.93082421835252e-001

2.71320865489533e+004,-1.72886005059192e+001,-2.97173626173204e-001

2.75108363627948e+004,-1.72886017398767e+001,-3.01321938461993e-001

2.78948733270080e+004,-1.72886030085149e+001,-3.05528155766515e-001

2.82842712474618e+004,-1.72886043128083e+001,-3.09793086271690e-001

2.86791049603164e+004,-1.72886056537585e+001,-3.14117549438576e-001

2.90794503464061e+004,-1.72886070323954e+001,-3.18502376162359e-001

2.94853843458219e+004,-1.72886084497781e+001,-3.22948408928752e-001

2.98969849726987e+004,-1.72886099069946e+001,-3.27456501980019e-001

3.03143313302078e+004,-1.72886114051645e+001,-3.32027521473281e-001

3.07375036257601e+004,-1.72886129454381e+001,-3.36662345652286e-001

3.11665831864199e+004,-1.72886145289982e+001,-3.41361865011100e-001

3.16016524745350e+004,-1.72886161570609e+001,-3.46126982467905e-001

3.20427951035848e+004,-1.72886178308762e+001,-3.50958613536658e-001

3.24900958542493e+004,-1.72886195517295e+001,-3.55857686502749e-001

3.29436406907028e+004,-1.72886213209420e+001,-3.60825142600511e-001

3.34035167771346e+004,-1.72886231398720e+001,-3.65861936195855e-001

3.38698124945009e+004,-1.72886250099164e+001,-3.70969034964660e-001

3.43426174575100e+004,-1.72886269325104e+001,-3.76147420084420e-001

3.48220225318448e+004,-1.72886289091303e+001,-3.81398086416145e-001

3.53081198516260e+004,-1.72886309412935e+001,-3.86722042698288e-001

3.58010028371187e+004,-1.72886330305599e+001,-3.92120311740504e-001

3.63007662126863e+004,-1.72886351785333e+001,-3.97593930616950e-001

3.68075060249948e+004,-1.72886373868624e+001,-4.03143950867049e-001

3.73213196614721e+004,-1.72886396572424e+001,-4.08771438695594e-001

3.78423058690237e+004,-1.72886419914156e+001,-4.14477475179093e-001

3.83705647730104e+004,-1.72886443911736e+001,-4.20263156469619e-001

3.89061978964912e+004,-1.72886468583580e+001,-4.26129594007337e-001

3.94493081797342e+004,-1.72886493948622e+001,-4.32077914731651e-001

3.99999999999998e+004,-1.72886520026326e+001,-4.38109261298096e-001

4.05583791916010e+004,-1.72886546836703e+001,-4.44224792295988e-001

4.11245530662425e+004,-1.72886574400324e+001,-4.50425682470680e-001

4.16986304336447e+004,-1.72886602738336e+001,-4.56713122949247e-001

4.22807216224550e+004,-1.72886631872482e+001,-4.63088321465582e-001

4.28709385014515e+004,-1.72886661825111e+001,-4.69552502595890e-001

4.34693945010421e+004,-1.72886692619201e+001,-4.76106907988153e-001

4.40762046350642e+004,-1.72886724278373e+001,-4.82752796603338e-001

4.46914855228886e+004,-1.72886756826910e+001,-4.89491444953840e-001

4.53153554118317e+004,-1.72886790289778e+001,-4.96324147348152e-001

4.59479341998812e+004,-1.72886824692638e+001,-5.03252216139267e-001

4.65893434587380e+004,-1.72886860061873e+001,-5.10276981975417e-001

4.72397064571810e+004,-1.72886896424605e+001,-5.17399794052191e-001

4.78991481847569e+004,-1.72886933808716e+001,-5.24622020373308e-001

4.85677953758016e+004,-1.72886972242869e+001,-5.31945048009905e-001

4.92457765337964e+004,-1.72887011756529e+001,-5.39370283366664e-001

4.99332219560642e+004,-1.72887052379985e+001,-5.46899152450441e-001

5.06302637588109e+004,-1.72887094144380e+001,-5.54533101140737e-001

5.13370359025159e+004,-1.72887137081721e+001,-5.62273595469727e-001

5.20536742176771e+004,-1.72887181224919e+001,-5.70122121896710e-001

5.27803164309155e+004,-1.72887226607798e+001,-5.78080187597697e-001

5.35171021914442e+004,-1.72887273265137e+001,-5.86149320748235e-001

5.42641730979066e+004,-1.72887321232683e+001,-5.94331070817094e-001

5.50216727255895e+004,-1.72887370547185e+001,-6.02627008861979e-001

5.57897466540159e+004,-1.72887421246422e+001,-6.11038727828543e-001

5.65685424949235e+004,-1.72887473369226e+001,-6.19567842854777e-001

5.73582099206328e+004,-1.72887526955519e+001,-6.28215991577698e-001

5.81589006928121e+004,-1.72887582046337e+001,-6.36984834447247e-001

5.89707686916437e+004,-1.72887638683865e+001,-6.45876055040936e-001

5.97939699453972e+004,-1.72887696911469e+001,-6.54891360384833e-001

6.06286626604156e+004,-1.72887756773723e+001,-6.64032481280707e-001

6.14750072515201e+004,-1.72887818316452e+001,-6.73301172632659e-001

6.23331663728396e+004,-1.72887881586758e+001,-6.82699213783282e-001

6.32033049490698e+004,-1.72887946633059e+001,-6.92228408851732e-001

6.40855902071694e+004,-1.72888013505131e+001,-7.01890587074965e-001

6.49801917084985e+004,-1.72888082254133e+001,-7.11687603160744e-001

6.58872813814055e+004,-1.72888152932659e+001,-7.21621337633775e-001

6.68070335542691e+004,-1.72888225594768e+001,-7.31693697198356e-001

6.77396249890018e+004,-1.72888300296029e+001,-7.41906615098648e-001

6.86852349150199e+004,-1.72888377093563e+001,-7.52262051485656e-001

6.96440450636895e+004,-1.72888456046085e+001,-7.62761993789646e-001

7.06162397032520e+004,-1.72888537213946e+001,-7.73408457098597e-001

7.16020056742374e+004,-1.72888620659184e+001,-7.84203484539470e-001

7.26015324253724e+004,-1.72888706445564e+001,-7.95149147666177e-001

7.36150120499896e+004,-1.72888794638630e+001,-8.06247546851965e-001

7.46426393229441e+004,-1.72888885305756e+001,-8.17500811688164e-001

7.56846117380472e+004,-1.72888978516190e+001,-8.28911101388471e-001

7.67411295460207e+004,-1.72889074341110e+001,-8.40480605196576e-001

7.78123957929823e+004,-1.72889172853677e+001,-8.52211542801560e-001

7.88986163594682e+004,-1.72889274129091e+001,-8.64106164757650e-001

7.99999999999995e+004,-1.72889378244644e+001,-8.76166752910332e-001

8.11167583832018e+004,-1.72889485279780e+001,-8.88395620827842e-001

8.22491061324848e+004,-1.72889595316154e+001,-9.00795114238379e-001

8.33972608672892e+004,-1.72889708437692e+001,-9.13367611473839e-001

8.45614432449099e+004,-1.72889824730652e+001,-9.26115523918321e-001

8.57418770029029e+004,-1.72889944283694e+001,-9.39041296464085e-001

8.69387890020841e+004,-1.72890067187940e+001,-9.52147407971417e-001

8.81524092701283e+004,-1.72890193537043e+001,-9.65436371738148e-001

8.93829710457770e+004,-1.72890323427258e+001,-9.78910735972496e-001

9.06307108236633e+004,-1.72890456957513e+001,-9.92573084271961e-001

9.18958683997622e+004,-1.72890594229481e+001,-1.00642603611253e+000

9.31786869174758e+004,-1.72890735347656e+001,-1.02047224733814e+000

9.44794129143618e+004,-1.72890880419430e+001,-1.03471441066389e+000

9.57982963695136e+004,-1.72891029555173e+001,-1.04915525617848e+000

9.71355907516031e+004,-1.72891182868315e+001,-1.06379755186003e+000

9.84915530675926e+004,-1.72891340475424e+001,-1.07864410409451e+000

9.98664439121282e+004,-1.72891502496300e+001,-1.09369775820255e+000

1.01260527517622e+005,-1.72891669054058e+001,-1.10896139897178e+000

1.02674071805032e+005,-1.72891840275218e+001,-1.12443795119957e+000

1.04107348435354e+005,-1.72892016289800e+001,-1.14013038023821e+000

1.05560632861831e+005,-1.72892197231418e+001,-1.15604169255215e+000

1.07034204382888e+005,-1.72892383237376e+001,-1.17217493627822e+000

1.08528346195813e+005,-1.72892574448772e+001,-1.18853320179595e+000

1.10043345451179e+005,-1.72892771010597e+001,-1.20511962230431e+000

1.11579493308032e+005,-1.72892973071844e+001,-1.22193737440656e+000

1.13137084989847e+005,-1.72893180785610e+001,-1.23898967870221e+000

1.14716419841265e+005,-1.72893394309216e+001,-1.25627980038628e+000

1.16317801385624e+005,-1.72893613804311e+001,-1.27381104985785e+000

1.17941537383287e+005,-1.72893839436999e+001,-1.29158678333442e+000

1.19587939890794e+005,-1.72894071377948e+001,-1.30961040347631e+000

1.21257325320831e+005,-1.72894309802523e+001,-1.32788536001856e+000

1.22950014503040e+005,-1.72894554890904e+001,-1.34641515040870e+000

1.24666332745679e+005,-1.72894806828221e+001,-1.36520332045607e+000

1.26406609898139e+005,-1.72895065804682e+001,-1.38425346498848e+000

1.28171180414339e+005,-1.72895332015712e+001,-1.40356922851481e+000

1.29960383416997e+005,-1.72895605662092e+001,-1.42315430590040e+000

1.31774562762811e+005,-1.72895886950098e+001,-1.44301244304760e+000

1.33614067108538e+005,-1.72896176091654e+001,-1.46314743758471e+000

1.35479249978003e+005,-1.72896473304476e+001,-1.48356313956835e+000

1.37370469830040e+005,-1.72896778812230e+001,-1.50426345218869e+000

1.39288090127379e+005,-1.72897092844686e+001,-1.52525233248685e+000

1.41232479406504e+005,-1.72897415637884e+001,-1.54653379208172e+000

1.43204011348474e+005,-1.72897747434293e+001,-1.56811189790409e+000

1.45203064850745e+005,-1.72898088482988e+001,-1.58999077294127e+000

1.47230024099979e+005,-1.72898439039820e+001,-1.61217459699043e+000

1.49285278645888e+005,-1.72898799367594e+001,-1.63466760742140e+000

1.51369223476094e+005,-1.72899169736248e+001,-1.65747409994992e+000

1.53482259092041e+005,-1.72899550423049e+001,-1.68059842941799e+000

1.55624791585964e+005,-1.72899941712774e+001,-1.70404501058705e+000

1.57797232718936e+005,-1.72900343897914e+001,-1.72781831893779e+000

1.59999999999999e+005,-1.72900757278866e+001,-1.75192289148352e+000

1.62233516766403e+005,-1.72901182164147e+001,-1.77636332758848e+000

1.64498212264969e+005,-1.72901618870597e+001,-1.80114428980116e+000

1.66794521734578e+005,-1.72902067723600e+001,-1.82627050469442e+000

1.69122886489819e+005,-1.72902529057297e+001,-1.85174676371706e+000

1.71483754005805e+005,-1.72903003214817e+001,-1.87757792405583e+000

1.73877578004168e+005,-1.72903490548504e+001,-1.90376890950720e+000

1.76304818540256e+005,-1.72903991420155e+001,-1.93032471135930e+000

1.78765942091554e+005,-1.72904506201258e+001,-1.95725038928613e+000

1.81261421647326e+005,-1.72905035273241e+001,-1.98455107224975e+000

1.83791736799524e+005,-1.72905579027720e+001,-2.01223195941623e+000

1.86357373834951e+005,-1.72906137866763e+001,-2.04029832107926e+000

1.88958825828723e+005,-1.72906712203145e+001,-2.06875549959721e+000

1.91596592739027e+005,-1.72907302460623e+001,-2.09760891033957e+000

1.94271181503206e+005,-1.72907909074211e+001,-2.12686404264530e+000

1.96983106135185e+005,-1.72908532490453e+001,-2.15652646079244e+000

1.99732887824256e+005,-1.72909173167721e+001,-2.18660180497688e+000

2.02521055035243e+005,-1.72909831576498e+001,-2.21709579230671e+000

2.05348143610063e+005,-1.72910508199683e+001,-2.24801421780272e+000

2.08214696870707e+005,-1.72911203532894e+001,-2.27936295541474e+000

2.11121265723661e+005,-1.72911918084778e+001,-2.31114795904712e+000

2.14068408765776e+005,-1.72912652377334e+001,-2.34337526359659e+000

2.17056692391625e+005,-1.72913406946228e+001,-2.37605098600235e+000

2.20086690902357e+005,-1.72914182341135e+001,-2.40918132630618e+000

2.23158986616063e+005,-1.72914979126067e+001,-2.44277256872740e+000

2.26274169979693e+005,-1.72915797879722e+001,-2.47683108274676e+000

2.29432839682530e+005,-1.72916639195833e+001,-2.51136332420451e+000

2.32635602771247e+005,-1.72917503683524e+001,-2.54637583640951e+000

2.35883074766574e+005,-1.72918391967674e+001,-2.58187525126116e+000

2.39175879781588e+005,-1.72919304689290e+001,-2.61786829038322e+000

2.42514650641661e+005,-1.72920242505882e+001,-2.65436176627072e+000

2.45900029006080e+005,-1.72921206091847e+001,-2.69136258344847e+000

2.49332665491357e+005,-1.72922196138860e+001,-2.72887773964324e+000

2.52813219796278e+005,-1.72923213356272e+001,-2.76691432696713e+000

2.56342360828676e+005,-1.72924258471514e+001,-2.80547953311558e+000

2.59920766833993e+005,-1.72925332230510e+001,-2.84458064257675e+000

2.63549125525621e+005,-1.72926435398090e+001,-2.88422503785420e+000

2.67228134217075e+005,-1.72927568758420e+001,-2.92442020070359e+000

2.70958499956006e+005,-1.72928733115430e+001,-2.96517371338181e+000

2.74740939660078e+005,-1.72929929293254e+001,-3.00649325990828e+000

2.78576180254757e+005,-1.72931158136671e+001,-3.04838662734244e+000

2.82464958813007e+005,-1.72932420511562e+001,-3.09086170707185e+000

2.86408022696948e+005,-1.72933717305361e+001,-3.13392649611616e+000

2.90406129701488e+005,-1.72935049427522e+001,-3.17758909844282e+000

2.94460048199957e+005,-1.72936417809991e+001,-3.22185772629921e+000

2.98570557291775e+005,-1.72937823407678e+001,-3.26674070155573e+000

3.02738446952187e+005,-1.72939267198942e+001,-3.31224645706608e+000

3.06964518184081e+005,-1.72940750186081e+001,-3.35838353803947e+000

3.11249583171928e+005,-1.72942273395821e+001,-3.40516060342870e+000

3.15594465437872e+005,-1.72943837879821e+001,-3.45258642733296e+000

3.19999999999997e+005,-1.72945444715175e+001,-3.50066990041412e+000

3.24467033532806e+005,-1.72947095004923e+001,-3.54942003132972e+000

3.28996424529938e+005,-1.72948789878570e+001,-3.59884594817969e+000

3.33589043469155e+005,-1.72950530492598e+001,-3.64895689997030e+000

3.38245772979638e+005,-1.72952318031004e+001,-3.69976225809127e+000

3.42967508011610e+005,-1.72954153705817e+001,-3.75127151781164e+000

3.47755156008335e+005,-1.72956038757640e+001,-3.80349429978921e+000

3.52609637080511e+005,-1.72957974456186e+001,-3.85644035159835e+000

3.57531884183106e+005,-1.72959962100818e+001,-3.91011954927337e+000

3.62522843294651e+005,-1.72962003021097e+001,-3.96454189886933e+000

3.67583473599047e+005,-1.72964098577328e+001,-4.01971753804036e+000

3.72714747669902e+005,-1.72966250161110e+001,-4.07565673763523e+000

3.77917651657445e+005,-1.72968459195897e+001,-4.13236990331133e+000

3.83193185478053e+005,-1.72970727137544e+001,-4.18986757716744e+000

3.88542363006410e+005,-1.72973055474873e+001,-4.24816043939402e+000

3.93966212270369e+005,-1.72975445730230e+001,-4.30725930994454e+000

3.99465775648511e+005,-1.72977899460044e+001,-4.36717515022594e+000

4.05042110070485e+005,-1.72980418255395e+001,-4.42791906480864e+000

4.10696287220124e+005,-1.72983003742568e+001,-4.48950230315885e+000

4.16429393741414e+005,-1.72985657583626e+001,-4.55193626139084e+000

4.22242531447321e+005,-1.72988381476965e+001,-4.61523248404175e+000

4.28136817531551e+005,-1.72991177157884e+001,-4.67940266586988e+000

4.34113384783250e+005,-1.72994046399139e+001,-4.74445865367500e+000

4.40173381804713e+005,-1.72996991011512e+001,-4.81041244814288e+000

4.46317973232124e+005,-1.73000012844369e+001,-4.87727620571581e+000

4.52548339959385e+005,-1.73003113786217e+001,-4.94506224048691e+000

4.58865679365059e+005,-1.73006295765262e+001,-5.01378302612167e+000

4.65271205542494e+005,-1.73009560749965e+001,-5.08345119780753e+000

4.71766149533147e+005,-1.73012910749594e+001,-5.15407955423002e+000

4.78351759563174e+005,-1.73016347814778e+001,-5.22568105957880e+000

4.85029301283321e+005,-1.73019874038050e+001,-5.29826884558447e+000

4.91800058012158e+005,-1.73023491554397e+001,-5.37185621358563e+000

4.98665330982714e+005,-1.73027202541803e+001,-5.44645663662839e+000

5.05626439592555e+005,-1.73031009221788e+001,-5.52208376159999e+000

5.12684721657352e+005,-1.73034913859951e+001,-5.59875141139647e+000

5.19841533667984e+005,-1.73038918766500e+001,-5.67647358712646e+000

5.27098251051240e+005,-1.73043026296792e+001,-5.75526447035240e+000

5.34456268434150e+005,-1.73047238851862e+001,-5.83513842536981e+000

5.41916999912011e+005,-1.73051558878959e+001,-5.91611000152714e+000

