Freq.,VOut,OutRef

1.00000000000000e+004,-9.14948858769380e-001,-7.68014049377004e-002

1.01395947979003e+004,-9.14948841122404e-001,-7.78735128145311e-002

1.02811382665607e+004,-9.14948822979284e-001,-7.89605867691981e-002

1.04246576084112e+004,-9.14948804326076e-001,-8.00628357203360e-002

1.05701804056138e+004,-9.14948785148518e-001,-8.11804715032266e-002

1.07177346253629e+004,-9.14948765431849e-001,-8.23137089104039e-002

1.08673486252606e+004,-9.14948745160916e-001,-8.34627657329213e-002

1.10190511587661e+004,-9.14948724320110e-001,-8.46278628020684e-002

1.11728713807222e+004,-9.14948702893279e-001,-8.58092240327918e-002

1.13288388529580e+004,-9.14948680864181e-001,-8.70070764636830e-002

1.14869835499703e+004,-9.14948658215627e-001,-8.82216503050604e-002

1.16473358646846e+004,-9.14948634930489e-001,-8.94531789776466e-002

1.18099266142953e+004,-9.14948610990710e-001,-9.07018991641189e-002

1.19747870461893e+004,-9.14948586377791e-001,-9.19680508502239e-002

1.21419488439505e+004,-9.14948561073072e-001,-9.32518773691260e-002

1.23114441334492e+004,-9.14948535056886e-001,-9.45536254547111e-002

1.24833054890161e+004,-9.14948508309299e-001,-9.58735452831756e-002

1.26575659397028e+004,-9.14948480809801e-001,-9.72118905224409e-002

1.28342589756290e+004,-9.14948452537181e-001,-9.85689183832854e-002

1.30134185544193e+004,-9.14948423469845e-001,-9.99448896650140e-002

1.31950791077289e+004,-9.14948393585191e-001,-1.01340068810200e-001

1.33792755478611e+004,-9.14948362860322e-001,-1.02754723951350e-001

1.35660432744767e+004,-9.14948331271874e-001,-1.04189126962369e-001

1.37554181813974e+004,-9.14948298795269e-001,-1.05643553515920e-001

1.39474366635040e+004,-9.14948265405736e-001,-1.07118283130162e-001

1.41421356237309e+004,-9.14948231077446e-001,-1.08613599227133e-001

1.43395524801583e+004,-9.14948195784163e-001,-1.10129789183327e-001

1.45397251732031e+004,-9.14948159498658e-001,-1.11667144388629e-001

1.47426921729110e+004,-9.14948122193069e-001,-1.13225960300097e-001

1.49484924863494e+004,-9.14948083838585e-001,-1.14806536499732e-001

1.51571656651040e+004,-9.14948044406037e-001,-1.16409176749689e-001

1.53687518128801e+004,-9.14948003864906e-001,-1.18034189054343e-001

1.55832915932100e+004,-9.14947962183996e-001,-1.19681885717844e-001

1.58008262372675e+004,-9.14947919331363e-001,-1.21352583402939e-001

1.60213975517924e+004,-9.14947875274005e-001,-1.23046603193627e-001

1.62450479271247e+004,-9.14947829978019e-001,-1.24764270655918e-001

1.64718203453514e+004,-9.14947783408694e-001,-1.26505915899942e-001

1.67017583885674e+004,-9.14947735530215e-001,-1.28271873644981e-001

1.69349062472505e+004,-9.14947686305695e-001,-1.30062483282802e-001

1.71713087287550e+004,-9.14947635697493e-001,-1.31878088941898e-001

1.74110112659224e+004,-9.14947583666460e-001,-1.33719039556927e-001

1.76540599258131e+004,-9.14947530172787e-001,-1.35585688930821e-001

1.79005014185594e+004,-9.14947475175207e-001,-1.37478395808053e-001

1.81503831063432e+004,-9.14947418631504e-001,-1.39397523939380e-001

1.84037530124975e+004,-9.14947360498283e-001,-1.41343442153499e-001

1.86606598307361e+004,-9.14947300730847e-001,-1.43316524428580e-001

1.89211529345119e+004,-9.14947239283163e-001,-1.45317149963350e-001

1.91852823865052e+004,-9.14947176108006e-001,-1.47345703250015e-001

1.94530989482457e+004,-9.14947111156971e-001,-1.49402574146961e-001

1.97246540898671e+004,-9.14947044379998e-001,-1.51488157956940e-001

1.99999999999999e+004,-9.14946975725818e-001,-1.53602855499353e-001

2.02791895958005e+004,-9.14946905141575e-001,-1.55747073190668e-001

2.05622765331213e+004,-9.14946832573082e-001,-1.57921223118883e-001

2.08493152168224e+004,-9.14946757964594e-001,-1.60125723125660e-001

2.11403608112276e+004,-9.14946681258752e-001,-1.62360996885684e-001

2.14354692507258e+004,-9.14946602396565e-001,-1.64627473988115e-001

2.17346972505211e+004,-9.14946521317407e-001,-1.66925590019005e-001

2.20381023175322e+004,-9.14946437958990e-001,-1.69255786644505e-001

2.23457427614443e+004,-9.14946352257337e-001,-1.71618511697033e-001

2.26576777059159e+004,-9.14946264146402e-001,-1.74014219260907e-001

2.29739670999406e+004,-9.14946173558556e-001,-1.76443369758846e-001

2.32946717293690e+004,-9.14946080424208e-001,-1.78906430040920e-001

2.36198532285905e+004,-9.14945984671664e-001,-1.81403873475245e-001

2.39495740923785e+004,-9.14945886227452e-001,-1.83936180036788e-001

2.42838976879009e+004,-9.14945785015914e-001,-1.86503836401470e-001

2.46228882668982e+004,-9.14945680959129e-001,-1.89107336040400e-001

2.49666109780322e+004,-9.14945573977273e-001,-1.91747179311129e-001

2.53151318794055e+004,-9.14945463988104e-001,-1.94423873558055e-001

2.56685179512580e+004,-9.14945350907003e-001,-1.97137933207603e-001

2.60268371088386e+004,-9.14945234647219e-001,-1.99889879866623e-001

2.63901582154578e+004,-9.14945115119201e-001,-2.02680242425886e-001

2.67585510957221e+004,-9.14944992231290e-001,-2.05509557156247e-001

2.71320865489533e+004,-9.14944865888836e-001,-2.08378367818342e-001

2.75108363627948e+004,-9.14944735994930e-001,-2.11287225760692e-001

2.78948733270080e+004,-9.14944602449692e-001,-2.14236690030399e-001

2.82842712474618e+004,-9.14944465150483e-001,-2.17227327478864e-001

2.86791049603164e+004,-9.14944323991791e-001,-2.20259712869763e-001

2.90794503464061e+004,-9.14944178865183e-001,-2.23334428991388e-001

2.94853843458219e+004,-9.14944029659083e-001,-2.26452066767449e-001

2.98969849726987e+004,-9.14943876258822e-001,-2.29613225371723e-001

3.03143313302078e+004,-9.14943718546586e-001,-2.32818512341023e-001

3.07375036257601e+004,-9.14943556401167e-001,-2.36068543694840e-001

3.11665831864199e+004,-9.14943389697916e-001,-2.39363944052224e-001

3.16016524745350e+004,-9.14943218308897e-001,-2.42705346750704e-001

3.20427951035848e+004,-9.14943042102212e-001,-2.46093393971677e-001

3.24900958542493e+004,-9.14942860942546e-001,-2.49528736859666e-001

3.29436406907028e+004,-9.14942674690735e-001,-2.53012035649686e-001

3.34035167771346e+004,-9.14942483203671e-001,-2.56543959793971e-001

3.38698124945009e+004,-9.14942286334252e-001,-2.60125188090696e-001

3.43426174575100e+004,-9.14942083931137e-001,-2.63756408814353e-001

3.48220225318448e+004,-9.14941875838823e-001,-2.67438319847876e-001

3.53081198516260e+004,-9.14941661897484e-001,-2.71171628816273e-001

3.58010028371187e+004,-9.14941441942694e-001,-2.74957053224374e-001

3.63007662126863e+004,-9.14941215805501e-001,-2.78795320592712e-001

3.68075060249948e+004,-9.14940983312259e-001,-2.82687168598177e-001

3.73213196614721e+004,-9.14940744284177e-001,-2.86633345217503e-001

3.78423058690237e+004,-9.14940498537809e-001,-2.90634608867571e-001

3.83705647730104e+004,-9.14940245884148e-001,-2.94691728555242e-001

3.89061978964912e+004,-9.14939986129305e-001,-2.98805484021167e-001

3.94493081797342e+004,-9.14939719073656e-001,-3.02976665892616e-001

3.99999999999998e+004,-9.14939444512056e-001,-3.07206075834586e-001

4.05583791916010e+004,-9.14939162233557e-001,-3.11494526703680e-001

4.11245530662425e+004,-9.14938872021443e-001,-3.15842842704117e-001

4.16986304336447e+004,-9.14938573652755e-001,-3.20251859546854e-001

4.22807216224550e+004,-9.14938266898250e-001,-3.24722424610656e-001

4.28709385014515e+004,-9.14937951522337e-001,-3.29255397103661e-001

4.34693945010421e+004,-9.14937627282852e-001,-3.33851648228771e-001

4.40762046350642e+004,-9.14937293930713e-001,-3.38512061352839e-001

4.46914855228886e+004,-9.14936951209895e-001,-3.43237532174793e-001

4.53153554118317e+004,-9.14936598857178e-001,-3.48028968897801e-001

4.59479341998812e+004,-9.14936236602044e-001,-3.52887292404925e-001

4.65893434587380e+004,-9.14935864166193e-001,-3.57813436435902e-001

4.72397064571810e+004,-9.14935481263656e-001,-3.62808347766304e-001

4.78991481847569e+004,-9.14935087600404e-001,-3.67872986389432e-001

4.85677953758016e+004,-9.14934682874081e-001,-3.73008325701734e-001

4.92457765337964e+004,-9.14934266774082e-001,-3.78215352688369e-001

4.99332219560642e+004,-9.14933838980773e-001,-3.83495068115512e-001

5.06302637588109e+004,-9.14933399165670e-001,-3.88848486720458e-001

5.13370359025159e+004,-9.14932946991131e-001,-3.94276637407799e-001

5.20536742176771e+004,-9.14932482110042e-001,-3.99780563446697e-001

5.27803164309155e+004,-9.14932004165435e-001,-4.05361322672278e-001

5.35171021914442e+004,-9.14931512790437e-001,-4.11019987688618e-001

5.42641730979066e+004,-9.14931007607881e-001,-4.16757646074360e-001

5.50216727255895e+004,-9.14930488229808e-001,-4.22575400594090e-001

5.57897466540159e+004,-9.14929954257635e-001,-4.28474369407340e-001

5.65685424949235e+004,-9.14929405281565e-001,-4.34455686285233e-001

5.73582099206328e+004,-9.14928840880166e-001,-4.40520500829099e-001

5.81589006928121e+004,-9.14928260620213e-001,-4.46669978690501e-001

5.89707686916437e+004,-9.14927664056494e-001,-4.52905301795369e-001

5.97939699453972e+004,-9.14927050730978e-001,-4.59227668572788e-001

6.06286626604156e+004,-9.14926420173250e-001,-4.65638294182507e-001

6.14750072515201e+004,-9.14925771899319e-001,-4.72138410752309e-001

6.23331663728396e+004,-9.14925105411746e-001,-4.78729267612528e-001

6.32033049490698e+004,-9.14924420199177e-001,-4.85412131536862e-001

6.40855902071694e+004,-9.14923715735910e-001,-4.92188286986300e-001

6.49801917084985e+004,-9.14922991481421e-001,-4.99059036356377e-001

6.58872813814055e+004,-9.14922246880237e-001,-5.06025700226403e-001

6.68070335542691e+004,-9.14921481360972e-001,-5.13089617616048e-001

6.77396249890018e+004,-9.14920694336555e-001,-5.20252146239931e-001

6.86852349150199e+004,-9.14919885203359e-001,-5.27514662770214e-001

6.96440450636895e+004,-9.14919053340723e-001,-5.34878563102533e-001

7.06162397032520e+004,-9.14918198110722e-001,-5.42345262622001e-001

7.16020056742374e+004,-9.14917318857552e-001,-5.49916196477926e-001

7.26015324253724e+004,-9.14916414906929e-001,-5.57592819858289e-001

7.36150120499896e+004,-9.14915485565835e-001,-5.65376608270170e-001

7.46426393229441e+004,-9.14914530121644e-001,-5.73269057824605e-001

7.56846117380472e+004,-9.14913547842004e-001,-5.81271685522235e-001

7.67411295460207e+004,-9.14912537973861e-001,-5.89386029547750e-001

7.78123957929823e+004,-9.14911499743112e-001,-5.97613649563765e-001

7.88986163594682e+004,-9.14910432354069e-001,-6.05956127012168e-001

7.99999999999995e+004,-9.14909334988717e-001,-6.14415065417705e-001

8.11167583832018e+004,-9.14908206805999e-001,-6.22992090697806e-001

8.22491061324848e+004,-9.14907046941571e-001,-6.31688851473341e-001

8.33972608672892e+004,-9.14905854506699e-001,-6.40507019387857e-001

8.45614432449099e+004,-9.14904628587922e-001,-6.49448289428166e-001

8.57418770029029e+004,-9.14903368246071e-001,-6.58514380251083e-001

8.69387890020841e+004,-9.14902072515812e-001,-6.67707034514029e-001

8.81524092701283e+004,-9.14900740404788e-001,-6.77028019210471e-001

8.93829710457770e+004,-9.14899370892846e-001,-6.86479126009901e-001

9.06307108236633e+004,-9.14897962931364e-001,-6.96062171602902e-001

9.18958683997622e+004,-9.14896515442384e-001,-7.05778998050743e-001

9.31786869174758e+004,-9.14895027317713e-001,-7.15631473140498e-001

9.44794129143618e+004,-9.14893497418367e-001,-7.25621490743407e-001

9.57982963695136e+004,-9.14891924573301e-001,-7.35750971181069e-001

9.71355907516031e+004,-9.14890307578953e-001,-7.46021861593746e-001

9.84915530675926e+004,-9.14888645198044e-001,-7.56436136315740e-001

9.98664439121282e+004,-9.14886936158763e-001,-7.66995797256411e-001

1.01260527517622e+005,-9.14885179153723e-001,-7.77702874284492e-001

1.02674071805032e+005,-9.14883372839052e-001,-7.88559425619736e-001

1.04107348435354e+005,-9.14881515833414e-001,-7.99567538228167e-001

1.05560632861831e+005,-9.14879606716860e-001,-8.10729328226167e-001

1.07034204382888e+005,-9.14877644029778e-001,-8.22046941285857e-001

1.08528346195813e+005,-9.14875626271905e-001,-8.33522553049692e-001

1.10043345451179e+005,-9.14873551901141e-001,-8.45158369548693e-001

1.11579493308032e+005,-9.14871419332328e-001,-8.56956627628131e-001

1.13137084989847e+005,-9.14869226936005e-001,-8.68919595378684e-001

1.14716419841265e+005,-9.14866973037561e-001,-8.81049572571797e-001

1.16317801385624e+005,-9.14864655915405e-001,-8.93348891104966e-001

1.17941537383287e+005,-9.14862273800201e-001,-9.05819915449767e-001

1.19587939890794e+005,-9.14859824873171e-001,-9.18465043107655e-001

1.21257325320831e+005,-9.14857307264963e-001,-9.31286705072062e-001

1.22950014503040e+005,-9.14854719054192e-001,-9.44287366296797e-001

1.24666332745679e+005,-9.14852058265896e-001,-9.57469526172573e-001

1.26406609898139e+005,-9.14849322870284e-001,-9.70835719005636e-001

1.28171180414339e+005,-9.14846510780963e-001,-9.84388514510006e-001

1.29960383416997e+005,-9.14843619853576e-001,-9.98130518300209e-001

1.31774562762811e+005,-9.14840647884168e-001,-1.01206437239480e+000

1.33614067108538e+005,-9.14837592607507e-001,-1.02619275572566e+000

1.35479249978003e+005,-9.14834451695294e-001,-1.04051838465487e+000

1.37370469830040e+005,-9.14831222754737e-001,-1.05504401349793e+000

1.39288090127379e+005,-9.14827903326465e-001,-1.06977243505567e+000

1.41232479406504e+005,-9.14824490882965e-001,-1.08470648115200e+000

1.43204011348474e+005,-9.14820982826459e-001,-1.09984902318154e+000

1.45203064850745e+005,-9.14817376487114e-001,-1.11520297266325e+000

1.47230024099979e+005,-9.14813669121106e-001,-1.13077128180083e+000

1.49285278645888e+005,-9.14809857908559e-001,-1.14655694405432e+000

1.51369223476094e+005,-9.14805939951403e-001,-1.16256299471682e+000

1.53482259092041e+005,-9.14801912271389e-001,-1.17879251150023e+000

1.55624791585964e+005,-9.14797771807649e-001,-1.19524861513006e+000

1.57797232718936e+005,-9.14793515414726e-001,-1.21193446994707e+000

1.59999999999999e+005,-9.14789139860088e-001,-1.22885328451932e+000

1.62233516766403e+005,-9.14784641821910e-001,-1.24600831225985e+000

1.64498212264969e+005,-9.14780017886421e-001,-1.26340285205737e+000

1.66794521734578e+005,-9.14775264545561e-001,-1.28104024891198e+000

1.69122886489819e+005,-9.14770378194463e-001,-1.29892389458113e+000

1.71483754005805e+005,-9.14765355128672e-001,-1.31705722823615e+000

1.73877578004168e+005,-9.14760191541638e-001,-1.33544373712542e+000

1.76304818540256e+005,-9.14754883521726e-001,-1.35408695724930e+000

1.78765942091554e+005,-9.14749427049557e-001,-1.37299047404298e+000

1.81261421647326e+005,-9.14743817995057e-001,-1.39215792306935e+000

1.83791736799524e+005,-9.14738052114471e-001,-1.41159299072275e+000

1.86357373834951e+005,-9.14732125047156e-001,-1.43129941494090e+000

1.88958825828723e+005,-9.14726032312621e-001,-1.45128098592854e+000

1.91596592739027e+005,-9.14719769307299e-001,-1.47154154688937e+000

1.94271181503206e+005,-9.14713331301130e-001,-1.49208499477044e+000

1.96983106135185e+005,-9.14706713434124e-001,-1.51291528101651e+000

1.99732887824256e+005,-9.14699910713140e-001,-1.53403641233309e+000

2.02521055035243e+005,-9.14692918008017e-001,-1.55545245146343e+000

2.05348143610063e+005,-9.14685730048066e-001,-1.57716751797428e+000

2.08214696870707e+005,-9.14678341418407e-001,-1.59918578905335e+000

2.11121265723661e+005,-9.14670746555802e-001,-1.62151150031857e+000

2.14068408765776e+005,-9.14662939745162e-001,-1.64414894663794e+000

2.17056692391625e+005,-9.14654915115048e-001,-1.66710248296213e+000

2.20086690902357e+005,-9.14646666633882e-001,-1.69037652516731e+000

2.23158986616063e+005,-9.14638188105445e-001,-1.71397555091212e+000

2.26274169979693e+005,-9.14629473164690e-001,-1.73790410050380e+000

2.29432839682530e+005,-9.14620515273258e-001,-1.76216677777964e+000

2.32635602771247e+005,-9.14611307714656e-001,-1.78676825099987e+000

2.35883074766574e+005,-9.14601843590060e-001,-1.81171325375117e+000

2.39175879781588e+005,-9.14592115813007e-001,-1.83700658586690e+000

2.42514650641661e+005,-9.14582117104695e-001,-1.86265311435707e+000

2.45900029006080e+005,-9.14571839989011e-001,-1.88865777435310e+000

2.49332665491357e+005,-9.14561276787236e-001,-1.91502557006559e+000

2.52813219796278e+005,-9.14550419612737e-001,-1.94176157575592e+000

2.56342360828676e+005,-9.14539260365733e-001,-1.96887093672108e+000

2.59920766833993e+005,-9.14527790727513e-001,-1.99635887029395e+000

2.63549125525621e+005,-9.14516002154782e-001,-2.02423066685565e+000

2.67228134217075e+005,-9.14503885874030e-001,-2.05249169086396e+000

2.70958499956006e+005,-9.14491432875308e-001,-2.08114738189599e+000

2.74740939660078e+005,-9.14478633906336e-001,-2.11020325570528e+000

2.78576180254757e+005,-9.14465479466122e-001,-2.13966490529448e+000

2.82464958813007e+005,-9.14451959798495e-001,-2.16953800200286e+000

2.86408022696948e+005,-9.14438064885871e-001,-2.19982829660960e+000

2.90406129701488e+005,-9.14423784442064e-001,-2.23054162045281e+000

2.94460048199957e+005,-9.14409107905821e-001,-2.26168388656423e+000

2.98570557291775e+005,-9.14394024433663e-001,-2.29326109082014e+000

3.02738446952187e+005,-9.14378522892622e-001,-2.32527931310941e+000

3.06964518184081e+005,-9.14362591852986e-001,-2.35774471851683e+000

3.11249583171928e+005,-9.14346219580686e-001,-2.39066355852479e+000

3.15594465437872e+005,-9.14329394029708e-001,-2.42404217223086e+000

3.19999999999997e+005,-9.14312102834055e-001,-2.45788698758358e+000

3.24467033532806e+005,-9.14294333299813e-001,-2.49220452263560e+000

3.28996424529938e+005,-9.14276072396908e-001,-2.52700138681441e+000

3.33589043469155e+005,-9.14257306750541e-001,-2.56228428221191e+000

3.38245772979638e+005,-9.14238022632771e-001,-2.59806000489151e+000

3.42967508011610e+005,-9.14218205953531e-001,-2.63433544621464e+000

3.47755156008335e+005,-9.14197842251652e-001,-2.67111759418584e+000

3.52609637080511e+005,-9.14176916685686e-001,-2.70841353481702e+000

3.57531884183106e+005,-9.14155414024456e-001,-2.74623045351142e+000

3.62522843294651e+005,-9.14133318637440e-001,-2.78457563646672e+000

3.67583473599047e+005,-9.14110614484821e-001,-2.82345647209964e+000

3.72714747669902e+005,-9.14087285107612e-001,-2.86288045248868e+000

3.77917651657445e+005,-9.14063313617188e-001,-2.90285517483948e+000

3.83193185478053e+005,-9.14038682684778e-001,-2.94338834297030e+000

3.88542363006410e+005,-9.14013374530874e-001,-2.98448776881803e+000

3.93966212270369e+005,-9.13987370914108e-001,-3.02616137396672e+000

3.99465775648511e+005,-9.13960653120001e-001,-3.06841719119782e+000

4.05042110070485e+005,-9.13933201949540e-001,-3.11126336606196e+000

4.10696287220124e+005,-9.13904997707564e-001,-3.15470815847308e+000

4.16429393741414e+005,-9.13876020190472e-001,-3.19875994432673e+000

4.22242531447321e+005,-9.13846248674374e-001,-3.24342721713899e+000

4.28136817531551e+005,-9.13815661902192e-001,-3.28871858971157e+000

4.34113384783250e+005,-9.13784238071206e-001,-3.33464279581803e+000

4.40173381804713e+005,-9.13751954819722e-001,-3.38120869191593e+000

4.46317973232124e+005,-9.13718789213855e-001,-3.42842525888240e+000

4.52548339959385e+005,-9.13684717733885e-001,-3.47630160377470e+000

4.58865679365059e+005,-9.13649716260283e-001,-3.52484696161588e+000

4.65271205542494e+005,-9.13613760059408e-001,-3.57407069720558e+000

4.71766149533147e+005,-9.13576823769007e-001,-3.62398230695710e+000

4.78351759563174e+005,-9.13538881383282e-001,-3.67459142075993e+000

4.85029301283321e+005,-9.13499906237675e-001,-3.72590780386959e+000

4.91800058012158e+005,-9.13459870993342e-001,-3.77794135882340e+000

4.98665330982714e+005,-9.13418747621187e-001,-3.83070212738382e+000

5.05626439592555e+005,-9.13376507385595e-001,-3.88420029250998e+000

5.12684721657352e+005,-9.13333120827759e-001,-3.93844618035635e+000

5.19841533667984e+005,-9.13288557748758e-001,-3.99345026229978e+000

5.27098251051240e+005,-9.13242787192101e-001,-4.04922315699598e+000

5.34456268434150e+005,-9.13195777425832e-001,-4.10577563246438e+000

5.41916999912011e+005,-9.13147495924373e-001,-4.16311860820339e+000

