Freq.,VOut,OutRef

1.00000000000000e+004,-2.23294373778550e+001,-2.97237058208889e-001

1.01395947979003e+004,-2.23294385912498e+001,-3.01386311665336e-001

1.02811382665607e+004,-2.23294398387571e+001,-3.05593485638732e-001

1.04246576084112e+004,-2.23294411213358e+001,-3.09859388632350e-001

1.05701804056138e+004,-2.23294424399719e+001,-3.14184840431443e-001

1.07177346253629e+004,-2.23294437956791e+001,-3.18570672265150e-001

1.08673486252606e+004,-2.23294451894995e+001,-3.23017726964253e-001

1.10190511587661e+004,-2.23294466225046e+001,-3.27526859122498e-001

1.11728713807222e+004,-2.23294480957959e+001,-3.32098935261842e-001

1.13288388529580e+004,-2.23294496105060e+001,-3.36734833998465e-001

1.14869835499703e+004,-2.23294511677994e+001,-3.41435446210625e-001

1.16473358646846e+004,-2.23294527688730e+001,-3.46201675212209e-001

1.18099266142953e+004,-2.23294544149577e+001,-3.51034436924077e-001

1.19747870461893e+004,-2.23294561073188e+001,-3.55934660048790e-001

1.21419488439505e+004,-2.23294578472572e+001,-3.60903286253503e-001

1.23114441334492e+004,-2.23294596361106e+001,-3.65941270345002e-001

1.24833054890161e+004,-2.23294614752538e+001,-3.71049580458992e-001

1.26575659397028e+004,-2.23294633661009e+001,-3.76229198240427e-001

1.28342589756290e+004,-2.23294653101050e+001,-3.81481119036923e-001

1.30134185544193e+004,-2.23294673087608e+001,-3.86806352085229e-001

1.31950791077289e+004,-2.23294693636045e+001,-3.92205920709029e-001

1.33792755478611e+004,-2.23294714762156e+001,-3.97680862513301e-001

1.35660432744767e+004,-2.23294736482182e+001,-4.03232229584157e-001

1.37554181813974e+004,-2.23294758812817e+001,-4.08861088690454e-001

1.39474366635040e+004,-2.23294781771228e+001,-4.14568521488601e-001

1.41421356237309e+004,-2.23294805375063e+001,-4.20355624731009e-001

1.43395524801583e+004,-2.23294829642464e+001,-4.26223510476200e-001

1.45397251732031e+004,-2.23294854592087e+001,-4.32173306301232e-001

1.47426921729110e+004,-2.23294880243107e+001,-4.38206155520796e-001

1.49484924863494e+004,-2.23294906615246e+001,-4.44323217403170e-001

1.51571656651040e+004,-2.23294933728771e+001,-4.50525667396332e-001

1.53687518128801e+004,-2.23294961604525e+001,-4.56814697350859e-001

1.55832915932100e+004,-2.23294990263937e+001,-4.63191515749218e-001

1.58008262372675e+004,-2.23295019729034e+001,-4.69657347940269e-001

1.60213975517924e+004,-2.23295050022466e+001,-4.76213436370302e-001

1.62450479271247e+004,-2.23295081167517e+001,-4.82861040824906e-001

1.64718203453514e+004,-2.23295113188127e+001,-4.89601438668949e-001

1.67017583885674e+004,-2.23295146108910e+001,-4.96435925092188e-001

1.69349062472505e+004,-2.23295179955170e+001,-5.03365813357744e-001

1.71713087287550e+004,-2.23295214752920e+001,-5.10392435055436e-001

1.74110112659224e+004,-2.23295250528911e+001,-5.17517140354216e-001

1.76540599258131e+004,-2.23295287310640e+001,-5.24741298263979e-001

1.79005014185594e+004,-2.23295325126378e+001,-5.32066296898348e-001

1.81503831063432e+004,-2.23295364005191e+001,-5.39493543738723e-001

1.84037530124975e+004,-2.23295403976963e+001,-5.47024465905814e-001

1.86606598307361e+004,-2.23295445072417e+001,-5.54660510433614e-001

1.89211529345119e+004,-2.23295487323139e+001,-5.62403144547176e-001

1.91852823865052e+004,-2.23295530761605e+001,-5.70253855941898e-001

1.94530989482457e+004,-2.23295575421200e+001,-5.78214153071945e-001

1.97246540898671e+004,-2.23295621336250e+001,-5.86285565438190e-001

1.99999999999999e+004,-2.23295668542045e+001,-5.94469643880000e-001

2.02791895958005e+004,-2.23295717074868e+001,-6.02767960875958e-001

2.05622765331213e+004,-2.23295766972020e+001,-6.11182110842169e-001

2.08493152168224e+004,-2.23295818271851e+001,-6.19713710440863e-001

2.11403608112276e+004,-2.23295871013788e+001,-6.28364398888486e-001

2.14354692507258e+004,-2.23295925238368e+001,-6.37135838269224e-001

2.17346972505211e+004,-2.23295980987266e+001,-6.46029713857286e-001

2.20381023175322e+004,-2.23296038303327e+001,-6.55047734436407e-001

2.23457427614443e+004,-2.23296097230602e+001,-6.64191632628458e-001

2.26576777059159e+004,-2.23296157814380e+001,-6.73463165226456e-001

2.29739670999406e+004,-2.23296220101222e+001,-6.82864113529932e-001

2.32946717293690e+004,-2.23296284138997e+001,-6.92396283687877e-001

2.36198532285905e+004,-2.23296349976919e+001,-7.02061507043087e-001

2.39495740923785e+004,-2.23296417665586e+001,-7.11861640485275e-001

2.42838976879009e+004,-2.23296487257019e+001,-7.21798566804151e-001

2.46228882668982e+004,-2.23296558804697e+001,-7.31874195053169e-001

2.49666109780322e+004,-2.23296632363606e+001,-7.42090460912598e-001

2.53151318794055e+004,-2.23296707990275e+001,-7.52449327061889e-001

2.56685179512580e+004,-2.23296785742820e+001,-7.62952783555155e-001

2.60268371088386e+004,-2.23296865680995e+001,-7.73602848202230e-001

2.63901582154578e+004,-2.23296947866226e+001,-7.84401566955719e-001

2.67585510957221e+004,-2.23297032361670e+001,-7.95351014302057e-001

2.71320865489533e+004,-2.23297119232258e+001,-8.06453293658660e-001

2.75108363627948e+004,-2.23297208544745e+001,-8.17710537776657e-001

2.78948733270080e+004,-2.23297300367758e+001,-8.29124909150750e-001

2.82842712474618e+004,-2.23297394771860e+001,-8.40698600429731e-001

2.86791049603164e+004,-2.23297491829588e+001,-8.52433834840404e-001

2.90794503464061e+004,-2.23297591615523e+001,-8.64332866609280e-001

2.94853843458219e+004,-2.23297694206339e+001,-8.76397981395566e-001

2.98969849726987e+004,-2.23297799680865e+001,-8.88631496728906e-001

3.03143313302078e+004,-2.23297908120143e+001,-9.01035762451972e-001

3.07375036257601e+004,-2.23298019607492e+001,-9.13613161169926e-001

3.11665831864199e+004,-2.23298134228573e+001,-9.26366108706316e-001

3.16016524745350e+004,-2.23298252071454e+001,-9.39297054564449e-001

3.20427951035848e+004,-2.23298373226674e+001,-9.52408482396809e-001

3.24900958542493e+004,-2.23298497787318e+001,-9.65702910478798e-001

3.29436406907028e+004,-2.23298625849085e+001,-9.79182892190768e-001

3.34035167771346e+004,-2.23298757510362e+001,-9.92851016505181e-001

3.38698124945009e+004,-2.23298892872300e+001,-1.00670990848208e+000

3.43426174575100e+004,-2.23299032038889e+001,-1.02076222977083e+000

3.48220225318448e+004,-2.23299175117043e+001,-1.03501067911686e+000

3.53081198516260e+004,-2.23299322216678e+001,-1.04945799287878e+000

3.58010028371187e+004,-2.23299473450795e+001,-1.06410694555022e+000

3.63007662126863e+004,-2.23299628935572e+001,-1.07896035028946e+000

3.68075060249948e+004,-2.23299788790446e+001,-1.09402105945662e+000

3.73213196614721e+004,-2.23299953138211e+001,-1.10929196515745e+000

3.78423058690237e+004,-2.23300122105110e+001,-1.12477599979572e+000

3.83705647730104e+004,-2.23300295820928e+001,-1.14047613663242e+000

3.89061978964912e+004,-2.23300474419097e+001,-1.15639539035260e+000

3.94493081797342e+004,-2.23300658036795e+001,-1.17253681764061e+000

3.99999999999998e+004,-2.23300846815052e+001,-1.18890351776266e+000

4.05583791916010e+004,-2.23301040898858e+001,-1.20549863315645e+000

4.11245530662425e+004,-2.23301240437273e+001,-1.22232535003229e+000

4.16986304336447e+004,-2.23301445583544e+001,-1.23938689897762e+000

4.22807216224550e+004,-2.23301656495217e+001,-1.25668655557428e+000

4.28709385014515e+004,-2.23301873334265e+001,-1.27422764102023e+000

4.34693945010421e+004,-2.23302096267206e+001,-1.29201352276404e+000

4.40762046350642e+004,-2.23302325465231e+001,-1.31004761514336e+000

4.46914855228886e+004,-2.23302561104341e+001,-1.32833338003598e+000

4.53153554118317e+004,-2.23302803365471e+001,-1.34687432751837e+000

4.59479341998812e+004,-2.23303052434639e+001,-1.36567401653211e+000

4.65893434587380e+004,-2.23303308503084e+001,-1.38473605556083e+000

4.72397064571810e+004,-2.23303571767409e+001,-1.40406410331704e+000

4.78991481847569e+004,-2.23303842429737e+001,-1.42366186943439e+000

4.85677953758016e+004,-2.23304120697863e+001,-1.44353311517572e+000

4.92457765337964e+004,-2.23304406785412e+001,-1.46368165414330e+000

4.99332219560642e+004,-2.23304700912004e+001,-1.48411135300633e+000

5.06302637588109e+004,-2.23305003303421e+001,-1.50482613223122e+000

5.13370359025159e+004,-2.23305314191780e+001,-1.52582996682707e+000

5.20536742176771e+004,-2.23305633815710e+001,-1.54712688709846e+000

5.27803164309155e+004,-2.23305962420533e+001,-1.56872097940938e+000

5.35171021914442e+004,-2.23306300258455e+001,-1.59061638695698e+000

5.42641730979066e+004,-2.23306647588755e+001,-1.61281731055614e+000

5.50216727255895e+004,-2.23307004677984e+001,-1.63532800943442e+000

5.57897466540159e+004,-2.23307371800171e+001,-1.65815280203837e+000

5.65685424949235e+004,-2.23307749237027e+001,-1.68129606684930e+000

5.73582099206328e+004,-2.23308137278166e+001,-1.70476224321161e+000

5.81589006928121e+004,-2.23308536221319e+001,-1.72855583217117e+000

5.89707686916437e+004,-2.23308946372569e+001,-1.75268139732421e+000

5.97939699453972e+004,-2.23309368046579e+001,-1.77714356568068e+000

6.06286626604156e+004,-2.23309801566834e+001,-1.80194702853543e+000

6.14750072515201e+004,-2.23310247265884e+001,-1.82709654235309e+000

6.23331663728396e+004,-2.23310705485604e+001,-1.85259692966490e+000

6.32033049490698e+004,-2.23311176577449e+001,-1.87845307997649e+000

6.40855902071694e+004,-2.23311660902725e+001,-1.90466995068784e+000

6.49801917084985e+004,-2.23312158832861e+001,-1.93125256802656e+000

6.58872813814055e+004,-2.23312670749693e+001,-1.95820602799271e+000

6.68070335542691e+004,-2.23313197045758e+001,-1.98553549731529e+000

6.77396249890018e+004,-2.23313738124587e+001,-2.01324621442420e+000

6.86852349150199e+004,-2.23314294401017e+001,-2.04134349043090e+000

6.96440450636895e+004,-2.23314866301501e+001,-2.06983271012665e+000

7.06162397032520e+004,-2.23315454264439e+001,-2.09871933298922e+000

7.16020056742374e+004,-2.23316058740504e+001,-2.12800889420732e+000

7.26015324253724e+004,-2.23316680192992e+001,-2.15770700571491e+000

7.36150120499896e+004,-2.23317319098166e+001,-2.18781935724062e+000

7.46426393229441e+004,-2.23317975945623e+001,-2.21835171737151e+000

7.56846117380472e+004,-2.23318651238664e+001,-2.24930993462921e+000

7.67411295460207e+004,-2.23319345494676e+001,-2.28069993856053e+000

7.78123957929823e+004,-2.23320059245523e+001,-2.31252774084393e+000

7.88986163594682e+004,-2.23320793037951e+001,-2.34479943640707e+000

7.99999999999995e+004,-2.23321547434003e+001,-2.37752120456264e+000

8.11167583832018e+004,-2.23322323011441e+001,-2.41069931015471e+000

8.22491061324848e+004,-2.23323120364188e+001,-2.44434010472390e+000

8.33972608672892e+004,-2.23323940102774e+001,-2.47845002768545e+000

8.45614432449099e+004,-2.23324782854800e+001,-2.51303560752103e+000

8.57418770029029e+004,-2.23325649265413e+001,-2.54810346298942e+000

8.69387890020841e+004,-2.23326539997789e+001,-2.58366030434953e+000

8.81524092701283e+004,-2.23327455733641e+001,-2.61971293460017e+000

8.93829710457770e+004,-2.23328397173729e+001,-2.65626825073532e+000

9.06307108236633e+004,-2.23329365038392e+001,-2.69333324501586e+000

9.18958683997622e+004,-2.23330360068085e+001,-2.73091500625693e+000

9.31786869174758e+004,-2.23331383023947e+001,-2.76902072113021e+000

9.44794129143618e+004,-2.23332434688367e+001,-2.80765767548563e+000

9.57982963695136e+004,-2.23333515865575e+001,-2.84683325568625e+000

9.71355907516031e+004,-2.23334627382249e+001,-2.88655494996178e+000

9.84915530675926e+004,-2.23335770088137e+001,-2.92683034977838e+000

9.98664439121282e+004,-2.23336944856691e+001,-2.96766715122566e+000

1.01260527517622e+005,-2.23338152585731e+001,-3.00907315641992e+000

1.02674071805032e+005,-2.23339394198112e+001,-3.05105627492557e+000

1.04107348435354e+005,-2.23340670642420e+001,-3.09362452519345e+000

1.05560632861831e+005,-2.23341982893686e+001,-3.13678603601673e+000

1.07034204382888e+005,-2.23343331954107e+001,-3.18054904800522e+000

1.08528346195813e+005,-2.23344718853808e+001,-3.22492191507532e+000

1.10043345451179e+005,-2.23346144651605e+001,-3.26991310596105e+000

1.11579493308032e+005,-2.23347610435800e+001,-3.31553120574027e+000

1.13137084989847e+005,-2.23349117324993e+001,-3.36178491738102e+000

1.14716419841265e+005,-2.23350666468916e+001,-3.40868306330511e+000

1.16317801385624e+005,-2.23352259049294e+001,-3.45623458697057e+000

1.17941537383287e+005,-2.23353896280719e+001,-3.50444855447271e+000

1.19587939890794e+005,-2.23355579411564e+001,-3.55333415616345e+000

1.21257325320831e+005,-2.23357309724902e+001,-3.60290070829049e+000

1.22950014503040e+005,-2.23359088539465e+001,-3.65315765465395e+000

1.24666332745679e+005,-2.23360917210624e+001,-3.70411456828264e+000

1.26406609898139e+005,-2.23362797131390e+001,-3.75578115313032e+000

1.28171180414339e+005,-2.23364729733451e+001,-3.80816724578979e+000

1.29960383416997e+005,-2.23366716488228e+001,-3.86128281722650e+000

1.31774562762811e+005,-2.23368758907966e+001,-3.91513797453284e+000

1.33614067108538e+005,-2.23370858546849e+001,-3.96974296269977e+000

1.35479249978003e+005,-2.23373017002150e+001,-4.02510816641004e+000

1.37370469830040e+005,-2.23375235915404e+001,-4.08124411184940e+000

1.39288090127379e+005,-2.23377516973620e+001,-4.13816146853841e+000

1.41232479406504e+005,-2.23379861910521e+001,-4.19587105118316e+000

1.43204011348474e+005,-2.23382272507815e+001,-4.25438382154694e+000

1.45203064850745e+005,-2.23384750596504e+001,-4.31371089034021e+000

1.47230024099979e+005,-2.23387298058227e+001,-4.37386351913063e+000

1.49285278645888e+005,-2.23389916826630e+001,-4.43485312227477e+000

1.51369223476094e+005,-2.23392608888787e+001,-4.49669126886622e+000

1.53482259092041e+005,-2.23395376286643e+001,-4.55938968470675e+000

1.55624791585964e+005,-2.23398221118505e+001,-4.62296025429514e+000

1.57797232718936e+005,-2.23401145540567e+001,-4.68741502283674e+000

1.59999999999999e+005,-2.23404151768477e+001,-4.75276619827242e+000

1.62233516766403e+005,-2.23407242078942e+001,-4.81902615332698e+000

1.64498212264969e+005,-2.23410418811377e+001,-4.88620742757775e+000

1.66794521734578e+005,-2.23413684369594e+001,-4.95432272954210e+000

1.69122886489819e+005,-2.23417041223543e+001,-5.02338493878468e+000

1.71483754005805e+005,-2.23420491911080e+001,-5.09340710804379e+000

1.73877578004168e+005,-2.23424039039802e+001,-5.16440246537709e+000

1.76304818540256e+005,-2.23427685288911e+001,-5.23638441632643e+000

1.78765942091554e+005,-2.23431433411139e+001,-5.30936654610120e+000

1.81261421647326e+005,-2.23435286234708e+001,-5.38336262178125e+000

1.83791736799524e+005,-2.23439246665356e+001,-5.45838659453703e+000

1.86357373834951e+005,-2.23443317688402e+001,-5.53445260186955e+000

1.88958825828723e+005,-2.23447502370862e+001,-5.61157496986747e+000

1.91596592739027e+005,-2.23451803863635e+001,-5.68976821548213e+000

1.94271181503206e+005,-2.23456225403718e+001,-5.76904704882078e+000

1.96983106135185e+005,-2.23460770316502e+001,-5.84942637545645e+000

1.99732887824256e+005,-2.23465442018106e+001,-5.93092129875562e+000

2.02521055035243e+005,-2.23470244017778e+001,-6.01354712222139e+000

2.05348143610063e+005,-2.23475179920355e+001,-6.09731935185426e+000

2.08214696870707e+005,-2.23480253428781e+001,-6.18225369852838e+000

2.11121265723661e+005,-2.23485468346689e+001,-6.26836608038250e+000

2.14068408765776e+005,-2.23490828581040e+001,-6.35567262522778e+000

2.17056692391625e+005,-2.23496338144841e+001,-6.44418967296844e+000

2.20086690902357e+005,-2.23502001159910e+001,-6.53393377803811e+000

2.23158986616063e+005,-2.23507821859719e+001,-6.62492171184871e+000

2.26274169979693e+005,-2.23513804592308e+001,-6.71717046525278e+000

2.29432839682530e+005,-2.23519953823258e+001,-6.81069725101911e+000

2.32635602771247e+005,-2.23526274138744e+001,-6.90551950631899e+000

2.35883074766574e+005,-2.23532770248654e+001,-7.00165489522484e+000

2.39175879781588e+005,-2.23539446989789e+001,-7.09912131121906e+000

2.42514650641661e+005,-2.23546309329130e+001,-7.19793687971259e+000

2.45900029006080e+005,-2.23553362367186e+001,-7.29811996057271e+000

2.49332665491357e+005,-2.23560611341420e+001,-7.39968915066030e+000

2.52813219796278e+005,-2.23568061629750e+001,-7.50266328637289e+000

2.56342360828676e+005,-2.23575718754135e+001,-7.60706144619575e+000

2.59920766833993e+005,-2.23583588384244e+001,-7.71290295325868e+000

2.63549125525621e+005,-2.23591676341198e+001,-7.82020737789726e+000

2.67228134217075e+005,-2.23599988601410e+001,-7.92899454021829e+000

2.70958499956006e+005,-2.23608531300502e+001,-8.03928451266864e+000

2.74740939660078e+005,-2.23617310737313e+001,-8.15109762260527e+000

2.78576180254757e+005,-2.23626333377994e+001,-8.26445445486617e+000

2.82464958813007e+005,-2.23635605860194e+001,-8.37937585434179e+000

2.86408022696948e+005,-2.23645134997334e+001,-8.49588292854412e+000

2.90406129701488e+005,-2.23654927782982e+001,-8.61399705017267e+000

2.94460048199957e+005,-2.23664991395312e+001,-8.73373985967793e+000

2.98570557291775e+005,-2.23675333201661e+001,-8.85513326781832e+000

3.02738446952187e+005,-2.23685960763191e+001,-8.97819945820971e+000

3.06964518184081e+005,-2.23696881839630e+001,-9.10296088986960e+000

3.11249583171928e+005,-2.23708104394135e+001,-9.22944029974806e+000

3.15594465437872e+005,-2.23719636598235e+001,-9.35766070525087e+000

3.19999999999997e+005,-2.23731486836887e+001,-9.48764540674745e+000

3.24467033532806e+005,-2.23743663713629e+001,-9.61941799006643e+000

3.28996424529938e+005,-2.23756176055839e+001,-9.75300232897347e+000

3.33589043469155e+005,-2.23769032920098e+001,-9.88842258763347e+000

3.38245772979638e+005,-2.23782243597653e+001,-1.00257032230513e+001

3.42967508011610e+005,-2.23795817619999e+001,-1.01648689874926e+001

3.47755156008335e+005,-2.23809764764553e+001,-1.03059449308810e+001

3.52609637080511e+005,-2.23824095060446e+001,-1.04489564031705e+001

3.57531884183106e+005,-2.23838818794423e+001,-1.05939290566903e+001

3.62522843294651e+005,-2.23853946516848e+001,-1.07408888484615e+001

3.67583473599047e+005,-2.23869489047824e+001,-1.08898620424815e+001

3.72714747669902e+005,-2.23885457483422e+001,-1.10408752119762e+001

3.77917651657445e+005,-2.23901863202020e+001,-1.11939552416162e+001

3.83193185478053e+005,-2.23918717870761e+001,-1.13491293296955e+001

3.88542363006410e+005,-2.23936033452112e+001,-1.15064249902700e+001

3.93966212270369e+005,-2.23953822210546e+001,-1.16658700552541e+001

3.99465775648511e+005,-2.23972096719333e+001,-1.18274926764724e+001

4.05042110070485e+005,-2.23990869867447e+001,-1.19913213276640e+001

4.10696287220124e+005,-2.24010154866578e+001,-1.21573848064377e+001

4.16429393741414e+005,-2.24029965258273e+001,-1.23257122361751e+001

4.22242531447321e+005,-2.24050314921174e+001,-1.24963330678783e+001

4.28136817531551e+005,-2.24071218078382e+001,-1.26692770819607e+001

4.34113384783250e+005,-2.24092689304926e+001,-1.28445743899782e+001

4.40173381804713e+005,-2.24114743535350e+001,-1.30222554362966e+001

4.46317973232124e+005,-2.24137396071413e+001,-1.32023509996945e+001

4.52548339959385e+005,-2.24160662589895e+001,-1.33848921948972e+001

4.58865679365059e+005,-2.24184559150522e+001,-1.35699104740398e+001

4.65271205542494e+005,-2.24209102203995e+001,-1.37574376280553e+001

4.71766149533147e+005,-2.24234308600139e+001,-1.39475057879879e+001

4.78351759563174e+005,-2.24260195596148e+001,-1.41401474262223e+001

4.85029301283321e+005,-2.24286780864947e+001,-1.43353953576345e+001

4.91800058012158e+005,-2.24314082503665e+001,-1.45332827406527e+001

4.98665330982714e+005,-2.24342119042201e+001,-1.47338430782308e+001

5.05626439592555e+005,-2.24370909451907e+001,-1.49371102187287e+001

5.12684721657352e+005,-2.24400473154369e+001,-1.51431183566969e+001

5.19841533667984e+005,-2.24430830030290e+001,-1.53519020335623e+001

5.27098251051240e+005,-2.24462000428475e+001,-1.55634961382117e+001

5.34456268434150e+005,-2.24494005174914e+001,-1.57779359074688e+001

5.41916999912011e+005,-2.24526865581963e+001,-1.59952569264630e+001

