Freq.,VOut,OutRef

1.00000000000000e+004,-5.14109395491056e+000,-1.98186479764329e-002

1.01395947979003e+004,-5.14109407025621e+000,-2.00953010360370e-002

1.02811382665607e+004,-5.14109418884389e+000,-2.03758158211431e-002

1.04246576084112e+004,-5.14109431076508e+000,-2.06602462286199e-002

1.05701804056138e+004,-5.14109443611418e+000,-2.09486469043965e-002

1.07177346253629e+004,-5.14109456498645e+000,-2.12410732689472e-002

1.08673486252606e+004,-5.14109469748158e+000,-2.15375815040947e-002

1.10190511587661e+004,-5.14109483370156e+000,-2.18382285793841e-002

1.11728713807222e+004,-5.14109497375081e+000,-2.21430722616287e-002

1.13288388529580e+004,-5.14109511773674e+000,-2.24521711231921e-002

1.14869835499703e+004,-5.14109526577023e+000,-2.27655845508181e-002

1.16473358646846e+004,-5.14109541796527e+000,-2.30833727595042e-002

1.18099266142953e+004,-5.14109557443858e+000,-2.34055968078695e-002

1.19747870461893e+004,-5.14109573531019e+000,-2.37323186054326e-002

1.21419488439505e+004,-5.14109590070401e+000,-2.40636009229986e-002

1.23114441334492e+004,-5.14109607074741e+000,-2.43995074061177e-002

1.24833054890161e+004,-5.14109624557080e+000,-2.47401025923173e-002

1.26575659397028e+004,-5.14109642530819e+000,-2.50854519199753e-002

1.28342589756290e+004,-5.14109661009814e+000,-2.54356217346086e-002

1.30134185544193e+004,-5.14109680008283e+000,-2.57906793092032e-002

1.31950791077289e+004,-5.14109699540769e+000,-2.61506928600901e-002

1.33792755478611e+004,-5.14109719622335e+000,-2.65157315476505e-002

1.35660432744767e+004,-5.14109740268343e+000,-2.68858655051096e-002

1.37554181813974e+004,-5.14109761494722e+000,-2.72611658350164e-002

1.39474366635040e+004,-5.14109783317759e+000,-2.76417046374205e-002

1.41421356237309e+004,-5.14109805754283e+000,-2.80275550126827e-002

1.43395524801583e+004,-5.14109828821395e+000,-2.84187910931896e-002

1.45397251732031e+004,-5.14109852536972e+000,-2.88154880264636e-002

1.47426921729110e+004,-5.14109876919116e+000,-2.92177220259242e-002

1.49484924863494e+004,-5.14109901986628e+000,-2.96255703552836e-002

1.51571656651040e+004,-5.14109927758761e+000,-3.00391113609611e-002

1.53687518128801e+004,-5.14109954255343e+000,-3.04584244791773e-002

1.55832915932100e+004,-5.14109981496668e+000,-3.08835902601794e-002

1.58008262372675e+004,-5.14110009503689e+000,-3.13146903715948e-002

1.60213975517924e+004,-5.14110038297917e+000,-3.17518076214716e-002

1.62450479271247e+004,-5.14110067901519e+000,-3.21950259691068e-002

1.64718203453514e+004,-5.14110098337232e+000,-3.26444305483694e-002

1.67017583885674e+004,-5.14110129628384e+000,-3.31001076822168e-002

1.69349062472505e+004,-5.14110161799088e+000,-3.35621448895915e-002

1.71713087287550e+004,-5.14110194873950e+000,-3.40306309205637e-002

1.74110112659224e+004,-5.14110228878493e+000,-3.45056557488855e-002

1.76540599258131e+004,-5.14110263838778e+000,-3.49873106129842e-002

1.79005014185594e+004,-5.14110299781720e+000,-3.54756880157416e-002

1.81503831063432e+004,-5.14110336734883e+000,-3.59708817565113e-002

1.84037530124975e+004,-5.14110374726604e+000,-3.64729869418542e-002

1.86606598307361e+004,-5.14110413786177e+000,-3.69820999933618e-002

1.89211529345119e+004,-5.14110453943503e+000,-3.74983186903903e-002

1.91852823865052e+004,-5.14110495229513e+000,-3.80217421629787e-002

1.94530989482457e+004,-5.14110537675854e+000,-3.85524709322165e-002

1.97246540898671e+004,-5.14110581315187e+000,-3.90906069121720e-002

1.99999999999999e+004,-5.14110626180968e+000,-3.96362534443528e-002

2.02791895958005e+004,-5.14110672307686e+000,-4.01895153044405e-002

2.05622765331213e+004,-5.14110719730782e+000,-4.07504987290861e-002

2.08493152168224e+004,-5.14110768486647e+000,-4.13193114378719e-002

2.11403608112276e+004,-5.14110818612715e+000,-4.18960626495701e-002

2.14354692507258e+004,-5.14110870147514e+000,-4.24808631019328e-002

2.17346972505211e+004,-5.14110923130619e+000,-4.30738250772245e-002

2.20381023175322e+004,-5.14110977602710e+000,-4.36750624220585e-002

2.23457427614443e+004,-5.14111033605607e+000,-4.42846905691621e-002

2.26576777059159e+004,-5.14111091182286e+000,-4.49028265593827e-002

2.29739670999406e+004,-5.14111150377022e+000,-4.55295890583361e-002

2.32946717293690e+004,-5.14111211235226e+000,-4.61650983905195e-002

2.36198532285905e+004,-5.14111273803602e+000,-4.68094765546546e-002

2.39495740923785e+004,-5.14111338130179e+000,-4.74628472473246e-002

2.42838976879009e+004,-5.14111404264413e+000,-4.81253358821834e-002

2.46228882668982e+004,-5.14111472257045e+000,-4.87970696253342e-002

2.49666109780322e+004,-5.14111542160250e+000,-4.94781774123944e-002

2.53151318794055e+004,-5.14111614027659e+000,-5.01687899742574e-002

2.56685179512580e+004,-5.14111687914495e+000,-5.08690398555215e-002

2.60268371088386e+004,-5.14111763877475e+000,-5.15790614492837e-002

2.63901582154578e+004,-5.14111841974823e+000,-5.22989910238209e-002

2.67585510957221e+004,-5.14111922266576e+000,-5.30289667322407e-002

2.71320865489533e+004,-5.14112004814292e+000,-5.37691286600966e-002

2.75108363627948e+004,-5.14112089681354e+000,-5.45196188355812e-002

2.78948733270080e+004,-5.14112176932839e+000,-5.52805812679333e-002

2.82842712474618e+004,-5.14112266635778e+000,-5.60521619610206e-002

2.86791049603164e+004,-5.14112358858910e+000,-5.68345089605494e-002

2.90794503464061e+004,-5.14112453673047e+000,-5.76277723615267e-002

2.94853843458219e+004,-5.14112551150942e+000,-5.84321043487177e-002

2.98969849726987e+004,-5.14112651367331e+000,-5.92476592265891e-002

3.03143313302078e+004,-5.14112754399121e+000,-6.00745934396682e-002

3.07375036257601e+004,-5.14112860325339e+000,-6.09130656097014e-002

3.11665831864199e+004,-5.14112969227272e+000,-6.17632365595271e-002

3.16016524745350e+004,-5.14113081188384e+000,-6.26252693537235e-002

3.20427951035848e+004,-5.14113196294562e+000,-6.34993293176187e-002

3.24900958542493e+004,-5.14113314634119e+000,-6.43855840716326e-002

3.29436406907028e+004,-5.14113436297749e+000,-6.52842035705892e-002

3.34035167771346e+004,-5.14113561378765e+000,-6.61953601253974e-002

3.38698124945009e+004,-5.14113689973054e+000,-6.71192284420984e-002

3.43426174575100e+004,-5.14113822179253e+000,-6.80559856482461e-002

3.48220225318448e+004,-5.14113958098639e+000,-6.90058113390074e-002

3.53081198516260e+004,-5.14114097835437e+000,-6.99688875947031e-002

3.58010028371187e+004,-5.14114241496770e+000,-7.09453990244320e-002

3.63007662126863e+004,-5.14114389192714e+000,-7.19355328018609e-002

3.68075060249948e+004,-5.14114541036453e+000,-7.29394786959242e-002

3.73213196614721e+004,-5.14114697144368e+000,-7.39574291062362e-002

3.78423058690237e+004,-5.14114857636050e+000,-7.49895791038219e-002

3.83705647730104e+004,-5.14115022634472e+000,-7.60361264624601e-002

3.89061978964912e+004,-5.14115192266006e+000,-7.70972717006268e-002

3.94493081797342e+004,-5.14115366660599e+000,-7.81732181138407e-002

3.99999999999998e+004,-5.14115545951858e+000,-7.92641718136534e-002

4.05583791916010e+004,-5.14115730277032e+000,-8.03703417731208e-002

4.11245530662425e+004,-5.14115919777319e+000,-8.14919398536196e-002

4.16986304336447e+004,-5.14116114597778e+000,-8.26291808562477e-002

4.22807216224550e+004,-5.14116314887568e+000,-8.37822825536216e-002

4.28709385014515e+004,-5.14116520800016e+000,-8.49514657332542e-002

4.34693945010421e+004,-5.14116732492708e+000,-8.61369542403004e-002

4.40762046350642e+004,-5.14116950127653e+000,-8.73389750162885e-002

4.46914855228886e+004,-5.14117173871406e+000,-8.85577581405893e-002

4.53153554118317e+004,-5.14117403895147e+000,-8.97935368765476e-002

4.59479341998812e+004,-5.14117640374830e+000,-9.10465477135071e-002

4.65893434587380e+004,-5.14117883491332e+000,-9.23170304093239e-002

4.72397064571810e+004,-5.14118133430613e+000,-9.36052280323023e-002

4.78991481847569e+004,-5.14118390383773e+000,-9.49113870127462e-002

4.85677953758016e+004,-5.14118654547263e+000,-9.62357571830421e-002

4.92457765337964e+004,-5.14118926123013e+000,-9.75785918255839e-002

4.99332219560642e+004,-5.14119205318599e+000,-9.89401477175235e-002

5.06302637588109e+004,-5.14119492347392e+000,-1.00320685178958e-001

5.13370359025159e+004,-5.14119787428694e+000,-1.01720468122184e-001

5.20536742176771e+004,-5.14120090787916e+000,-1.03139764098896e-001

5.27803164309155e+004,-5.14120402656778e+000,-1.04578844347025e-001

5.35171021914442e+004,-5.14120723273412e+000,-1.06037983844815e-001

5.42641730979066e+004,-5.14121052882637e+000,-1.07517461355488e-001

5.50216727255895e+004,-5.14121391736035e+000,-1.09017559483615e-001

5.57897466540159e+004,-5.14121740092253e+000,-1.10538564720035e-001

5.65685424949235e+004,-5.14122098217083e+000,-1.12080767500446e-001

5.73582099206328e+004,-5.14122466383736e+000,-1.13644462253931e-001

5.81589006928121e+004,-5.14122844873051e+000,-1.15229947455060e-001

5.89707686916437e+004,-5.14123233973604e+000,-1.16837525684498e-001

5.97939699453972e+004,-5.14123633982067e+000,-1.18467503674933e-001

6.06286626604156e+004,-5.14124045203328e+000,-1.20120192371084e-001

6.14750072515201e+004,-5.14124467950713e+000,-1.21795906987493e-001

6.23331663728396e+004,-5.14124902546320e+000,-1.23494967057279e-001

6.32033049490698e+004,-5.14125349321148e+000,-1.25217696496962e-001

6.40855902071694e+004,-5.14125808615369e+000,-1.26964423662015e-001

6.49801917084985e+004,-5.14126280778631e+000,-1.28735481402991e-001

6.58872813814055e+004,-5.14126766170229e+000,-1.30531207128850e-001

6.68070335542691e+004,-5.14127265159482e+000,-1.32351942860310e-001

6.77396249890018e+004,-5.14127778125872e+000,-1.34198035299304e-001

6.86852349150199e+004,-5.14128305459478e+000,-1.36069835879252e-001

6.96440450636895e+004,-5.14128847561094e+000,-1.37967700838599e-001

7.06162397032520e+004,-5.14129404842661e+000,-1.39891991273424e-001

7.16020056742374e+004,-5.14129977727514e+000,-1.41843073205393e-001

7.26015324253724e+004,-5.14130566650654e+000,-1.43821317647212e-001

7.36150120499896e+004,-5.14131172059128e+000,-1.45827100664091e-001

7.46426393229441e+004,-5.14131794412382e+000,-1.47860803435851e-001

7.56846117380472e+004,-5.14132434182443e+000,-1.49922812334263e-001

7.67411295460207e+004,-5.14133091854473e+000,-1.52013518975135e-001

7.78123957929823e+004,-5.14133767926941e+000,-1.54133320297679e-001

7.88986163594682e+004,-5.14134462912094e+000,-1.56282618626152e-001

7.99999999999995e+004,-5.14135177336271e+000,-1.58461821740392e-001

8.11167583832018e+004,-5.14135911740339e+000,-1.60671342944015e-001

8.22491061324848e+004,-5.14136666680014e+000,-1.62911601137068e-001

8.33972608672892e+004,-5.14137442726315e+000,-1.65183020884890e-001

8.45614432449099e+004,-5.14138240465943e+000,-1.67486032490124e-001

8.57418770029029e+004,-5.14139060501712e+000,-1.69821072065835e-001

8.69387890020841e+004,-5.14139903453043e+000,-1.72188581602803e-001

8.81524092701283e+004,-5.14140769956247e+000,-1.74589009055021e-001

8.93829710457770e+004,-5.14141660665167e+000,-1.77022808400289e-001

9.06307108236633e+004,-5.14142576251517e+000,-1.79490439723908e-001

9.18958683997622e+004,-5.14143517405381e+000,-1.81992369293245e-001

9.31786869174758e+004,-5.14144484835782e+000,-1.84529069627433e-001

9.44794129143618e+004,-5.14145479271035e+000,-1.87101019585493e-001

9.57982963695136e+004,-5.14146501459404e+000,-1.89708704433173e-001

9.71355907516031e+004,-5.14147552169557e+000,-1.92352615926407e-001

9.84915530675926e+004,-5.14148632191116e+000,-1.95033252388976e-001

9.98664439121282e+004,-5.14149742335182e+000,-1.97751118794194e-001

1.01260527517622e+005,-5.14150883434997e+000,-2.00506726838083e-001

1.02674071805032e+005,-5.14152056346386e+000,-2.03300595029053e-001

1.04107348435354e+005,-5.14153261948465e+000,-2.06133248761999e-001

1.05560632861831e+005,-5.14154501144151e+000,-2.09005220405625e-001

1.07034204382888e+005,-5.14155774860931e+000,-2.11917049376082e-001

1.08528346195813e+005,-5.14157084051286e+000,-2.14869282232797e-001

1.10043345451179e+005,-5.14158429693561e+000,-2.17862472748630e-001

1.11579493308032e+005,-5.14159812792497e+000,-2.20897182001320e-001

1.13137084989847e+005,-5.14161234379937e+000,-2.23973978457794e-001

1.14716419841265e+005,-5.14162695515540e+000,-2.27093438056125e-001

1.16317801385624e+005,-5.14164197287553e+000,-2.30256144289473e-001

1.17941537383287e+005,-5.14165740813381e+000,-2.33462688300120e-001

1.19587939890794e+005,-5.14167327240537e+000,-2.36713668953704e-001

1.21257325320831e+005,-5.14168957747246e+000,-2.40009692935747e-001

1.22950014503040e+005,-5.14170633543327e+000,-2.43351374831772e-001

1.24666332745679e+005,-5.14172355870932e+000,-2.46739337218773e-001

1.26406609898139e+005,-5.14174126005387e+000,-2.50174210751005e-001

1.28171180414339e+005,-5.14175945256034e+000,-2.53656634247264e-001

1.29960383416997e+005,-5.14177814967073e+000,-2.57187254779386e-001

1.31774562762811e+005,-5.14179736518461e+000,-2.60766727758612e-001

1.33614067108538e+005,-5.14181711326710e+000,-2.64395717029878e-001

1.35479249978003e+005,-5.14183740845946e+000,-2.68074894950353e-001

1.37370469830040e+005,-5.14185826568705e+000,-2.71804942487551e-001

1.39288090127379e+005,-5.14187970026928e+000,-2.75586549302574e-001

1.41232479406504e+005,-5.14190172792955e+000,-2.79420413839245e-001

1.43204011348474e+005,-5.14192436480439e+000,-2.83307243414943e-001

1.45203064850745e+005,-5.14194762745462e+000,-2.87247754303855e-001

1.47230024099979e+005,-5.14197153287422e+000,-2.91242671832855e-001

1.49285278645888e+005,-5.14199609850197e+000,-2.95292730462390e-001

1.51369223476094e+005,-5.14202134223116e+000,-2.99398673879805e-001

1.53482259092041e+005,-5.14204728242107e+000,-3.03561255083326e-001

1.55624791585964e+005,-5.14207393790798e+000,-3.07781236468660e-001

1.57797232718936e+005,-5.14210132801585e+000,-3.12059389920412e-001

1.59999999999999e+005,-5.14212947256829e+000,-3.16396496893643e-001

1.62233516766403e+005,-5.14215839189993e+000,-3.20793348502150e-001

1.64498212264969e+005,-5.14218810686852e+000,-3.25250745601254e-001

1.66794521734578e+005,-5.14221863886661e+000,-3.29769498874825e-001

1.69122886489819e+005,-5.14225000983365e+000,-3.34350428919089e-001

1.71483754005805e+005,-5.14228224226926e+000,-3.38994366320677e-001

1.73877578004168e+005,-5.14231535924478e+000,-3.43702151744641e-001

1.76304818540256e+005,-5.14234938441636e+000,-3.48474636013194e-001

1.78765942091554e+005,-5.14238434203850e+000,-3.53312680182479e-001

1.81261421647326e+005,-5.14242025697654e+000,-3.58217155625020e-001

1.83791736799524e+005,-5.14245715472002e+000,-3.63188944106749e-001

1.86357373834951e+005,-5.14249506139638e+000,-3.68228937861628e-001

1.88958825828723e+005,-5.14253400378472e+000,-3.73338039665967e-001

1.91596592739027e+005,-5.14257400932923e+000,-3.78517162912964e-001

1.94271181503206e+005,-5.14261510615344e+000,-3.83767231683142e-001

1.96983106135185e+005,-5.14265732307410e+000,-3.89089180815016e-001

1.99732887824256e+005,-5.14270068961567e+000,-3.94483955971295e-001

2.02521055035243e+005,-5.14274523602448e+000,-3.99952513705262e-001

2.05348143610063e+005,-5.14279099328306e+000,-4.05495821526411e-001

2.08214696870707e+005,-5.14283799312499e+000,-4.11114857959402e-001

2.11121265723661e+005,-5.14288626804956e+000,-4.16810612603877e-001

2.14068408765776e+005,-5.14293585133604e+000,-4.22584086193689e-001

2.17056692391625e+005,-5.14298677705919e+000,-4.28436290647167e-001

2.20086690902357e+005,-5.14303908010337e+000,-4.34368249122631e-001

2.23158986616063e+005,-5.14309279617798e+000,-4.40380996064183e-001

2.26274169979693e+005,-5.14314796183186e+000,-4.46475577250637e-001

2.29432839682530e+005,-5.14320461446884e+000,-4.52653049833736e-001

2.32635602771247e+005,-5.14326279236165e+000,-4.58914482383416e-001

2.35883074766574e+005,-5.14332253466750e+000,-4.65260954920125e-001

2.39175879781588e+005,-5.14338388144268e+000,-4.71693558947666e-001

2.42514650641661e+005,-5.14344687365648e+000,-4.78213397486633e-001

2.45900029006080e+005,-5.14351155320668e+000,-4.84821585094321e-001

2.49332665491357e+005,-5.14357796293336e+000,-4.91519247889972e-001

2.52813219796278e+005,-5.14364614663286e+000,-4.98307523572489e-001

2.56342360828676e+005,-5.14371614907251e+000,-5.05187561429974e-001

2.59920766833993e+005,-5.14378801600329e+000,-5.12160522355343e-001

2.63549125525621e+005,-5.14386179417406e+000,-5.19227578845336e-001

2.67228134217075e+005,-5.14393753134430e+000,-5.26389915003967e-001

2.70958499956006e+005,-5.14401527629677e+000,-5.33648726537538e-001

2.74740939660078e+005,-5.14409507884988e+000,-5.41005220745547e-001

2.78576180254757e+005,-5.14417698986990e+000,-5.48460616504471e-001

2.82464958813007e+005,-5.14426106128173e+000,-5.56016144251874e-001

2.86408022696948e+005,-5.14434734608016e+000,-5.63673045959903e-001

2.90406129701488e+005,-5.14443589833979e+000,-5.71432575107007e-001

2.94460048199957e+005,-5.14452677322487e+000,-5.79295996641387e-001

2.98570557291775e+005,-5.14462002699799e+000,-5.87264586941694e-001

3.02738446952187e+005,-5.14471571702820e+000,-5.95339633770876e-001

3.06964518184081e+005,-5.14481390179820e+000,-6.03522436224466e-001

3.11249583171928e+005,-5.14491464091069e+000,-6.11814304673294e-001

3.15594465437872e+005,-5.14501799509395e+000,-6.20216560700021e-001

3.19999999999997e+005,-5.14512402620614e+000,-6.28730537029237e-001

3.24467033532806e+005,-5.14523279723786e+000,-6.37357577457167e-001

3.28996424529938e+005,-5.14534437231537e+000,-6.46099036764291e-001

3.33589043469155e+005,-5.14545881670053e+000,-6.54956280634070e-001

3.38245772979638e+005,-5.14557619679017e+000,-6.63930685559965e-001

3.42967508011610e+005,-5.14569658011447e+000,-6.73023638745056e-001

3.47755156008335e+005,-5.14582003533332e+000,-6.82236537999591e-001

3.52609637080511e+005,-5.14594663223081e+000,-6.91570791632475e-001

3.57531884183106e+005,-5.14607644170868e+000,-7.01027818334502e-001

3.62522843294651e+005,-5.14620953577733e+000,-7.10609047059471e-001

3.67583473599047e+005,-5.14634598754538e+000,-7.20315916896767e-001

3.72714747669902e+005,-5.14648587120669e+000,-7.30149876943073e-001

3.77917651657445e+005,-5.14662926202581e+000,-7.40112386164508e-001

3.83193185478053e+005,-5.14677623632087e+000,-7.50204913256961e-001

3.88542363006410e+005,-5.14692687144395e+000,-7.60428936502987e-001

3.93966212270369e+005,-5.14708124575956e+000,-7.70785943621171e-001

3.99465775648511e+005,-5.14723943861957e+000,-7.81277431616098e-001

4.05042110070485e+005,-5.14740153033658e+000,-7.91904906621904e-001

4.10696287220124e+005,-5.14756760215322e+000,-8.02669883746077e-001

4.16429393741414e+005,-5.14773773620996e+000,-8.13573886906005e-001

4.22242531447321e+005,-5.14791201550807e+000,-8.24618448671049e-001

4.28136817531551e+005,-5.14809052387106e+000,-8.35805110096601e-001

4.34113384783250e+005,-5.14827334590132e+000,-8.47135420563887e-001

4.40173381804713e+005,-5.14846056693453e+000,-8.58610937614270e-001

4.46317973232124e+005,-5.14865227298963e+000,-8.70233226788805e-001

4.52548339959385e+005,-5.14884855071527e+000,-8.82003861468786e-001

4.58865679365059e+005,-5.14904948733247e+000,-8.93924422718722e-001

4.65271205542494e+005,-5.14925517057339e+000,-9.05996499132876e-001

4.71766149533147e+005,-5.14946568861565e+000,-9.18221686687806e-001

4.78351759563174e+005,-5.14968113001287e+000,-9.30601588599010e-001

4.85029301283321e+005,-5.14990158362036e+000,-9.43137815187783e-001

4.91800058012158e+005,-5.15012713851663e+000,-9.55831983753513e-001

4.98665330982714e+005,-5.15035788392040e+000,-9.68685718457167e-001

5.05626439592555e+005,-5.15059390910257e+000,-9.81700650215798e-001

5.12684721657352e+005,-5.15083530329368e+000,-9.94878416610505e-001

5.19841533667984e+005,-5.15108215558638e+000,-1.00822066180673e+000

5.27098251051240e+005,-5.15133455483303e+000,-1.02172903649191e+000

5.34456268434150e+005,-5.15159258953770e+000,-1.03540519783185e+000

5.41916999912011e+005,-5.15185634774416e+000,-1.04925080944325e+000

