Freq.,VOut,OutRef

1.00000000000000e+004,-2.49308013332382e+000,-1.84324028773549e-002

1.01395947979003e+004,-2.49308018376187e+000,-1.86897074516119e-002

1.02811382665607e+004,-2.49308023561807e+000,-1.89506037694925e-002

1.04246576084112e+004,-2.49308028893208e+000,-1.92151419673930e-002

1.05701804056138e+004,-2.49308034374481e+000,-1.94833728800946e-002

1.07177346253629e+004,-2.49308040009783e+000,-1.97553480556690e-002

1.08673486252606e+004,-2.49308045803566e+000,-2.00311197493027e-002

1.10190511587661e+004,-2.49308051760200e+000,-2.03107409594011e-002

1.11728713807222e+004,-2.49308057884273e+000,-2.05942654177526e-002

1.13288388529580e+004,-2.49308064180506e+000,-2.08817476055580e-002

1.14869835499703e+004,-2.49308070653738e+000,-2.11732427657486e-002

1.16473358646846e+004,-2.49308077308894e+000,-2.14688069147445e-002

1.18099266142953e+004,-2.49308084151181e+000,-2.17684968416879e-002

1.19747870461893e+004,-2.49308091185781e+000,-2.20723701395473e-002

1.21419488439505e+004,-2.49308098418137e+000,-2.23804851972597e-002

1.23114441334492e+004,-2.49308105853822e+000,-2.26929012201744e-002

1.24833054890161e+004,-2.49308113498491e+000,-2.30096782447623e-002

1.26575659397028e+004,-2.49308121358047e+000,-2.33308771390639e-002

1.28342589756290e+004,-2.49308129438564e+000,-2.36565596212020e-002

1.30134185544193e+004,-2.49308137746228e+000,-2.39867882727744e-002

1.31950791077289e+004,-2.49308146287395e+000,-2.43216265506204e-002

1.33792755478611e+004,-2.49308155068688e+000,-2.46611387899310e-002

1.35660432744767e+004,-2.49308164096769e+000,-2.50053902339095e-002

1.37554181813974e+004,-2.49308173378646e+000,-2.53544470256916e-002

1.39474366635040e+004,-2.49308182921457e+000,-2.57083762357724e-002

1.41421356237309e+004,-2.49308192732470e+000,-2.60672458749325e-002

1.43395524801583e+004,-2.49308202819282e+000,-2.64311248949536e-002

1.45397251732031e+004,-2.49308213189614e+000,-2.68000832153031e-002

1.47426921729110e+004,-2.49308223851493e+000,-2.71741917256167e-002

1.49484924863494e+004,-2.49308234813019e+000,-2.75535223141394e-002

1.51571656651040e+004,-2.49308246082657e+000,-2.79381478637621e-002

1.53687518128801e+004,-2.49308257669090e+000,-2.83281422750088e-002

1.55832915932100e+004,-2.49308269581161e+000,-2.87235804850549e-002

1.58008262372675e+004,-2.49308281828087e+000,-2.91245384686940e-002

1.60213975517924e+004,-2.49308294419265e+000,-2.95310932655003e-002

1.62450479271247e+004,-2.49308307364326e+000,-2.99433229921153e-002

1.64718203453514e+004,-2.49308320673246e+000,-3.03613068501697e-002

1.67017583885674e+004,-2.49308334356266e+000,-3.07851251470165e-002

1.69349062472505e+004,-2.49308348423857e+000,-3.12148593141428e-002

1.71713087287550e+004,-2.49308362886853e+000,-3.16505919146861e-002

1.74110112659224e+004,-2.49308377756372e+000,-3.20924066649728e-002

1.76540599258131e+004,-2.49308393043795e+000,-3.25403884521228e-002

1.79005014185594e+004,-2.49308408760931e+000,-3.29946233411290e-002

1.81503831063432e+004,-2.49308424919821e+000,-3.34551986027099e-002

1.84037530124975e+004,-2.49308441532861e+000,-3.39222027248019e-002

1.86606598307361e+004,-2.49308458612831e+000,-3.43957254277467e-002

1.89211529345119e+004,-2.49308476172818e+000,-3.48758576852026e-002

1.91852823865052e+004,-2.49308494226379e+000,-3.53626917346791e-002

1.94530989482457e+004,-2.49308512787319e+000,-3.58563211081644e-002

1.97246540898671e+004,-2.49308531869905e+000,-3.63568406371715e-002

1.99999999999999e+004,-2.49308551488832e+000,-3.68643464749347e-002

2.02791895958005e+004,-2.49308571659120e+000,-3.73789361204507e-002

2.05622765331213e+004,-2.49308592396268e+000,-3.79007084294245e-002

2.08493152168224e+004,-2.49308613716242e+000,-3.84297636342150e-002

2.11403608112276e+004,-2.49308635635377e+000,-3.89662033693597e-002

2.14354692507258e+004,-2.49308658170486e+000,-3.95101306869314e-002

2.17346972505211e+004,-2.49308681338931e+000,-4.00616500697454e-002

2.20381023175322e+004,-2.49308705158488e+000,-4.06208674633906e-002

2.23457427614443e+004,-2.49308729647408e+000,-4.11878902915599e-002

2.26576777059159e+004,-2.49308754824526e+000,-4.17628274718404e-002

2.29739670999406e+004,-2.49308780709199e+000,-4.23457894407298e-002

2.32946717293690e+004,-2.49308807321245e+000,-4.29368881796444e-002

2.36198532285905e+004,-2.49308834681137e+000,-4.35362372258661e-002

2.39495740923785e+004,-2.49308862809825e+000,-4.41439517047137e-002

2.42838976879009e+004,-2.49308891728985e+000,-4.47601483384692e-002

2.46228882668982e+004,-2.49308921460749e+000,-4.53849454862903e-002

2.49666109780322e+004,-2.49308952027999e+000,-4.60184631491804e-002

2.53151318794055e+004,-2.49308983454155e+000,-4.66608230078551e-002

2.56685179512580e+004,-2.49309015763347e+000,-4.73121484348209e-002

2.60268371088386e+004,-2.49309048980395e+000,-4.79725645225387e-002

2.63901582154578e+004,-2.49309083130770e+000,-4.86421981100231e-002

2.67585510957221e+004,-2.49309118240690e+000,-4.93211778015595e-002

2.71320865489533e+004,-2.49309154337103e+000,-5.00096339943838e-002

2.75108363627948e+004,-2.49309191447689e+000,-5.07076989047463e-002

2.78948733270080e+004,-2.49309229600960e+000,-5.14155065878402e-002

2.82842712474618e+004,-2.49309268826158e+000,-5.21331929711978e-002

2.86791049603164e+004,-2.49309309153450e+000,-5.28608958703254e-002

2.90794503464061e+004,-2.49309350613662e+000,-5.35987550322558e-002

2.94853843458219e+004,-2.49309393238697e+000,-5.43469121390931e-002

2.98969849726987e+004,-2.49309437061236e+000,-5.51055108522520e-002

3.03143313302078e+004,-2.49309482114852e+000,-5.58746968381750e-002

3.07375036257601e+004,-2.49309528434166e+000,-5.66546177846896e-002

3.11665831864199e+004,-2.49309576054657e+000,-5.74454234444519e-002

3.16016524745350e+004,-2.49309625012875e+000,-5.82472656514413e-002

3.20427951035848e+004,-2.49309675346373e+000,-5.90602983553868e-002

3.24900958542493e+004,-2.49309727093712e+000,-5.98846776538337e-002

3.29436406907028e+004,-2.49309780294623e+000,-6.07205618118470e-002

3.34035167771346e+004,-2.49309834989862e+000,-6.15681113046715e-002

3.38698124945009e+004,-2.49309891221376e+000,-6.24274888388030e-002

3.43426174575100e+004,-2.49309949032290e+000,-6.32988593861148e-002

3.48220225318448e+004,-2.49310008466885e+000,-6.41823902190197e-002

3.53081198516260e+004,-2.49310069570747e+000,-6.50782509342144e-002

3.58010028371187e+004,-2.49310132390705e+000,-6.59866134919619e-002

3.63007662126863e+004,-2.49310196974906e+000,-6.69076522457289e-002

3.68075060249948e+004,-2.49310263372852e+000,-6.78415439750858e-002

3.73213196614721e+004,-2.49310331635401e+000,-6.87884679221637e-002

3.78423058690237e+004,-2.49310401814843e+000,-6.97486058233741e-002

3.83705647730104e+004,-2.49310473964994e+000,-7.07221419394528e-002

3.89061978964912e+004,-2.49310548141081e+000,-7.17092631011948e-002

3.94493081797342e+004,-2.49310624399953e+000,-7.27101587345623e-002

3.99999999999998e+004,-2.49310702799977e+000,-7.37250209048309e-002

4.05583791916010e+004,-2.49310783401222e+000,-7.47540443442998e-002

4.11245530662425e+004,-2.49310866265402e+000,-7.57974264968583e-002

4.16986304336447e+004,-2.49310951455947e+000,-7.68553675525524e-002

4.22807216224550e+004,-2.49311039038084e+000,-7.79280704837667e-002

4.28709385014515e+004,-2.49311129078872e+000,-7.90157410851668e-002

4.34693945010421e+004,-2.49311221647195e+000,-8.01185880149416e-002

4.40762046350642e+004,-2.49311316813932e+000,-8.12368228284219e-002

4.46914855228886e+004,-2.49311414651851e+000,-8.23706600263040e-002

4.53153554118317e+004,-2.49311515235847e+000,-8.35203170856813e-002

4.59479341998812e+004,-2.49311618642857e+000,-8.46860145085757e-002

4.65893434587380e+004,-2.49311724951957e+000,-8.58679758614931e-002

4.72397064571810e+004,-2.49311834244451e+000,-8.70664278153815e-002

4.78991481847569e+004,-2.49311946603927e+000,-8.82816001896434e-002

4.85677953758016e+004,-2.49312062116259e+000,-8.95137259982086e-002

4.92457765337964e+004,-2.49312180869781e+000,-9.07630414873128e-002

4.99332219560642e+004,-2.49312302955233e+000,-9.20297861870408e-002

5.06302637588109e+004,-2.49312428465892e+000,-9.33142029525603e-002

5.13370359025159e+004,-2.49312557497674e+000,-9.46165380080898e-002

5.20536742176771e+004,-2.49312690149166e+000,-9.59370409949351e-002

5.27803164309155e+004,-2.49312826521624e+000,-9.72759650239217e-002

5.35171021914442e+004,-2.49312966719252e+000,-9.86335667096283e-002

5.42641730979066e+004,-2.49313110849040e+000,-1.00010106233901e-001

5.50216727255895e+004,-2.49313259021014e+000,-1.01405847383646e-001

5.57897466540159e+004,-2.49313411348277e+000,-1.02821057602571e-001

5.65685424949235e+004,-2.49313567947035e+000,-1.04256008045775e-001

5.73582099206328e+004,-2.49313728936745e+000,-1.05710973625966e-001

5.81589006928121e+004,-2.49313894440237e+000,-1.07186233062174e-001

5.89707686916437e+004,-2.49314064583650e+000,-1.08682068943043e-001

5.97939699453972e+004,-2.49314239496715e+000,-1.10198767766274e-001

6.06286626604156e+004,-2.49314419312784e+000,-1.11736619997131e-001

6.14750072515201e+004,-2.49314604168810e+000,-1.13295920128960e-001

6.23331663728396e+004,-2.49314794205649e+000,-1.14876966727288e-001

6.32033049490698e+004,-2.49314989568040e+000,-1.16480062490747e-001

6.40855902071694e+004,-2.49315190404699e+000,-1.18105514309824e-001

6.49801917084985e+004,-2.49315396868519e+000,-1.19753633317435e-001

6.58872813814055e+004,-2.49315609116623e+000,-1.21424734950436e-001

6.68070335542691e+004,-2.49315827310460e+000,-1.23119139009647e-001

6.77396249890018e+004,-2.49316051615976e+000,-1.24837169714759e-001

6.86852349150199e+004,-2.49316282203707e+000,-1.26579155767042e-001

6.96440450636895e+004,-2.49316519248913e+000,-1.28345430409610e-001

7.06162397032520e+004,-2.49316762931724e+000,-1.30136331486259e-001

7.16020056742374e+004,-2.49317013437215e+000,-1.31952201509027e-001

7.26015324253724e+004,-2.49317270955613e+000,-1.33793387715468e-001

7.36150120499896e+004,-2.49317535682361e+000,-1.35660242137963e-001

7.46426393229441e+004,-2.49317807818338e+000,-1.37553121662554e-001

7.56846117380472e+004,-2.49318087569968e+000,-1.39472388097020e-001

7.67411295460207e+004,-2.49318375149334e+000,-1.41418408240543e-001

7.78123957929823e+004,-2.49318670774414e+000,-1.43391553942993e-001

7.88986163594682e+004,-2.49318974669157e+000,-1.45392202180426e-001

7.99999999999995e+004,-2.49319287063719e+000,-1.47420735118066e-001

8.11167583832018e+004,-2.49319608194545e+000,-1.49477540184467e-001

8.22491061324848e+004,-2.49319938304639e+000,-1.51563010136680e-001

8.33972608672892e+004,-2.49320277643651e+000,-1.53677543136699e-001

8.45614432449099e+004,-2.49320626468111e+000,-1.55821542820006e-001

8.57418770029029e+004,-2.49320985041590e+000,-1.57995418369493e-001

8.69387890020841e+004,-2.49321353634870e+000,-1.60199584591712e-001

8.81524092701283e+004,-2.49321732526186e+000,-1.62434461986963e-001

8.93829710457770e+004,-2.49322122001422e+000,-1.64700476825953e-001

9.06307108236633e+004,-2.49322522354225e+000,-1.66998061232098e-001

9.18958683997622e+004,-2.49322933886348e+000,-1.69327653249523e-001

9.31786869174758e+004,-2.49323356907738e+000,-1.71689696930207e-001

9.44794129143618e+004,-2.49323791736861e+000,-1.74084642405894e-001

9.57982963695136e+004,-2.49324238700832e+000,-1.76512945973850e-001

9.71355907516031e+004,-2.49324698135735e+000,-1.78975070173694e-001

9.84915530675926e+004,-2.49325170386773e+000,-1.81471483872674e-001

9.98664439121282e+004,-2.49325655808596e+000,-1.84002662344892e-001

1.01260527517622e+005,-2.49326154765445e+000,-1.86569087360514e-001

1.02674071805032e+005,-2.49326667631535e+000,-1.89171247262900e-001

1.04107348435354e+005,-2.49327194791151e+000,-1.91809637064022e-001

1.05560632861831e+005,-2.49327736639092e+000,-1.94484758520756e-001

1.07034204382888e+005,-2.49328293580791e+000,-1.97197120231232e-001

1.08528346195813e+005,-2.49328866032713e+000,-1.99947237716244e-001

1.10043345451179e+005,-2.49329454422521e+000,-2.02735633516874e-001

1.11579493308032e+005,-2.49330059189495e+000,-2.05562837275009e-001

1.13137084989847e+005,-2.49330680784723e+000,-2.08429385834014e-001

1.14716419841265e+005,-2.49331319671468e+000,-2.11335823325309e-001

1.16317801385624e+005,-2.49331976325450e+000,-2.14282701264656e-001

1.17941537383287e+005,-2.49332651235211e+000,-2.17270578643679e-001

1.19587939890794e+005,-2.49333344902340e+000,-2.20300022030427e-001

1.21257325320831e+005,-2.49334057841947e+000,-2.23371605658803e-001

1.22950014503040e+005,-2.49334790582882e+000,-2.26485911531405e-001

1.24666332745679e+005,-2.49335543668184e+000,-2.29643529512969e-001

1.26406609898139e+005,-2.49336317655328e+000,-2.32845057435832e-001

1.28171180414339e+005,-2.49337113116716e+000,-2.36091101192327e-001

1.29960383416997e+005,-2.49337930639942e+000,-2.39382274842211e-001

1.31774562762811e+005,-2.49338770828209e+000,-2.42719200712947e-001

1.33614067108538e+005,-2.49339634300756e+000,-2.46102509499832e-001

1.35479249978003e+005,-2.49340521693187e+000,-2.49532840374766e-001

1.37370469830040e+005,-2.49341433657940e+000,-2.53010841086704e-001

1.39288090127379e+005,-2.49342370864656e+000,-2.56537168070328e-001

1.41232479406504e+005,-2.49343334000607e+000,-2.60112486552084e-001

1.43204011348474e+005,-2.49344323771173e+000,-2.63737470655981e-001

1.45203064850745e+005,-2.49345340900184e+000,-2.67412803516777e-001

1.47230024099979e+005,-2.49346386130460e+000,-2.71139177385428e-001

1.49285278645888e+005,-2.49347460224242e+000,-2.74917293739138e-001

1.51369223476094e+005,-2.49348563963616e+000,-2.78747863396362e-001

1.53482259092041e+005,-2.49349698151033e+000,-2.82631606626386e-001

1.55624791585964e+005,-2.49350863609768e+000,-2.86569253262572e-001

1.57797232718936e+005,-2.49352061184417e+000,-2.90561542816890e-001

1.59999999999999e+005,-2.49353291741406e+000,-2.94609224593201e-001

1.62233516766403e+005,-2.49354556169465e+000,-2.98713057805900e-001

1.64498212264969e+005,-2.49355855380158e+000,-3.02873811694381e-001

1.66794521734578e+005,-2.49357190308437e+000,-3.07092265638968e-001

1.69122886489819e+005,-2.49358561913150e+000,-3.11369209280746e-001

1.71483754005805e+005,-2.49359971177577e+000,-3.15705442639674e-001

1.73877578004168e+005,-2.49361419109959e+000,-3.20101776236166e-001

1.76304818540256e+005,-2.49362906744139e+000,-3.24559031205361e-001

1.78765942091554e+005,-2.49364435140013e+000,-3.29078039426110e-001

1.81261421647326e+005,-2.49366005384184e+000,-3.33659643636172e-001

1.83791736799524e+005,-2.49367618590516e+000,-3.38304697557423e-001

1.86357373834951e+005,-2.49369275900711e+000,-3.43014066018507e-001

1.88958825828723e+005,-2.49370978484933e+000,-3.47788625076505e-001

1.91596592739027e+005,-2.49372727542378e+000,-3.52629262143908e-001

1.94271181503206e+005,-2.49374524301883e+000,-3.57536876111761e-001

1.96983106135185e+005,-2.49376370022572e+000,-3.62512377473773e-001

1.99732887824256e+005,-2.49378265994436e+000,-3.67556688454062e-001

2.02521055035243e+005,-2.49380213538986e+000,-3.72670743132184e-001

2.05348143610063e+005,-2.49382214009858e+000,-3.77855487569279e-001

2.08214696870707e+005,-2.49384268793469e+000,-3.83111879936243e-001

2.11121265723661e+005,-2.49386379309646e+000,-3.88440890639633e-001

2.14068408765776e+005,-2.49388547012254e+000,-3.93843502451322e-001

2.17056692391625e+005,-2.49390773389852e+000,-3.99320710634506e-001

2.20086690902357e+005,-2.49393059966337e+000,-4.04873523073371e-001

2.23158986616063e+005,-2.49395408301585e+000,-4.10502960400716e-001

2.26274169979693e+005,-2.49397819992105e+000,-4.16210056126787e-001

2.29432839682530e+005,-2.49400296671666e+000,-4.21995856769288e-001

2.32635602771247e+005,-2.49402840011953e+000,-4.27861421981146e-001

2.35883074766574e+005,-2.49405451723228e+000,-4.33807824679219e-001

2.39175879781588e+005,-2.49408133554920e+000,-4.39836151175409e-001

2.42514650641661e+005,-2.49410887296309e+000,-4.45947501303408e-001

2.45900029006080e+005,-2.49413714777102e+000,-4.52142988550703e-001

2.49332665491357e+005,-2.49416617868105e+000,-4.58423740184121e-001

2.52813219796278e+005,-2.49419598481806e+000,-4.64790897381652e-001

2.56342360828676e+005,-2.49422658572975e+000,-4.71245615359987e-001

2.59920766833993e+005,-2.49425800139273e+000,-4.77789063503150e-001

2.63549125525621e+005,-2.49429025221804e+000,-4.84422425491669e-001

2.67228134217075e+005,-2.49432335905688e+000,-4.91146899430895e-001

2.70958499956006e+005,-2.49435734320628e+000,-4.97963697977233e-001

2.74740939660078e+005,-2.49439222641404e+000,-5.04874048467909e-001

2.78576180254757e+005,-2.49442803088427e+000,-5.11879193045437e-001

2.82464958813007e+005,-2.49446477928153e+000,-5.18980388788854e-001

2.86408022696948e+005,-2.49450249473627e+000,-5.26178907835636e-001

2.90406129701488e+005,-2.49454120084847e+000,-5.33476037511304e-001

2.94460048199957e+005,-2.49458092169221e+000,-5.40873080452162e-001

2.98570557291775e+005,-2.49462168181912e+000,-5.48371354732859e-001

3.02738446952187e+005,-2.49466350626169e+000,-5.55972193990318e-001

3.06964518184081e+005,-2.49470642053660e+000,-5.63676947547763e-001

3.11249583171928e+005,-2.49475045064717e+000,-5.71486980537916e-001

3.15594465437872e+005,-2.49479562308534e+000,-5.79403674028716e-001

3.19999999999997e+005,-2.49484196483368e+000,-5.87428425143306e-001

3.24467033532806e+005,-2.49488950336664e+000,-5.95562647183905e-001

3.28996424529938e+005,-2.49493826665090e+000,-6.03807769753684e-001

3.33589043469155e+005,-2.49498828314576e+000,-6.12165238879094e-001

3.38245772979638e+005,-2.49503958180258e+000,-6.20636517129788e-001

3.42967508011610e+005,-2.49509219206372e+000,-6.29223083740103e-001

3.47755156008335e+005,-2.49514614386078e+000,-6.37926434729092e-001

3.52609637080511e+005,-2.49520146761170e+000,-6.46748083023705e-001

3.57531884183106e+005,-2.49525819421801e+000,-6.55689558575372e-001

3.62522843294651e+005,-2.49531635506024e+000,-6.64752408483377e-001

3.67583473599047e+005,-2.49537598199329e+000,-6.73938197113889e-001

3.72714747669902e+005,-2.49543710734057e+000,-6.83248506220080e-001

3.77917651657445e+005,-2.49549976388678e+000,-6.92684935065573e-001

3.83193185478053e+005,-2.49556398487054e+000,-7.02249100543384e-001

3.88542363006410e+005,-2.49562980397542e+000,-7.11942637299059e-001

3.93966212270369e+005,-2.49569725531972e+000,-7.21767197854202e-001

3.99465775648511e+005,-2.49576637344578e+000,-7.31724452728694e-001

4.05042110070485e+005,-2.49583719330713e+000,-7.41816090568863e-001

4.10696287220124e+005,-2.49590975025553e+000,-7.52043818269862e-001

4.16429393741414e+005,-2.49598408002536e+000,-7.62409361109027e-001

4.22242531447321e+005,-2.49606021871781e+000,-7.72914462872898e-001

4.28136817531551e+005,-2.49613820278315e+000,-7.83560885990207e-001

4.34113384783250e+005,-2.49621806900113e+000,-7.94350411669828e-001

4.40173381804713e+005,-2.49629985446084e+000,-8.05284840035145e-001

4.46317973232124e+005,-2.49638359653755e+000,-8.16365990271155e-001

4.52548339959385e+005,-2.49646933286961e+000,-8.27595700764579e-001

4.58865679365059e+005,-2.49655710133181e+000,-8.38975829257967e-001

4.65271205542494e+005,-2.49664694000855e+000,-8.50508253002300e-001

4.71766149533147e+005,-2.49673888716410e+000,-8.62194868917223e-001

4.78351759563174e+005,-2.49683298121163e+000,-8.74037593756593e-001

4.85029301283321e+005,-2.49692926067970e+000,-8.86038364280411e-001

4.91800058012158e+005,-2.49702776417736e+000,-8.98199137434712e-001

4.98665330982714e+005,-2.49712853035684e+000,-9.10521890535514e-001

5.05626439592555e+005,-2.49723159787418e+000,-9.23008621466412e-001

5.12684721657352e+005,-2.49733700534789e+000,-9.35661348879279e-001

5.19841533667984e+005,-2.49744479131530e+000,-9.48482112409072e-001

5.27098251051240e+005,-2.49755499418659e+000,-9.61472972897428e-001

5.34456268434150e+005,-2.49766765219680e+000,-9.74636012627245e-001

5.41916999912011e+005,-2.49778280335532e+000,-9.87973335569435e-001

