Freq.,VOut,OutRef

1.00000000000000e+004,-1.83465530502327e+001,-1.04807535817530e-001

1.01395947979003e+004,-1.83465532225174e+001,-1.06270590694099e-001

1.02811382665607e+004,-1.83465533996453e+001,-1.07754068895918e-001

1.04246576084112e+004,-1.83465535817529e+001,-1.09258255511970e-001

1.05701804056138e+004,-1.83465537689800e+001,-1.10783439615285e-001

1.07177346253629e+004,-1.83465539614705e+001,-1.12329914313341e-001

1.08673486252606e+004,-1.83465541593724e+001,-1.13897976802620e-001

1.10190511587661e+004,-1.83465543628377e+001,-1.15487928430695e-001

1.11728713807222e+004,-1.83465545720233e+001,-1.17100074747417e-001

1.13288388529580e+004,-1.83465547870893e+001,-1.18734725573778e-001

1.14869835499703e+004,-1.83465550082015e+001,-1.20392195048967e-001

1.16473358646846e+004,-1.83465552355295e+001,-1.22072801702746e-001

1.18099266142953e+004,-1.83465554692483e+001,-1.23776868505156e-001

1.19747870461893e+004,-1.83465557095375e+001,-1.25504722939323e-001

1.21419488439505e+004,-1.83465559565819e+001,-1.27256697056160e-001

1.23114441334492e+004,-1.83465562105712e+001,-1.29033127543120e-001

1.24833054890161e+004,-1.83465564717006e+001,-1.30834355787010e-001

1.26575659397028e+004,-1.83465567401711e+001,-1.32660727938581e-001

1.28342589756290e+004,-1.83465570161886e+001,-1.34512594982354e-001

1.30134185544193e+004,-1.83465572999657e+001,-1.36390312798853e-001

1.31950791077289e+004,-1.83465575917203e+001,-1.38294242238009e-001

1.33792755478611e+004,-1.83465578916768e+001,-1.40224749185573e-001

1.35660432744767e+004,-1.83465582000654e+001,-1.42182204636156e-001

1.37554181813974e+004,-1.83465585171236e+001,-1.44166984759048e-001

1.39474366635040e+004,-1.83465588430947e+001,-1.46179470977943e-001

1.41421356237309e+004,-1.83465591782295e+001,-1.48220050036642e-001

1.43395524801583e+004,-1.83465595227855e+001,-1.50289114080070e-001

1.45397251732031e+004,-1.83465598770276e+001,-1.52387060724242e-001

1.47426921729110e+004,-1.83465602412279e+001,-1.54514293137085e-001

1.49484924863494e+004,-1.83465606156663e+001,-1.56671220111841e-001

1.51571656651040e+004,-1.83465610006309e+001,-1.58858256147351e-001

1.53687518128801e+004,-1.83465613964174e+001,-1.61075821529179e-001

1.55832915932100e+004,-1.83465618033298e+001,-1.63324342408952e-001

1.58008262372675e+004,-1.83465622216809e+001,-1.65604250885005e-001

1.60213975517924e+004,-1.83465626517925e+001,-1.67915985085883e-001

1.62450479271247e+004,-1.83465630939950e+001,-1.70259989257072e-001

1.64718203453514e+004,-1.83465635486281e+001,-1.72636713843751e-001

1.67017583885674e+004,-1.83465640160415e+001,-1.75046615577367e-001

1.69349062472505e+004,-1.83465644965943e+001,-1.77490157563693e-001

1.71713087287550e+004,-1.83465649906558e+001,-1.79967809373514e-001

1.74110112659224e+004,-1.83465654986056e+001,-1.82480047130422e-001

1.76540599258131e+004,-1.83465660208341e+001,-1.85027353603141e-001

1.79005014185594e+004,-1.83465665577428e+001,-1.87610218296154e-001

1.81503831063432e+004,-1.83465671097442e+001,-1.90229137549430e-001

1.84037530124975e+004,-1.83465676772624e+001,-1.92884614628023e-001

1.86606598307361e+004,-1.83465682607337e+001,-1.95577159819994e-001

1.89211529345119e+004,-1.83465688606064e+001,-1.98307290536948e-001

1.91852823865052e+004,-1.83465694773415e+001,-2.01075531409422e-001

1.94530989482457e+004,-1.83465701114130e+001,-2.03882414391214e-001

1.97246540898671e+004,-1.83465707633081e+001,-2.06728478860099e-001

1.99999999999999e+004,-1.83465714335277e+001,-2.09614271720858e-001

2.02791895958005e+004,-1.83465721225868e+001,-2.12540347511037e-001

2.05622765331213e+004,-1.83465728310149e+001,-2.15507268506091e-001

2.08493152168224e+004,-1.83465735593566e+001,-2.18515604828551e-001

2.11403608112276e+004,-1.83465743081711e+001,-2.21565934559491e-001

2.14354692507258e+004,-1.83465750780341e+001,-2.24658843844567e-001

2.17346972505211e+004,-1.83465758695373e+001,-2.27794927009011e-001

2.20381023175322e+004,-1.83465766832883e+001,-2.30974786675310e-001

2.23457427614443e+004,-1.83465775199130e+001,-2.34199033870780e-001

2.26576777059159e+004,-1.83465783800537e+001,-2.37468288154278e-001

2.29739670999406e+004,-1.83465792643717e+001,-2.40783177725931e-001

2.32946717293690e+004,-1.83465801735461e+001,-2.44144339555555e-001

2.36198532285905e+004,-1.83465811082756e+001,-2.47552419499785e-001

2.39495740923785e+004,-1.83465820692782e+001,-2.51008072428506e-001

2.42838976879009e+004,-1.83465830572924e+001,-2.54511962348334e-001

2.46228882668982e+004,-1.83465840730771e+001,-2.58064762533289e-001

2.49666109780322e+004,-1.83465851174129e+001,-2.61667155649945e-001

2.53151318794055e+004,-1.83465861911018e+001,-2.65319833893632e-001

2.56685179512580e+004,-1.83465872949689e+001,-2.69023499114141e-001

2.60268371088386e+004,-1.83465884298621e+001,-2.72778862958438e-001

2.63901582154578e+004,-1.83465895966531e+001,-2.76586647000983e-001

2.67585510957221e+004,-1.83465907962384e+001,-2.80447582883583e-001

2.71320865489533e+004,-1.83465920295393e+001,-2.84362412459007e-001

2.75108363627948e+004,-1.83465932975033e+001,-2.88331887928785e-001

2.78948733270080e+004,-1.83465946011041e+001,-2.92356771990398e-001

2.82842712474618e+004,-1.83465959413433e+001,-2.96437837981440e-001

2.86791049603164e+004,-1.83465973192502e+001,-3.00575870030169e-001

2.90794503464061e+004,-1.83465987358832e+001,-3.04771663205115e-001

2.94853843458219e+004,-1.83466001923302e+001,-3.09026023665549e-001

2.98969849726987e+004,-1.83466016897098e+001,-3.13339768821038e-001

3.03143313302078e+004,-1.83466032291721e+001,-3.17713727480940e-001

3.07375036257601e+004,-1.83466048118993e+001,-3.22148740019203e-001

3.11665831864199e+004,-1.83466064391069e+001,-3.26645658534270e-001

3.16016524745350e+004,-1.83466081120445e+001,-3.31205347010281e-001

3.20427951035848e+004,-1.83466098319968e+001,-3.35828681483684e-001

3.24900958542493e+004,-1.83466116002845e+001,-3.40516550213701e-001

3.29436406907028e+004,-1.83466134182654e+001,-3.45269853848780e-001

3.34035167771346e+004,-1.83466152873355e+001,-3.50089505601063e-001

3.38698124945009e+004,-1.83466172089297e+001,-3.54976431421096e-001

3.43426174575100e+004,-1.83466191845236e+001,-3.59931570175035e-001

3.48220225318448e+004,-1.83466212156339e+001,-3.64955873825703e-001

3.53081198516260e+004,-1.83466233038200e+001,-3.70050307612653e-001

3.58010028371187e+004,-1.83466254506849e+001,-3.75215850239471e-001

3.63007662126863e+004,-1.83466276578768e+001,-3.80453494059844e-001

3.68075060249948e+004,-1.83466299270899e+001,-3.85764245268029e-001

3.73213196614721e+004,-1.83466322600661e+001,-3.91149124091826e-001

3.78423058690237e+004,-1.83466346585963e+001,-3.96609164986194e-001

3.83705647730104e+004,-1.83466371245213e+001,-4.02145416834700e-001

3.89061978964912e+004,-1.83466396597338e+001,-4.07758943146714e-001

3.94493081797342e+004,-1.83466422661794e+001,-4.13450822263583e-001

3.99999999999998e+004,-1.83466449458585e+001,-4.19222147563316e-001

4.05583791916010e+004,-1.83466477008275e+001,-4.25074027670975e-001

4.11245530662425e+004,-1.83466505332005e+001,-4.31007586669762e-001

4.16986304336447e+004,-1.83466534451506e+001,-4.37023964318395e-001

4.22807216224550e+004,-1.83466564389122e+001,-4.43124316265508e-001

4.28709385014515e+004,-1.83466595167823e+001,-4.49309814273907e-001

4.34693945010421e+004,-1.83466626811223e+001,-4.55581646442621e-001

4.40762046350642e+004,-1.83466659343595e+001,-4.61941017435969e-001

4.46914855228886e+004,-1.83466692789896e+001,-4.68389148711968e-001

4.53153554118317e+004,-1.83466727175782e+001,-4.74927278757181e-001

4.59479341998812e+004,-1.83466762527626e+001,-4.81556663323604e-001

4.65893434587380e+004,-1.83466798872541e+001,-4.88278575667296e-001

4.72397064571810e+004,-1.83466836238402e+001,-4.95094306792027e-001

4.78991481847569e+004,-1.83466874653863e+001,-5.02005165697986e-001

4.85677953758016e+004,-1.83466914148381e+001,-5.09012479628767e-001

4.92457765337964e+004,-1.83466954752237e+001,-5.16117594327776e-001

4.99332219560642e+004,-1.83466996496564e+001,-5.23321874292129e-001

5.06302637588109e+004,-1.83467039413363e+001,-5.30626703037075e-001

5.13370359025159e+004,-1.83467083535533e+001,-5.38033483355992e-001

5.20536742176771e+004,-1.83467128896895e+001,-5.45543637590588e-001

5.27803164309155e+004,-1.83467175532215e+001,-5.53158607902760e-001

5.35171021914442e+004,-1.83467223477236e+001,-5.60879856547035e-001

5.42641730979066e+004,-1.83467272768695e+001,-5.68708866153620e-001

5.50216727255895e+004,-1.83467323444366e+001,-5.76647140005778e-001

5.57897466540159e+004,-1.83467375543072e+001,-5.84696202332691e-001

5.65685424949235e+004,-1.83467429104728e+001,-5.92857598594202e-001

5.73582099206328e+004,-1.83467484170364e+001,-6.01132895778733e-001

5.81589006928121e+004,-1.83467540782156e+001,-6.09523682702241e-001

5.89707686916437e+004,-1.83467598983462e+001,-6.18031570307963e-001

5.97939699453972e+004,-1.83467658818853e+001,-6.26658191976421e-001

6.06286626604156e+004,-1.83467720334146e+001,-6.35405203833217e-001

6.14750072515201e+004,-1.83467783576437e+001,-6.44274285068095e-001

6.23331663728396e+004,-1.83467848594141e+001,-6.53267138251475e-001

6.32033049490698e+004,-1.83467915437025e+001,-6.62385489658511e-001

6.40855902071694e+004,-1.83467984156249e+001,-6.71631089599364e-001

6.49801917084985e+004,-1.83468054804397e+001,-6.81005712751608e-001

6.58872813814055e+004,-1.83468127435530e+001,-6.90511158493693e-001

6.68070335542691e+004,-1.83468202105213e+001,-7.00149251253709e-001

6.77396249890018e+004,-1.83468278870566e+001,-7.09921840849695e-001

6.86852349150199e+004,-1.83468357790300e+001,-7.19830802845230e-001

6.96440450636895e+004,-1.83468438924771e+001,-7.29878038901864e-001

7.06162397032520e+004,-1.83468522336013e+001,-7.40065477144238e-001

7.16020056742374e+004,-1.83468608087797e+001,-7.50395072521576e-001

7.26015324253724e+004,-1.83468696245669e+001,-7.60868807181507e-001

7.36150120499896e+004,-1.83468786877006e+001,-7.71488690843969e-001

7.46426393229441e+004,-1.83468880051063e+001,-7.82256761183598e-001

7.56846117380472e+004,-1.83468975839025e+001,-7.93175084214717e-001

7.67411295460207e+004,-1.83469074314062e+001,-8.04245754682581e-001

7.78123957929823e+004,-1.83469175551385e+001,-8.15470896459613e-001

7.88986163594682e+004,-1.83469279628296e+001,-8.26852662948836e-001

7.99999999999995e+004,-1.83469386624255e+001,-8.38393237489076e-001

8.11167583832018e+004,-1.83469496620933e+001,-8.50094833768432e-001

8.22491061324848e+004,-1.83469609702273e+001,-8.61959696243441e-001

8.33972608672892e+004,-1.83469725954557e+001,-8.73990100561932e-001

8.45614432449099e+004,-1.83469845466464e+001,-8.86188353992822e-001

8.57418770029029e+004,-1.83469968329145e+001,-8.98556795860544e-001

8.69387890020841e+004,-1.83470094636281e+001,-9.11097797988717e-001

8.81524092701283e+004,-1.83470224484160e+001,-9.23813765144526e-001

8.93829710457770e+004,-1.83470357971745e+001,-9.36707135493076e-001

9.06307108236633e+004,-1.83470495200748e+001,-9.49780381056021e-001

9.18958683997622e+004,-1.83470636275706e+001,-9.63036008177387e-001

9.31786869174758e+004,-1.83470781304058e+001,-9.76476557993505e-001

9.44794129143618e+004,-1.83470930396226e+001,-9.90104606912950e-001

9.57982963695136e+004,-1.83471083665694e+001,-1.00392276709699e+000

9.71355907516031e+004,-1.83471241229094e+001,-1.01793368695378e+000

9.84915530675926e+004,-1.83471403206291e+001,-1.03214005163269e+000

9.98664439121282e+004,-1.83471569720472e+001,-1.04654458352870e+000

1.01260527517622e+005,-1.83471740898234e+001,-1.06115004279191e+000

1.02674071805032e+005,-1.83471916869683e+001,-1.07595922784435e+000

1.04107348435354e+005,-1.83472097768524e+001,-1.09097497590405e+000

1.05560632861831e+005,-1.83472283732161e+001,-1.10620016351563e+000

1.07034204382888e+005,-1.83472474901796e+001,-1.12163770708668e+000

1.08528346195813e+005,-1.83472671422536e+001,-1.13729056343192e+000

1.10043345451179e+005,-1.83472873443496e+001,-1.15316173032741e+000

1.11579493308032e+005,-1.83473081117908e+001,-1.16925424706454e+000

1.13137084989847e+005,-1.83473294603234e+001,-1.18557119502185e+000

1.14716419841265e+005,-1.83473514061277e+001,-1.20211569823271e+000

1.16317801385624e+005,-1.83473739658305e+001,-1.21889092396964e+000

1.17941537383287e+005,-1.83473971565164e+001,-1.23590008333125e+000

1.19587939890794e+005,-1.83474209957405e+001,-1.25314643183905e+000

1.21257325320831e+005,-1.83474455015413e+001,-1.27063327003926e+000

1.22950014503040e+005,-1.83474706924534e+001,-1.28836394411568e+000

1.24666332745679e+005,-1.83474965875207e+001,-1.30634184650808e+000

1.26406609898139e+005,-1.83475232063105e+001,-1.32457041653917e+000

1.28171180414339e+005,-1.83475505689275e+001,-1.34305314105025e+000

1.29960383416997e+005,-1.83475786960276e+001,-1.36179355504381e+000

1.31774562762811e+005,-1.83476076088333e+001,-1.38079524233489e+000

1.33614067108538e+005,-1.83476373291486e+001,-1.40006183621092e+000

1.35479249978003e+005,-1.83476678793744e+001,-1.41959702009939e+000

1.37370469830040e+005,-1.83476992825244e+001,-1.43940452824437e+000

1.39288090127379e+005,-1.83477315622417e+001,-1.45948814639084e+000

1.41232479406504e+005,-1.83477647428150e+001,-1.47985171247890e+000

1.43204011348474e+005,-1.83477988491961e+001,-1.50049911734559e+000

1.45203064850745e+005,-1.83478339070174e+001,-1.52143430543558e+000

1.47230024099979e+005,-1.83478699426096e+001,-1.54266127552034e+000

1.49285278645888e+005,-1.83479069830204e+001,-1.56418408142828e+000

1.51369223476094e+005,-1.83479450560331e+001,-1.58600683278103e+000

1.53482259092041e+005,-1.83479841901864e+001,-1.60813369574042e+000

1.55624791585964e+005,-1.83480244147934e+001,-1.63056889376528e+000

1.57797232718936e+005,-1.83480657599627e+001,-1.65331670837528e+000

1.59999999999999e+005,-1.83481082566185e+001,-1.67638147992670e+000

1.62233516766403e+005,-1.83481519365224e+001,-1.69976760839545e+000

1.64498212264969e+005,-1.83481968322946e+001,-1.72347955417082e+000

1.66794521734578e+005,-1.83482429774367e+001,-1.74752183885864e+000

1.69122886489819e+005,-1.83482904063541e+001,-1.77189904609367e+000

1.71483754005805e+005,-1.83483391543796e+001,-1.79661582236314e+000

1.73877578004168e+005,-1.83483892577971e+001,-1.82167687783734e+000

1.76304818540256e+005,-1.83484407538661e+001,-1.84708698721287e+000

1.78765942091554e+005,-1.83484936808467e+001,-1.87285099056495e+000

1.81261421647326e+005,-1.83485480780252e+001,-1.89897379420928e+000

1.83791736799524e+005,-1.83486039857401e+001,-1.92546037157466e+000

1.86357373834951e+005,-1.83486614454091e+001,-1.95231576408568e+000

1.88958825828723e+005,-1.83487204995561e+001,-1.97954508205575e+000

1.91596592739027e+005,-1.83487811918395e+001,-2.00715350559040e+000

1.94271181503206e+005,-1.83488435670806e+001,-2.03514628550086e+000

1.96983106135185e+005,-1.83489076712926e+001,-2.06352874422938e+000

1.99732887824256e+005,-1.83489735517109e+001,-2.09230627678278e+000

2.02521055035243e+005,-1.83490412568230e+001,-2.12148435167996e+000

2.05348143610063e+005,-1.83491108364003e+001,-2.15106851190651e+000

2.08214696870707e+005,-1.83491823415292e+001,-2.18106437588391e+000

2.11121265723661e+005,-1.83492558246441e+001,-2.21147763844640e+000

2.14068408765776e+005,-1.83493313395603e+001,-2.24231407183056e+000

2.17056692391625e+005,-1.83494089415078e+001,-2.27357952667677e+000

2.20086690902357e+005,-1.83494886871659e+001,-2.30527993303904e+000

2.23158986616063e+005,-1.83495706346983e+001,-2.33742130140934e+000

2.26274169979693e+005,-1.83496548437893e+001,-2.37000972375029e+000

2.29432839682530e+005,-1.83497413756800e+001,-2.40305137454179e+000

2.32635602771247e+005,-1.83498302932062e+001,-2.43655251183701e+000

2.35883074766574e+005,-1.83499216608358e+001,-2.47051947833197e+000

2.39175879781588e+005,-1.83500155447082e+001,-2.50495870244419e+000

2.42514650641661e+005,-1.83501120126736e+001,-2.53987669940496e+000

2.45900029006080e+005,-1.83502111343331e+001,-2.57528007236409e+000

2.49332665491357e+005,-1.83503129810798e+001,-2.61117551350348e+000

2.52813219796278e+005,-1.83504176261409e+001,-2.64756980516525e+000

2.56342360828676e+005,-1.83505251446196e+001,-2.68446982099125e+000

2.59920766833993e+005,-1.83506356135388e+001,-2.72188252707416e+000

2.63549125525621e+005,-1.83507491118847e+001,-2.75981498312087e+000

2.67228134217075e+005,-1.83508657206519e+001,-2.79827434362938e+000

2.70958499956006e+005,-1.83509855228884e+001,-2.83726785907559e+000

2.74740939660078e+005,-1.83511086037424e+001,-2.87680287711516e+000

2.78576180254757e+005,-1.83512350505086e+001,-2.91688684379646e+000

2.82464958813007e+005,-1.83513649526763e+001,-2.95752730478594e+000

2.86408022696948e+005,-1.83514984019778e+001,-2.99873190660787e+000

2.90406129701488e+005,-1.83516354924372e+001,-3.04050839789503e+000

2.94460048199957e+005,-1.83517763204206e+001,-3.08286463065377e+000

2.98570557291775e+005,-1.83519209846865e+001,-3.12580856154154e+000

3.02738446952187e+005,-1.83520695864370e+001,-3.16934825315759e+000

3.06964518184081e+005,-1.83522222293699e+001,-3.21349187534799e+000

3.11249583171928e+005,-1.83523790197313e+001,-3.25824770652277e+000

3.15594465437872e+005,-1.83525400663689e+001,-3.30362413498796e+000

3.19999999999997e+005,-1.83527054807859e+001,-3.34962966029063e+000

3.24467033532806e+005,-1.83528753771956e+001,-3.39627289457844e+000

3.28996424529938e+005,-1.83530498725770e+001,-3.44356256397333e+000

3.33589043469155e+005,-1.83532290867300e+001,-3.49150750995922e+000

3.38245772979638e+005,-1.83534131423324e+001,-3.54011669078515e+000

3.42967508011610e+005,-1.83536021649969e+001,-3.58939918288175e+000

3.47755156008335e+005,-1.83537962833283e+001,-3.63936418229422e+000

3.52609637080511e+005,-1.83539956289820e+001,-3.69002100613079e+000

3.57531884183106e+005,-1.83542003367225e+001,-3.74137909402428e+000

3.62522843294651e+005,-1.83544105444827e+001,-3.79344800961305e+000

3.67583473599047e+005,-1.83546263934230e+001,-3.84623744203498e+000

3.72714747669902e+005,-1.83548480279923e+001,-3.89975720743965e+000

3.77917651657445e+005,-1.83550755959876e+001,-3.95401725051710e+000

3.83193185478053e+005,-1.83553092486152e+001,-4.00902764604360e+000

3.88542363006410e+005,-1.83555491405522e+001,-4.06479860044465e+000

3.93966212270369e+005,-1.83557954300077e+001,-4.12134045337605e+000

3.99465775648511e+005,-1.83560482787849e+001,-4.17866367932458e+000

4.05042110070485e+005,-1.83563078523437e+001,-4.23677888922546e+000

4.10696287220124e+005,-1.83565743198622e+001,-4.29569683210101e+000

4.16429393741414e+005,-1.83568478543006e+001,-4.35542839671858e+000

4.22242531447321e+005,-1.83571286324632e+001,-4.41598461326881e+000

4.28136817531551e+005,-1.83574168350620e+001,-4.47737665506481e+000

4.34113384783250e+005,-1.83577126467799e+001,-4.53961584026346e+000

4.40173381804713e+005,-1.83580162563341e+001,-4.60271363360945e+000

4.46317973232124e+005,-1.83583278565396e+001,-4.66668164820140e+000

4.52548339959385e+005,-1.83586476443728e+001,-4.73153164728227e+000

4.58865679365059e+005,-1.83589758210355e+001,-4.79727554605477e+000

4.65271205542494e+005,-1.83593125920181e+001,-4.86392541352148e+000

4.71766149533147e+005,-1.83596581671642e+001,-4.93149347435170e+000

4.78351759563174e+005,-1.83600127607340e+001,-4.99999211077528e+000

4.85029301283321e+005,-1.83603765914680e+001,-5.06943386450551e+000

4.91800058012158e+005,-1.83607498826518e+001,-5.13983143868922e+000

4.98665330982714e+005,-1.83611328621789e+001,-5.21119769988942e+000

5.05626439592555e+005,-1.83615257626161e+001,-5.28354568009731e+000

5.12684721657352e+005,-1.83619288212664e+001,-5.35688857877795e+000

5.19841533667984e+005,-1.83623422802340e+001,-5.43123976494940e+000

5.27098251051240e+005,-1.83627663864882e+001,-5.50661277929629e+000

5.34456268434150e+005,-1.83632013919282e+001,-5.58302133631974e+000

5.41916999912011e+005,-1.83636475534476e+001,-5.66047932652517e+000

