Freq.,VOut,OutRef

1.00000000000000e+004,-2.09791976606264e+001,-1.86903128436020e-001

1.01395947979003e+004,-2.09791981268089e+001,-1.89512192226943e-001

1.02811382665607e+004,-2.09791986060972e+001,-1.92157676909451e-001

1.04246576084112e+004,-2.09791990988599e+001,-1.94840090887438e-001

1.05701804056138e+004,-2.09791996054760e+001,-1.97559949660950e-001

1.07177346253629e+004,-2.09792001263346e+001,-2.00317775928947e-001

1.08673486252606e+004,-2.09792006618362e+001,-2.03114099683342e-001

1.10190511587661e+004,-2.09792012123924e+001,-2.05949458315280e-001

1.11728713807222e+004,-2.09792017784266e+001,-2.08824396715722e-001

1.13288388529580e+004,-2.09792023603738e+001,-2.11739467383016e-001

1.14869835499703e+004,-2.09792029586815e+001,-2.14695230525475e-001

1.16473358646846e+004,-2.09792035738094e+001,-2.17692254173847e-001

1.18099266142953e+004,-2.09792042062305e+001,-2.20731114285238e-001

1.19747870461893e+004,-2.09792048564310e+001,-2.23812394856016e-001

1.21419488439505e+004,-2.09792055249107e+001,-2.26936688035642e-001

1.23114441334492e+004,-2.09792062121833e+001,-2.30104594237847e-001

1.24833054890161e+004,-2.09792069187773e+001,-2.33316722256819e-001

1.26575659397028e+004,-2.09792076452359e+001,-2.36573689384699e-001

1.28342589756290e+004,-2.09792083921174e+001,-2.39876121529529e-001

1.30134185544193e+004,-2.09792091599960e+001,-2.43224653336531e-001

1.31950791077289e+004,-2.09792099494619e+001,-2.46619928308963e-001

1.33792755478611e+004,-2.09792107611221e+001,-2.50062598930694e-001

1.35660432744767e+004,-2.09792115956005e+001,-2.53553326794022e-001

1.37554181813974e+004,-2.09792124535383e+001,-2.57092782726895e-001

1.39474366635040e+004,-2.09792133355955e+001,-2.60681646916980e-001

1.41421356237309e+004,-2.09792142424497e+001,-2.64320609049854e-001

1.43395524801583e+004,-2.09792151747981e+001,-2.68010368434323e-001

1.45397251732031e+004,-2.09792161333575e+001,-2.71751634141550e-001

1.47426921729110e+004,-2.09792171188646e+001,-2.75545125138960e-001

1.49484924863494e+004,-2.09792181320771e+001,-2.79391570428304e-001

1.51571656651040e+004,-2.09792191737737e+001,-2.83291709188657e-001

1.53687518128801e+004,-2.09792202447553e+001,-2.87246290912834e-001

1.55832915932100e+004,-2.09792213458449e+001,-2.91256075557676e-001

1.58008262372675e+004,-2.09792224778891e+001,-2.95321833684878e-001

1.60213975517924e+004,-2.09792236417579e+001,-2.99444346611366e-001

1.62450479271247e+004,-2.09792248383461e+001,-3.03624406559523e-001

1.64718203453514e+004,-2.09792260685734e+001,-3.07862816808377e-001

1.67017583885674e+004,-2.09792273333854e+001,-3.12160391848767e-001

1.69349062472505e+004,-2.09792286337544e+001,-3.16517957538087e-001

1.71713087287550e+004,-2.09792299706799e+001,-3.20936351262168e-001

1.74110112659224e+004,-2.09792313451896e+001,-3.25416422091680e-001

1.76540599258131e+004,-2.09792327583399e+001,-3.29959030949745e-001

1.79005014185594e+004,-2.09792342112170e+001,-3.34565050773963e-001

1.81503831063432e+004,-2.09792357049378e+001,-3.39235366683905e-001

1.84037530124975e+004,-2.09792372406504e+001,-3.43970876154619e-001

1.86606598307361e+004,-2.09792388195351e+001,-3.48772489185865e-001

1.89211529345119e+004,-2.09792404428057e+001,-3.53641128475514e-001

1.91852823865052e+004,-2.09792421117097e+001,-3.58577729601851e-001

1.94530989482457e+004,-2.09792438275299e+001,-3.63583241199108e-001

1.97246540898671e+004,-2.09792455915851e+001,-3.68658625139875e-001

1.99999999999999e+004,-2.09792474052313e+001,-3.73804856720454e-001

2.02791895958005e+004,-2.09792492698625e+001,-3.79022924849787e-001

2.05622765331213e+004,-2.09792511869118e+001,-3.84313832235473e-001

2.08493152168224e+004,-2.09792531578526e+001,-3.89678595581587e-001

2.11403608112276e+004,-2.09792551841999e+001,-3.95118245776858e-001

2.14354692507258e+004,-2.09792572675111e+001,-4.00633828099824e-001

2.17346972505211e+004,-2.09792594093873e+001,-4.06226402414792e-001

2.20381023175322e+004,-2.09792616114750e+001,-4.11897043375743e-001

2.23457427614443e+004,-2.09792638754664e+001,-4.17646840635180e-001

2.26576777059159e+004,-2.09792662031017e+001,-4.23476899050378e-001

2.29739670999406e+004,-2.09792685961698e+001,-4.29388338897152e-001

2.32946717293690e+004,-2.09792710565099e+001,-4.35382296083844e-001

2.36198532285905e+004,-2.09792735860130e+001,-4.41459922370589e-001

2.39495740923785e+004,-2.09792761866232e+001,-4.47622385588305e-001

2.42838976879009e+004,-2.09792788603390e+001,-4.53870869866138e-001

2.46228882668982e+004,-2.09792816092154e+001,-4.60206575854724e-001

2.49666109780322e+004,-2.09792844353650e+001,-4.66630720958772e-001

2.53151318794055e+004,-2.09792873409597e+001,-4.73144539571118e-001

2.56685179512580e+004,-2.09792903282326e+001,-4.79749283307907e-001

2.60268371088386e+004,-2.09792933994794e+001,-4.86446221250197e-001

2.63901582154578e+004,-2.09792965570604e+001,-4.93236640186690e-001

2.67585510957221e+004,-2.09792998034022e+001,-5.00121844860852e-001

2.71320865489533e+004,-2.09793031409996e+001,-5.07103158220981e-001

2.75108363627948e+004,-2.09793065724174e+001,-5.14181921673902e-001

2.78948733270080e+004,-2.09793101002927e+001,-5.21359495342306e-001

2.82842712474618e+004,-2.09793137273364e+001,-5.28637258326022e-001

2.86791049603164e+004,-2.09793174563359e+001,-5.36016608966342e-001

2.90794503464061e+004,-2.09793212901565e+001,-5.43498965114810e-001

2.94853843458219e+004,-2.09793252317446e+001,-5.51085764402117e-001

2.98969849726987e+004,-2.09793292841287e+001,-5.58778464518261e-001

3.03143313302078e+004,-2.09793334504229e+001,-5.66578543488950e-001

3.07375036257601e+004,-2.09793377338287e+001,-5.74487499959731e-001

3.11665831864199e+004,-2.09793421376373e+001,-5.82506853483798e-001

3.16016524745350e+004,-2.09793466652327e+001,-5.90638144812964e-001

3.20427951035848e+004,-2.09793513200936e+001,-5.98882936192630e-001

3.24900958542493e+004,-2.09793561057969e+001,-6.07242811661294e-001

3.29436406907028e+004,-2.09793610260196e+001,-6.15719377354988e-001

3.34035167771346e+004,-2.09793660845421e+001,-6.24314261815252e-001

3.38698124945009e+004,-2.09793712852511e+001,-6.33029116298629e-001

3.43426174575100e+004,-2.09793766321424e+001,-6.41865615095905e-001

3.48220225318448e+004,-2.09793821293241e+001,-6.50825455852196e-001

3.53081198516260e+004,-2.09793877810195e+001,-6.59910359892063e-001

3.58010028371187e+004,-2.09793935915708e+001,-6.69122072548238e-001

3.63007662126863e+004,-2.09793995654421e+001,-6.78462363496794e-001

3.68075060249948e+004,-2.09794057072228e+001,-6.87933027097321e-001

3.73213196614721e+004,-2.09794120216312e+001,-6.97535882734729e-001

3.78423058690237e+004,-2.09794185135183e+001,-7.07272775167250e-001

3.83705647730104e+004,-2.09794251878712e+001,-7.17145574882396e-001

3.89061978964912e+004,-2.09794320498170e+001,-7.27156178452551e-001

3.94493081797342e+004,-2.09794391046269e+001,-7.37306508898735e-001

3.99999999999998e+004,-2.09794463577201e+001,-7.47598516058879e-001

4.05583791916010e+004,-2.09794538146682e+001,-7.58034176961226e-001

4.11245530662425e+004,-2.09794614811988e+001,-7.68615496201951e-001

4.16986304336447e+004,-2.09794693632008e+001,-7.79344506330127e-001

4.22807216224550e+004,-2.09794774667283e+001,-7.90223268233746e-001

4.28709385014515e+004,-2.09794857980051e+001,-8.01253871538487e-001

4.34693945010421e+004,-2.09794943634303e+001,-8.12438435002965e-001

4.40762046350642e+004,-2.09795031695822e+001,-8.23779106925970e-001

4.46914855228886e+004,-2.09795122232241e+001,-8.35278065557664e-001

4.53153554118317e+004,-2.09795215313090e+001,-8.46937519515033e-001

4.59479341998812e+004,-2.09795311009852e+001,-8.58759708204295e-001

4.65893434587380e+004,-2.09795409396017e+001,-8.70746902250180e-001

4.72397064571810e+004,-2.09795510547137e+001,-8.82901403927487e-001

4.78991481847569e+004,-2.09795614540885e+001,-8.95225547603899e-001

4.85677953758016e+004,-2.09795721457114e+001,-9.07721700183217e-001

4.92457765337964e+004,-2.09795831377920e+001,-9.20392261559512e-001

4.99332219560642e+004,-2.09795944387703e+001,-9.33239665073606e-001

5.06302637588109e+004,-2.09796060573229e+001,-9.46266377980180e-001

5.13370359025159e+004,-2.09796180023701e+001,-9.59474901917067e-001

5.20536742176771e+004,-2.09796302830826e+001,-9.72867773382299e-001

5.27803164309155e+004,-2.09796429088885e+001,-9.86447564219420e-001

5.35171021914442e+004,-2.09796558894800e+001,-1.00021688210876e+000

5.42641730979066e+004,-2.09796692348218e+001,-1.01417837106286e+000

5.50216727255895e+004,-2.09796829551580e+001,-1.02833471193214e+000

5.57897466540159e+004,-2.09796970610199e+001,-1.04268862291617e+000

5.65685424949235e+004,-2.09797115632345e+001,-1.05724286008112e+000

5.73582099206328e+004,-2.09797264729325e+001,-1.07200021788595e+000

5.81589006928121e+004,-2.09797418015566e+001,-1.08696352971455e+000

5.89707686916437e+004,-2.09797575608708e+001,-1.10213566841467e+000

5.97939699453972e+004,-2.09797737629687e+001,-1.11751954684733e+000

6.06286626604156e+004,-2.09797904202833e+001,-1.13311811843863e+000

6.14750072515201e+004,-2.09798075455963e+001,-1.14893437774483e+000

6.23331663728396e+004,-2.09798251520474e+001,-1.16497136102037e+000

6.32033049490698e+004,-2.09798432531454e+001,-1.18123214679571e+000

6.40855902071694e+004,-2.09798618627772e+001,-1.19771985646435e+000

6.49801917084985e+004,-2.09798809952195e+001,-1.21443765487464e+000

6.58872813814055e+004,-2.09799006651489e+001,-1.23138875093271e+000

6.68070335542691e+004,-2.09799208876536e+001,-1.24857639821144e+000

6.77396249890018e+004,-2.09799416782446e+001,-1.26600389556909e+000

6.86852349150199e+004,-2.09799630528676e+001,-1.28367458777679e+000

6.96440450636895e+004,-2.09799850279152e+001,-1.30159186615113e+000

7.06162397032520e+004,-2.09800076202393e+001,-1.31975916919993e+000

7.16020056742374e+004,-2.09800308471640e+001,-1.33817998327443e+000

7.26015324253724e+004,-2.09800547264987e+001,-1.35685784322927e+000

7.36150120499896e+004,-2.09800792765518e+001,-1.37579633309437e+000

7.46426393229441e+004,-2.09801045161443e+001,-1.39499908675325e+000

7.56846117380472e+004,-2.09801304646246e+001,-1.41446978863127e+000

7.67411295460207e+004,-2.09801571418828e+001,-1.43421217439414e+000

7.78123957929823e+004,-2.09801845683660e+001,-1.45423003165430e+000

7.88986163594682e+004,-2.09802127650935e+001,-1.47452720068876e+000

7.99999999999995e+004,-2.09802417536735e+001,-1.49510757516382e+000

8.11167583832018e+004,-2.09802715563187e+001,-1.51597510287278e+000

8.22491061324848e+004,-2.09803021958638e+001,-1.53713378648051e+000

8.33972608672892e+004,-2.09803336957822e+001,-1.55858768428118e+000

8.45614432449099e+004,-2.09803660802042e+001,-1.58034091096258e+000

8.57418770029029e+004,-2.09803993739353e+001,-1.60239763838417e+000

8.69387890020841e+004,-2.09804336024748e+001,-1.62476209636242e+000

8.81524092701283e+004,-2.09804687920354e+001,-1.64743857346918e+000

8.93829710457770e+004,-2.09805049695626e+001,-1.67043141783985e+000

9.06307108236633e+004,-2.09805421627556e+001,-1.69374503799042e+000

9.18958683997622e+004,-2.09805804000877e+001,-1.71738390364914e+000

9.31786869174758e+004,-2.09806197108284e+001,-1.74135254659585e+000

9.44794129143618e+004,-2.09806601250650e+001,-1.76565556151498e+000

9.57982963695136e+004,-2.09807016737258e+001,-1.79029760685711e+000

9.71355907516031e+004,-2.09807443886029e+001,-1.81528340571504e+000

9.84915530675926e+004,-2.09807883023770e+001,-1.84061774670802e+000

9.98664439121282e+004,-2.09808334486410e+001,-1.86630548488205e+000

1.01260527517622e+005,-2.09808798619262e+001,-1.89235154261747e+000

1.02674071805032e+005,-2.09809275777279e+001,-1.91876091055115e+000

1.04107348435354e+005,-2.09809766325322e+001,-1.94553864851087e+000

1.05560632861831e+005,-2.09810270638436e+001,-1.97268988645943e+000

1.07034204382888e+005,-2.09810789102127e+001,-2.00021982545563e+000

1.08528346195813e+005,-2.09811322112660e+001,-2.02813373862213e+000

1.10043345451179e+005,-2.09811870077348e+001,-2.05643697213189e+000

1.11579493308032e+005,-2.09812433414866e+001,-2.08513494620208e+000

1.13137084989847e+005,-2.09813012555558e+001,-2.11423315610402e+000

1.14716419841265e+005,-2.09813607941763e+001,-2.14373717318637e+000

1.16317801385624e+005,-2.09814220028147e+001,-2.17365264590976e+000

1.17941537383287e+005,-2.09814849282040e+001,-2.20398530089557e+000

1.19587939890794e+005,-2.09815496183790e+001,-2.23474094398877e+000

1.21257325320831e+005,-2.09816161227119e+001,-2.26592546133429e+000

1.22950014503040e+005,-2.09816844919492e+001,-2.29754482046594e+000

1.24666332745679e+005,-2.09817547782498e+001,-2.32960507141072e+000

1.26406609898139e+005,-2.09818270352236e+001,-2.36211234780693e+000

1.28171180414339e+005,-2.09819013179716e+001,-2.39507286803554e+000

1.29960383416997e+005,-2.09819776831267e+001,-2.42849293636794e+000

1.31774562762811e+005,-2.09820561888965e+001,-2.46237894412492e+000

1.33614067108538e+005,-2.09821368951054e+001,-2.49673737085461e+000

1.35479249978003e+005,-2.09822198632402e+001,-2.53157478552085e+000

1.37370469830040e+005,-2.09823051564951e+001,-2.56689784770967e+000

1.39288090127379e+005,-2.09823928398183e+001,-2.60271330885033e+000

1.41232479406504e+005,-2.09824829799606e+001,-2.63902801344895e+000

1.43204011348474e+005,-2.09825756455246e+001,-2.67584890034147e+000

1.45203064850745e+005,-2.09826709070151e+001,-2.71318300395966e+000

1.47230024099979e+005,-2.09827688368915e+001,-2.75103745561313e+000

1.49285278645888e+005,-2.09828695096209e+001,-2.78941948478692e+000

1.51369223476094e+005,-2.09829730017333e+001,-2.82833642045612e+000

1.53482259092041e+005,-2.09830793918772e+001,-2.86779569241589e+000

1.55624791585964e+005,-2.09831887608782e+001,-2.90780483262713e+000

1.57797232718936e+005,-2.09833011917977e+001,-2.94837147657882e+000

1.59999999999999e+005,-2.09834167699938e+001,-2.98950336466792e+000

1.62233516766403e+005,-2.09835355831840e+001,-3.03120834359377e+000

1.64498212264969e+005,-2.09836577215093e+001,-3.07349436777132e+000

1.66794521734578e+005,-2.09837832775995e+001,-3.11636950075989e+000

1.69122886489819e+005,-2.09839123466412e+001,-3.15984191670883e+000

1.71483754005805e+005,-2.09840450264468e+001,-3.20391990182176e+000

1.73877578004168e+005,-2.09841814175258e+001,-3.24861185583612e+000

1.76304818540256e+005,-2.09843216231572e+001,-3.29392629352117e+000

1.78765942091554e+005,-2.09844657494649e+001,-3.33987184619399e+000

1.81261421647326e+005,-2.09846139054939e+001,-3.38645726325098e+000

1.83791736799524e+005,-2.09847662032895e+001,-3.43369141371940e+000

1.86357373834951e+005,-2.09849227579777e+001,-3.48158328782519e+000

1.88958825828723e+005,-2.09850836878481e+001,-3.53014199857988e+000

1.91596592739027e+005,-2.09852491144388e+001,-3.57937678338384e+000

1.94271181503206e+005,-2.09854191626239e+001,-3.62929700564941e+000

1.96983106135185e+005,-2.09855939607021e+001,-3.67991215644082e+000

1.99732887824256e+005,-2.09857736404892e+001,-3.73123185613372e+000

2.02521055035243e+005,-2.09859583374111e+001,-3.78326585609203e+000

2.05348143610063e+005,-2.09861481906011e+001,-3.83602404036311e+000

2.08214696870707e+005,-2.09863433429980e+001,-3.88951642739309e+000

2.11121265723661e+005,-2.09865439414474e+001,-3.94375317175887e+000

2.14068408765776e+005,-2.09867501368058e+001,-3.99874456592021e+000

2.17056692391625e+005,-2.09869620840467e+001,-4.05450104198945e+000

2.20086690902357e+005,-2.09871799423699e+001,-4.11103317352120e+000

2.23158986616063e+005,-2.09874038753129e+001,-4.16835167731993e+000

2.26274169979693e+005,-2.09876340508659e+001,-4.22646741526722e+000

2.29432839682530e+005,-2.09878706415888e+001,-4.28539139616784e+000

2.32635602771247e+005,-2.09881138247315e+001,-4.34513477761397e+000

2.35883074766574e+005,-2.09883637823573e+001,-4.40570886786969e+000

2.39175879781588e+005,-2.09886207014690e+001,-4.46712512777419e+000

2.42514650641661e+005,-2.09888847741382e+001,-4.52939517266372e+000

2.45900029006080e+005,-2.09891561976380e+001,-4.59253077431265e+000

2.49332665491357e+005,-2.09894351745780e+001,-4.65654386289434e+000

2.52813219796278e+005,-2.09897219130441e+001,-4.72144652896043e+000

2.56342360828676e+005,-2.09900166267403e+001,-4.78725102543958e+000

2.59920766833993e+005,-2.09903195351341e+001,-4.85396976965547e+000

2.63549125525621e+005,-2.09906308636066e+001,-4.92161534536310e+000

2.67228134217075e+005,-2.09909508436040e+001,-4.99020050480580e+000

2.70958499956006e+005,-2.09912797127950e+001,-5.05973817078922e+000

2.74740939660078e+005,-2.09916177152299e+001,-5.13024143877653e+000

2.78576180254757e+005,-2.09919651015050e+001,-5.20172357900049e+000

2.82464958813007e+005,-2.09923221289298e+001,-5.27419803859608e+000

2.86408022696948e+005,-2.09926890616988e+001,-5.34767844375104e+000

2.90406129701488e+005,-2.09930661710663e+001,-5.42217860187562e+000

2.94460048199957e+005,-2.09934537355268e+001,-5.49771250379130e+000

2.98570557291775e+005,-2.09938520409977e+001,-5.57429432593727e+000

3.02738446952187e+005,-2.09942613810076e+001,-5.65193843259630e+000

3.06964518184081e+005,-2.09946820568882e+001,-5.73065937813929e+000

3.11249583171928e+005,-2.09951143779708e+001,-5.81047190928687e+000

3.15594465437872e+005,-2.09955586617870e+001,-5.89139096739086e+000

3.19999999999997e+005,-2.09960152342737e+001,-5.97343169073282e+000

3.24467033532806e+005,-2.09964844299838e+001,-6.05660941684073e+000

3.28996424529938e+005,-2.09969665922999e+001,-6.14093968482460e+000

3.33589043469155e+005,-2.09974620736538e+001,-6.22643823772807e+000

3.38245772979638e+005,-2.09979712357511e+001,-6.31312102489898e+000

3.42967508011610e+005,-2.09984944497991e+001,-6.40100420437726e+000

3.47755156008335e+005,-2.09990320967419e+001,-6.49010414529960e+000

3.52609637080511e+005,-2.09995845674985e+001,-6.58043743032158e+000

3.57531884183106e+005,-2.10001522632074e+001,-6.67202085805709e+000

3.62522843294651e+005,-2.10007355954757e+001,-6.76487144553382e+000

3.67583473599047e+005,-2.10013349866340e+001,-6.85900643066609e+000

3.72714747669902e+005,-2.10019508699963e+001,-6.95444327474386e+000

3.77917651657445e+005,-2.10025836901254e+001,-7.05119966493811e+000

3.83193185478053e+005,-2.10032339031042e+001,-7.14929351682191e+000

3.88542363006410e+005,-2.10039019768124e+001,-7.24874297690840e+000

3.93966212270369e+005,-2.10045883912087e+001,-7.34956642520289e+000

3.99465775648511e+005,-2.10052936386197e+001,-7.45178247777196e+000

4.05042110070485e+005,-2.10060182240336e+001,-7.55540998932670e+000

4.10696287220124e+005,-2.10067626654005e+001,-7.66046805582218e+000

4.16429393741414e+005,-2.10075274939394e+001,-7.76697601707039e+000

4.22242531447321e+005,-2.10083132544500e+001,-7.87495345936879e+000

4.28136817531551e+005,-2.10091205056320e+001,-7.98442021814373e+000

4.34113384783250e+005,-2.10099498204107e+001,-8.09539638060584e+000

4.40173381804713e+005,-2.10108017862682e+001,-8.20790228842234e+000

4.46317973232124e+005,-2.10116770055828e+001,-8.32195854040122e+000

4.52548339959385e+005,-2.10125760959733e+001,-8.43758599518918e+000

4.58865679365059e+005,-2.10134996906518e+001,-8.55480577398331e+000

4.65271205542494e+005,-2.10144484387827e+001,-8.67363926325533e+000

4.71766149533147e+005,-2.10154230058487e+001,-8.79410811748935e+000

4.78351759563174e+005,-2.10164240740242e+001,-8.91623426193115e+000

4.85029301283321e+005,-2.10174523425564e+001,-9.04003989535051e+000

4.91800058012158e+005,-2.10185085281534e+001,-9.16554749281567e+000

4.98665330982714e+005,-2.10195933653801e+001,-9.29277980847873e+000

5.05626439592555e+005,-2.10207076070622e+001,-9.42175987837370e+000

5.12684721657352e+005,-2.10218520246975e+001,-9.55251102322460e+000

5.19841533667984e+005,-2.10230274088760e+001,-9.68505685126508e+000

5.27098251051240e+005,-2.10242345697077e+001,-9.81942126106895e+000

5.34456268434150e+005,-2.10254743372594e+001,-9.95562844438972e+000

5.41916999912011e+005,-2.10267475619998e+001,-1.00937028890120e+001

