Freq.,VOut,OutRef

1.00000000000000e+004,-2.99753924702972e+001,-2.89897611261618e-001

1.01395947979003e+004,-2.99753937911929e+001,-2.93944409346299e-001

1.02811382665607e+004,-2.99753951492234e+001,-2.98047697702445e-001

1.04246576084112e+004,-2.99753965454326e+001,-3.02208264866609e-001

1.05701804056138e+004,-2.99753979808938e+001,-3.06426910379612e-001

1.07177346253629e+004,-2.99753994567104e+001,-3.10704444942654e-001

1.08673486252606e+004,-2.99754009740171e+001,-3.15041690571373e-001

1.10190511587661e+004,-2.99754025339802e+001,-3.19439480755332e-001

1.11728713807222e+004,-2.99754041377989e+001,-3.23898660616187e-001

1.13288388529580e+004,-2.99754057867058e+001,-3.28420087072694e-001

1.14869835499703e+004,-2.99754074819690e+001,-3.33004629000698e-001

1.16473358646846e+004,-2.99754092248913e+001,-3.37653167405916e-001

1.18099266142953e+004,-2.99754110168127e+001,-3.42366595588299e-001

1.19747870461893e+004,-2.99754128591105e+001,-3.47145819315868e-001

1.21419488439505e+004,-2.99754147532010e+001,-3.51991756998785e-001

1.23114441334492e+004,-2.99754167005403e+001,-3.56905339863929e-001

1.24833054890161e+004,-2.99754187026253e+001,-3.61887512135277e-001

1.26575659397028e+004,-2.99754207609948e+001,-3.66939231216108e-001

1.28342589756290e+004,-2.99754228772313e+001,-3.72061467869569e-001

1.30134185544193e+004,-2.99754250529616e+001,-3.77255206408158e-001

1.31950791077289e+004,-2.99754272898582e+001,-3.82521444881041e-001

1.33792755478611e+004,-2.99754295896405e+001,-3.87861195267340e-001

1.35660432744767e+004,-2.99754319540763e+001,-3.93275483668620e-001

1.37554181813974e+004,-2.99754343849833e+001,-3.98765350506148e-001

1.39474366635040e+004,-2.99754368842300e+001,-4.04331850722319e-001

1.41421356237309e+004,-2.99754394537378e+001,-4.09976053980000e-001

1.43395524801583e+004,-2.99754420954815e+001,-4.15699044872300e-001

1.45397251732031e+004,-2.99754448114921e+001,-4.21501923126588e-001

1.47426921729110e+004,-2.99754476038572e+001,-4.27385803818199e-001

1.49484924863494e+004,-2.99754504747233e+001,-4.33351817583081e-001

1.51571656651040e+004,-2.99754534262972e+001,-4.39401110835472e-001

1.53687518128801e+004,-2.99754564608476e+001,-4.45534845988965e-001

1.55832915932100e+004,-2.99754595807072e+001,-4.51754201676264e-001

1.58008262372675e+004,-2.99754627882742e+001,-4.58060372979435e-001

1.60213975517924e+004,-2.99754660860142e+001,-4.64454571656647e-001

1.62450479271247e+004,-2.99754694764618e+001,-4.70938026376366e-001

1.64718203453514e+004,-2.99754729622234e+001,-4.77511982951308e-001

1.67017583885674e+004,-2.99754765459784e+001,-4.84177704578394e-001

1.69349062472505e+004,-2.99754802304813e+001,-4.90936472082785e-001

1.71713087287550e+004,-2.99754840185643e+001,-4.97789584160758e-001

1.74110112659224e+004,-2.99754879131392e+001,-5.04738357630968e-001

1.76540599258131e+004,-2.99754919171995e+001,-5.11784127685509e-001

1.79005014185594e+004,-2.99754960338229e+001,-5.18928248147927e-001

1.81503831063432e+004,-2.99755002661737e+001,-5.26172091731582e-001

1.84037530124975e+004,-2.99755046175050e+001,-5.33517050303998e-001

1.86606598307361e+004,-2.99755090911613e+001,-5.40964535152431e-001

1.89211529345119e+004,-2.99755136905813e+001,-5.48515977255862e-001

1.91852823865052e+004,-2.99755184193003e+001,-5.56172827558976e-001

1.94530989482457e+004,-2.99755232809529e+001,-5.63936557250125e-001

1.97246540898671e+004,-2.99755282792758e+001,-5.71808658044652e-001

1.99999999999999e+004,-2.99755334181108e+001,-5.79790642469337e-001

2.02791895958005e+004,-2.99755387014077e+001,-5.87884044154137e-001

2.05622765331213e+004,-2.99755441332272e+001,-5.96090418125111e-001

2.08493152168224e+004,-2.99755497177443e+001,-6.04411341102502e-001

2.11403608112276e+004,-2.99755554592514e+001,-6.12848411803205e-001

2.14354692507258e+004,-2.99755613621610e+001,-6.21403251248803e-001

2.17346972505211e+004,-2.99755674310104e+001,-6.30077503073831e-001

2.20381023175322e+004,-2.99755736704637e+001,-6.38872833842390e-001

2.23457427614443e+004,-2.99755800853165e+001,-6.47790933367332e-001

2.26576777059159e+004,-2.99755866804993e+001,-6.56833515033294e-001

2.29739670999406e+004,-2.99755934610806e+001,-6.66002316127486e-001

2.32946717293690e+004,-2.99756004322719e+001,-6.75299098168858e-001

2.36198532285905e+004,-2.99756075994309e+001,-6.84725647248523e-001

2.39495740923785e+004,-2.99756149680658e+001,-6.94283774372049e-001

2.42838976879009e+004,-2.99756225438398e+001,-7.03975315804090e-001

2.46228882668982e+004,-2.99756303325752e+001,-7.13802133422191e-001

2.49666109780322e+004,-2.99756383402577e+001,-7.23766115073062e-001

2.53151318794055e+004,-2.99756465730416e+001,-7.33869174932996e-001

2.56685179512580e+004,-2.99756550372537e+001,-7.44113253876463e-001

2.60268371088386e+004,-2.99756637393990e+001,-7.54500319845602e-001

2.63901582154578e+004,-2.99756726861649e+001,-7.65032368229778e-001

2.67585510957221e+004,-2.99756818844271e+001,-7.75711422243304e-001

2.71320865489533e+004,-2.99756913412542e+001,-7.86539533318052e-001

2.75108363627948e+004,-2.99757010639137e+001,-7.97518781491424e-001

2.78948733270080e+004,-2.99757110598770e+001,-8.08651275807898e-001

2.82842712474618e+004,-2.99757213368255e+001,-8.19939154720706e-001

2.86791049603164e+004,-2.99757319026568e+001,-8.31384586500717e-001

2.90794503464061e+004,-2.99757427654899e+001,-8.42989769653901e-001

2.94853843458219e+004,-2.99757539336723e+001,-8.54756933338041e-001

2.98969849726987e+004,-2.99757654157857e+001,-8.66688337793023e-001

3.03143313302078e+004,-2.99757772206532e+001,-8.78786274769658e-001

3.07375036257601e+004,-2.99757893573458e+001,-8.91053067970466e-001

3.11665831864199e+004,-2.99758018351890e+001,-9.03491073492768e-001

3.16016524745350e+004,-2.99758146637707e+001,-9.16102680279215e-001

3.20427951035848e+004,-2.99758278529480e+001,-9.28890310574427e-001

3.24900958542493e+004,-2.99758414128549e+001,-9.41856420388066e-001

3.29436406907028e+004,-2.99758553539100e+001,-9.55003499964496e-001

3.34035167771346e+004,-2.99758696868248e+001,-9.68334074257388e-001

3.38698124945009e+004,-2.99758844226116e+001,-9.81850703412479e-001

3.43426174575100e+004,-2.99758995725921e+001,-9.95555983257836e-001

3.48220225318448e+004,-2.99759151484058e+001,-1.00945254579843e+000

3.53081198516260e+004,-2.99759311620196e+001,-1.02354305971682e+000

3.58010028371187e+004,-2.99759476257361e+001,-1.03783023088646e+000

3.63007662126863e+004,-2.99759645522036e+001,-1.05231680288478e+000

3.68075060249948e+004,-2.99759819544259e+001,-1.06700555751899e+000

3.73213196614721e+004,-2.99759998457717e+001,-1.08189931535445e+000

3.78423058690237e+004,-2.99760182399854e+001,-1.09700093625460e+000

3.83705647730104e+004,-2.99760371511972e+001,-1.11231331992539e+000

3.89061978964912e+004,-2.99760565939344e+001,-1.12783940646837e+000

3.94493081797342e+004,-2.99760765831321e+001,-1.14358217694038e+000

3.99999999999998e+004,-2.99760971341451e+001,-1.15954465392236e+000

4.05583791916010e+004,-2.99761182627589e+001,-1.17572990209613e+000

4.11245530662425e+004,-2.99761399852028e+001,-1.19214102882519e+000

4.16986304336447e+004,-2.99761623181615e+001,-1.20878118474948e+000

4.22807216224550e+004,-2.99761852787883e+001,-1.22565356438321e+000

4.28709385014515e+004,-2.99762088847181e+001,-1.24276140672367e+000

4.34693945010421e+004,-2.99762331540810e+001,-1.26010799586759e+000

4.40762046350642e+004,-2.99762581055162e+001,-1.27769666163449e+000

4.46914855228886e+004,-2.99762837581860e+001,-1.29553078020245e+000

4.53153554118317e+004,-2.99763101317909e+001,-1.31361377474665e+000

4.59479341998812e+004,-2.99763372465843e+001,-1.33194911609275e+000

4.65893434587380e+004,-2.99763651233882e+001,-1.35054032337471e+000

4.72397064571810e+004,-2.99763937836091e+001,-1.36939096470353e+000

4.78991481847569e+004,-2.99764232492545e+001,-1.38850465784409e+000

4.85677953758016e+004,-2.99764535429493e+001,-1.40788507090351e+000

4.92457765337964e+004,-2.99764846879537e+001,-1.42753592302468e+000

4.99332219560642e+004,-2.99765167081808e+001,-1.44746098509344e+000

5.06302637588109e+004,-2.99765496282144e+001,-1.46766408045247e+000

5.13370359025159e+004,-2.99765834733287e+001,-1.48814908562622e+000

5.20536742176771e+004,-2.99766182695068e+001,-1.50891993105529e+000

5.27803164309155e+004,-2.99766540434610e+001,-1.52998060184078e+000

5.35171021914442e+004,-2.99766908226531e+001,-1.55133513849764e+000

5.42641730979066e+004,-2.99767286353155e+001,-1.57298763772069e+000

5.50216727255895e+004,-2.99767675104726e+001,-1.59494225315782e+000

5.57897466540159e+004,-2.99768074779631e+001,-1.61720319619600e+000

5.65685424949235e+004,-2.99768485684627e+001,-1.63977473675683e+000

5.73582099206328e+004,-2.99768908135075e+001,-1.66266120410289e+000

5.81589006928121e+004,-2.99769342455185e+001,-1.68586698765466e+000

5.89707686916437e+004,-2.99769788978256e+001,-1.70939653781869e+000

5.97939699453972e+004,-2.99770248046937e+001,-1.73325436682714e+000

6.06286626604156e+004,-2.99770720013486e+001,-1.75744504958735e+000

6.14750072515201e+004,-2.99771205240036e+001,-1.78197322454489e+000

6.23331663728396e+004,-2.99771704098880e+001,-1.80684359455460e+000

6.32033049490698e+004,-2.99772216972743e+001,-1.83206092776742e+000

6.40855902071694e+004,-2.99772744255083e+001,-1.85763005852591e+000

6.49801917084985e+004,-2.99773286350386e+001,-1.88355588827289e+000

6.58872813814055e+004,-2.99773843674479e+001,-1.90984338647140e+000

6.68070335542691e+004,-2.99774416654841e+001,-1.93649759153798e+000

6.77396249890018e+004,-2.99775005730933e+001,-1.96352361178714e+000

6.86852349150199e+004,-2.99775611354531e+001,-1.99092662638897e+000

6.96440450636895e+004,-2.99776233990071e+001,-2.01871188633827e+000

7.06162397032520e+004,-2.99776874115001e+001,-2.04688471543832e+000

7.16020056742374e+004,-2.99777532220144e+001,-2.07545051129590e+000

7.26015324253724e+004,-2.99778208810076e+001,-2.10441474632923e+000

7.36150120499896e+004,-2.99778904403502e+001,-2.13378296879116e+000

7.46426393229441e+004,-2.99779619533659e+001,-2.16356080380222e+000

7.56846117380472e+004,-2.99780354748712e+001,-2.19375395440124e+000

7.67411295460207e+004,-2.99781110612179e+001,-2.22436820260545e+000

7.78123957929823e+004,-2.99781887703356e+001,-2.25540941048762e+000

7.88986163594682e+004,-2.99782686617755e+001,-2.28688352126533e+000

7.99999999999995e+004,-2.99783507967555e+001,-2.31879656040495e+000

8.11167583832018e+004,-2.99784352382074e+001,-2.35115463673902e+000

8.22491061324848e+004,-2.99785220508237e+001,-2.38396394359946e+000

8.33972608672892e+004,-2.99786113011074e+001,-2.41723075996310e+000

8.45614432449099e+004,-2.99787030574217e+001,-2.45096145161461e+000

8.57418770029029e+004,-2.99787973900426e+001,-2.48516247232180e+000

8.69387890020841e+004,-2.99788943712114e+001,-2.51984036502633e+000

8.81524092701283e+004,-2.99789940751897e+001,-2.55500176305108e+000

8.93829710457770e+004,-2.99790965783158e+001,-2.59065339132064e+000

9.06307108236633e+004,-2.99792019590621e+001,-2.62680206759830e+000

9.18958683997622e+004,-2.99793102980944e+001,-2.66345470373884e+000

9.31786869174758e+004,-2.99794216783332e+001,-2.70061830695538e+000

9.44794129143618e+004,-2.99795361850160e+001,-2.73829998110434e+000

9.57982963695136e+004,-2.99796539057617e+001,-2.77650692798451e+000

9.71355907516031e+004,-2.99797749306370e+001,-2.81524644865255e+000

9.84915530675926e+004,-2.99798993522241e+001,-2.85452594475566e+000

9.98664439121282e+004,-2.99800272656901e+001,-2.89435291987899e+000

1.01260527517622e+005,-2.99801587688596e+001,-2.93473498091126e+000

1.02674071805032e+005,-2.99802939622874e+001,-2.97567983942579e+000

1.04107348435354e+005,-2.99804329493348e+001,-3.01719531307896e+000

1.05560632861831e+005,-2.99805758362471e+001,-3.05928932702487e+000

1.07034204382888e+005,-2.99807227322334e+001,-3.10196991534774e+000

1.08528346195813e+005,-2.99808737495485e+001,-3.14524522251115e+000

1.10043345451179e+005,-2.99810290035778e+001,-3.18912350482404e+000

1.11579493308032e+005,-2.99811886129229e+001,-3.23361313192499e+000

1.13137084989847e+005,-2.99813526994913e+001,-3.27872258828407e+000

1.14716419841265e+005,-2.99815213885871e+001,-3.32446047472074e+000

1.16317801385624e+005,-2.99816948090053e+001,-3.37083550994080e+000

1.17941537383287e+005,-2.99818730931278e+001,-3.41785653209171e+000

1.19587939890794e+005,-2.99820563770224e+001,-3.46553250033387e+000

1.21257325320831e+005,-2.99822448005445e+001,-3.51387249643191e+000

1.22950014503040e+005,-2.99824385074414e+001,-3.56288572636242e+000

1.24666332745679e+005,-2.99826376454593e+001,-3.61258152194176e+000

1.26406609898139e+005,-2.99828423664536e+001,-3.66296934246967e+000

1.28171180414339e+005,-2.99830528265019e+001,-3.71405877639387e+000

1.29960383416997e+005,-2.99832691860198e+001,-3.76585954299128e+000

1.31774562762811e+005,-2.99834916098805e+001,-3.81838149406810e+000

1.33614067108538e+005,-2.99837202675365e+001,-3.87163461567880e+000

1.35479249978003e+005,-2.99839553331461e+001,-3.92562902986356e+000

1.37370469830040e+005,-2.99841969857014e+001,-3.98037499640430e+000

1.39288090127379e+005,-2.99844454091618e+001,-4.03588291459896e+000

1.41232479406504e+005,-2.99847007925890e+001,-4.09216332505520e+000

1.43204011348474e+005,-2.99849633302874e+001,-4.14922691150238e+000

1.45203064850745e+005,-2.99852332219467e+001,-4.20708450262185e+000

1.47230024099979e+005,-2.99855106727894e+001,-4.26574707389774e+000

1.49285278645888e+005,-2.99857958937218e+001,-4.32522574948310e+000

1.51369223476094e+005,-2.99860891014890e+001,-4.38553180408824e+000

1.53482259092041e+005,-2.99863905188336e+001,-4.44667666488612e+000

1.55624791585964e+005,-2.99867003746595e+001,-4.50867191343535e+000

1.57797232718936e+005,-2.99870189041989e+001,-4.57152928762405e+000

1.59999999999999e+005,-2.99873463491851e+001,-4.63526068362987e+000

1.62233516766403e+005,-2.99876829580280e+001,-4.69987815789993e+000

1.64498212264969e+005,-2.99880289859958e+001,-4.76539392914853e+000

1.66794521734578e+005,-2.99883846954007e+001,-4.83182038037303e+000

1.69122886489819e+005,-2.99887503557894e+001,-4.89917006088739e+000

1.71483754005805e+005,-2.99891262441391e+001,-4.96745568837433e+000

1.73877578004168e+005,-2.99895126450574e+001,-5.03669015095496e+000

1.76304818540256e+005,-2.99899098509892e+001,-5.10688650927530e+000

1.78765942091554e+005,-2.99903181624270e+001,-5.17805799861168e+000

1.81261421647326e+005,-2.99907378881280e+001,-5.25021803099125e+000

1.83791736799524e+005,-2.99911693453360e+001,-5.32338019733193e+000

1.86357373834951e+005,-2.99916128600096e+001,-5.39755826959571e+000

1.88958825828723e+005,-2.99920687670558e+001,-5.47276620296210e+000

1.91596592739027e+005,-2.99925374105692e+001,-5.54901813801482e+000

1.94271181503206e+005,-2.99930191440785e+001,-5.62632840294513e+000

1.96983106135185e+005,-2.99935143307980e+001,-5.70471151577088e+000

1.99732887824256e+005,-2.99940233438857e+001,-5.78418218657122e+000

2.02521055035243e+005,-2.99945465667088e+001,-5.86475531973365e+000

2.05348143610063e+005,-2.99950843931148e+001,-5.94644601621819e+000

2.08214696870707e+005,-2.99956372277097e+001,-6.02926957583325e+000

2.11121265723661e+005,-2.99962054861433e+001,-6.11324149952642e+000

2.14068408765776e+005,-2.99967895954018e+001,-6.19837749168570e+000

2.17056692391625e+005,-2.99973899941068e+001,-6.28469346245654e+000

2.20086690902357e+005,-2.99980071328228e+001,-6.37220553006698e+000

2.23158986616063e+005,-2.99986414743712e+001,-6.46093002316671e+000

2.26274169979693e+005,-2.99992934941531e+001,-6.55088348317464e+000

2.29432839682530e+005,-2.99999636804787e+001,-6.64208266663759e+000

2.32635602771247e+005,-3.00006525349057e+001,-6.73454454759768e+000

2.35883074766574e+005,-3.00013605725859e+001,-6.82828631996777e+000

2.39175879781588e+005,-3.00020883226193e+001,-6.92332539991489e+000

2.42514650641661e+005,-3.00028363284172e+001,-7.01967942825066e+000

2.45900029006080e+005,-3.00036051480745e+001,-7.11736627282692e+000

2.49332665491357e+005,-3.00043953547500e+001,-7.21640403093713e+000

2.52813219796278e+005,-3.00052075370560e+001,-7.31681103172170e+000

2.56342360828676e+005,-3.00060422994574e+001,-7.41860583857566e+000

2.59920766833993e+005,-3.00069002626794e+001,-7.52180725156033e+000

2.63549125525621e+005,-3.00077820641257e+001,-7.62643430981363e+000

2.67228134217075e+005,-3.00086883583056e+001,-7.73250629396156e+000

2.70958499956006e+005,-3.00096198172713e+001,-7.84004272852905e+000

2.74740939660078e+005,-3.00105771310650e+001,-7.94906338434654e+000

2.78576180254757e+005,-3.00115610081765e+001,-8.05958828095467e+000

2.82464958813007e+005,-3.00125721760108e+001,-8.17163768900249e+000

2.86408022696948e+005,-3.00136113813669e+001,-8.28523213263962e+000

2.90406129701488e+005,-3.00146793909262e+001,-8.40039239190136e+000

2.94460048199957e+005,-3.00157769917529e+001,-8.51713950508286e+000

2.98570557291775e+005,-3.00169049918046e+001,-8.63549477110354e+000

3.02738446952187e+005,-3.00180642204549e+001,-8.75547975185888e+000

3.06964518184081e+005,-3.00192555290264e+001,-8.87711627455755e+000

3.11249583171928e+005,-3.00204797913361e+001,-9.00042643404285e+000

3.15594465437872e+005,-3.00217379042520e+001,-9.12543259509679e+000

3.19999999999997e+005,-3.00230307882617e+001,-9.25215739472421e+000

3.24467033532806e+005,-3.00243593880532e+001,-9.38062374441553e+000

3.28996424529938e+005,-3.00257246731073e+001,-9.51085483238646e+000

3.33589043469155e+005,-3.00271276383031e+001,-9.64287412579192e+000

3.38245772979638e+005,-3.00285693045348e+001,-9.77670537291257e+000

3.42967508011610e+005,-3.00300507193429e+001,-9.91237260531144e+000

3.47755156008335e+005,-3.00315729575560e+001,-1.00499001399590e+001

3.52609637080511e+005,-3.00331371219471e+001,-1.01893125813237e+001

3.57531884183106e+005,-3.00347443439024e+001,-1.03306348234259e+001

3.62522843294651e+005,-3.00363957841026e+001,-1.04738920518526e+001

3.67583473599047e+005,-3.00380926332185e+001,-1.06191097457312e+001

3.72714747669902e+005,-3.00398361126193e+001,-1.07663136796585e+001

3.77917651657445e+005,-3.00416274750945e+001,-1.09155299255826e+001

3.83193185478053e+005,-3.00434680055891e+001,-1.10667848546361e+001

3.88542363006410e+005,-3.00453590219534e+001,-1.12201051389168e+001

3.93966212270369e+005,-3.00473018757050e+001,-1.13755177532119e+001

3.99465775648511e+005,-3.00492979528060e+001,-1.15330499766661e+001

4.05042110070485e+005,-3.00513486744538e+001,-1.16927293943866e+001

4.10696287220124e+005,-3.00534554978850e+001,-1.18545838989849e+001

4.16429393741414e+005,-3.00556199171943e+001,-1.20186416920504e+001

4.22242531447321e+005,-3.00578434641670e+001,-1.21849312855542e+001

4.28136817531551e+005,-3.00601277091258e+001,-1.23534815031778e+001

4.34113384783250e+005,-3.00624742617913e+001,-1.25243214815654e+001

4.40173381804713e+005,-3.00648847721571e+001,-1.26974806714937e+001

4.46317973232124e+005,-3.00673609313788e+001,-1.28729888389595e+001

4.52548339959385e+005,-3.00699044726769e+001,-1.30508760661769e+001

4.58865679365059e+005,-3.00725171722543e+001,-1.32311727524846e+001

4.65271205542494e+005,-3.00752008502273e+001,-1.34139096151562e+001

4.71766149533147e+005,-3.00779573715713e+001,-1.35991176901121e+001

4.78351759563174e+005,-3.00807886470796e+001,-1.37868283325277e+001

4.85029301283321e+005,-3.00836966343367e+001,-1.39770732173338e+001

4.91800058012158e+005,-3.00866833387054e+001,-1.41698843396066e+001

4.98665330982714e+005,-3.00897508143272e+001,-1.43652940148419e+001

5.05626439592555e+005,-3.00929011651368e+001,-1.45633348791079e+001

5.12684721657352e+005,-3.00961365458894e+001,-1.47640398890771e+001

5.19841533667984e+005,-3.00994591632023e+001,-1.49674423219264e+001

5.27098251051240e+005,-3.01028712766084e+001,-1.51735757751064e+001

5.34456268434150e+005,-3.01063751996239e+001,-1.53824741659730e+001

5.41916999912011e+005,-3.01099733008280e+001,-1.55941717312756e+001

