Freq.,VOut,OutRef

1.00000000000000e+004,-1.83465587975365e+001,-1.70659030716799e-001

1.01395947979003e+004,-1.83465591313994e+001,-1.73041336620572e-001

1.02811382665607e+004,-1.83465594746480e+001,-1.75456898047762e-001

1.04246576084112e+004,-1.83465598275465e+001,-1.77906179217345e-001

1.05701804056138e+004,-1.83465601903661e+001,-1.80389650829275e-001

1.07177346253629e+004,-1.83465605633858e+001,-1.82907790153312e-001

1.08673486252606e+004,-1.83465609468920e+001,-1.85461081123281e-001

1.10190511587661e+004,-1.83465613411800e+001,-1.88050014423998e-001

1.11728713807222e+004,-1.83465617465525e+001,-1.90675087593904e-001

1.13288388529580e+004,-1.83465621633213e+001,-1.93336805114077e-001

1.14869835499703e+004,-1.83465625918066e+001,-1.96035678507242e-001

1.16473358646846e+004,-1.83465630323379e+001,-1.98772226436346e-001

1.18099266142953e+004,-1.83465634852540e+001,-2.01546974803820e-001

1.19747870461893e+004,-1.83465639509028e+001,-2.04360456854070e-001

1.21419488439505e+004,-1.83465644296423e+001,-2.07213213273579e-001

1.23114441334492e+004,-1.83465649218406e+001,-2.10105792295989e-001

1.24833054890161e+004,-1.83465654278759e+001,-2.13038749807475e-001

1.26575659397028e+004,-1.83465659481375e+001,-2.16012649452012e-001

1.28342589756290e+004,-1.83465664830250e+001,-2.19028062744739e-001

1.30134185544193e+004,-1.83465670329497e+001,-2.22085569174737e-001

1.31950791077289e+004,-1.83465675983341e+001,-2.25185756320866e-001

1.33792755478611e+004,-1.83465681796132e+001,-2.28329219962147e-001

1.35660432744767e+004,-1.83465687772335e+001,-2.31516564195257e-001

1.37554181813974e+004,-1.83465693916545e+001,-2.34748401548312e-001

1.39474366635040e+004,-1.83465700233485e+001,-2.38025353098328e-001

1.41421356237309e+004,-1.83465706728010e+001,-2.41348048592539e-001

1.43395524801583e+004,-1.83465713405114e+001,-2.44717126566395e-001

1.45397251732031e+004,-1.83465720269927e+001,-2.48133234469505e-001

1.47426921729110e+004,-1.83465727327727e+001,-2.51597028787411e-001

1.49484924863494e+004,-1.83465734583939e+001,-2.55109175168995e-001

1.51571656651040e+004,-1.83465742044141e+001,-2.58670348554560e-001

1.53687518128801e+004,-1.83465749714066e+001,-2.62281233304249e-001

1.55832915932100e+004,-1.83465757599609e+001,-2.65942523330879e-001

1.58008262372675e+004,-1.83465765706835e+001,-2.69654922230686e-001

1.60213975517924e+004,-1.83465774041972e+001,-2.73419143422549e-001

1.62450479271247e+004,-1.83465782611429e+001,-2.77235910281933e-001

1.64718203453514e+004,-1.83465791421790e+001,-2.81105956281208e-001

1.67017583885674e+004,-1.83465800479829e+001,-2.85030025128858e-001

1.69349062472505e+004,-1.83465809792508e+001,-2.89008870914310e-001

1.71713087287550e+004,-1.83465819366985e+001,-2.93043258251821e-001

1.74110112659224e+004,-1.83465829210619e+001,-2.97133962427483e-001

1.76540599258131e+004,-1.83465839330977e+001,-3.01281769547312e-001

1.79005014185594e+004,-1.83465849735836e+001,-3.05487476689819e-001

1.81503831063432e+004,-1.83465860433193e+001,-3.09751892058411e-001

1.84037530124975e+004,-1.83465871431272e+001,-3.14075835135261e-001

1.86606598307361e+004,-1.83465882738525e+001,-3.18460136841530e-001

1.89211529345119e+004,-1.83465894363643e+001,-3.22905639692886e-001

1.91852823865052e+004,-1.83465906315560e+001,-3.27413197966131e-001

1.94530989482457e+004,-1.83465918603465e+001,-3.31983677858315e-001

1.97246540898671e+004,-1.83465931236798e+001,-3.36617957658070e-001

1.99999999999999e+004,-1.83465944225271e+001,-3.41316927910230e-001

2.02791895958005e+004,-1.83465957578867e+001,-3.46081491587751e-001

2.05622765331213e+004,-1.83465971307848e+001,-3.50912564266384e-001

2.08493152168224e+004,-1.83465985422767e+001,-3.55811074299531e-001

2.11403608112276e+004,-1.83465999934469e+001,-3.60777962997160e-001

2.14354692507258e+004,-1.83466014854110e+001,-3.65814184804885e-001

2.17346972505211e+004,-1.83466030193154e+001,-3.70920707489395e-001

2.20381023175322e+004,-1.83466045963392e+001,-3.76098512321738e-001

2.23457427614443e+004,-1.83466062176942e+001,-3.81348594269137e-001

2.26576777059159e+004,-1.83466078846265e+001,-3.86671962182038e-001

2.29739670999406e+004,-1.83466095984172e+001,-3.92069638990624e-001

2.32946717293690e+004,-1.83466113603833e+001,-3.97542661900298e-001

2.36198532285905e+004,-1.83466131718788e+001,-4.03092082591130e-001

2.39495740923785e+004,-1.83466150342959e+001,-4.08718967417360e-001

2.42838976879009e+004,-1.83466169490658e+001,-4.14424397616919e-001

2.46228882668982e+004,-1.83466189176600e+001,-4.20209469513062e-001

2.49666109780322e+004,-1.83466209415911e+001,-4.26075294730429e-001

2.53151318794055e+004,-1.83466230224147e+001,-4.32023000403455e-001

2.56685179512580e+004,-1.83466251617296e+001,-4.38053729395804e-001

2.60268371088386e+004,-1.83466273611798e+001,-4.44168640519764e-001

2.63901582154578e+004,-1.83466296224553e+001,-4.50368908756015e-001

2.67585510957221e+004,-1.83466319472939e+001,-4.56655725481454e-001

2.71320865489533e+004,-1.83466343374819e+001,-4.63030298696247e-001

2.75108363627948e+004,-1.83466367948559e+001,-4.69493853257916e-001

2.78948733270080e+004,-1.83466393213042e+001,-4.76047631113495e-001

2.82842712474618e+004,-1.83466419187679e+001,-4.82692891540192e-001

2.86791049603164e+004,-1.83466445892429e+001,-4.89430911383725e-001

2.90794503464061e+004,-1.83466473347811e+001,-4.96262985308217e-001

2.94853843458219e+004,-1.83466501574920e+001,-5.03190426038967e-001

2.98969849726987e+004,-1.83466530595443e+001,-5.10214564618788e-001

3.03143313302078e+004,-1.83466560431678e+001,-5.17336750660538e-001

3.07375036257601e+004,-1.83466591106547e+001,-5.24558352607559e-001

3.11665831864199e+004,-1.83466622643617e+001,-5.31880757995120e-001

3.16016524745350e+004,-1.83466655067120e+001,-5.39305373715490e-001

3.20427951035848e+004,-1.83466688401963e+001,-5.46833626291344e-001

3.24900958542493e+004,-1.83466722673755e+001,-5.54466962145496e-001

3.29436406907028e+004,-1.83466757908827e+001,-5.62206847878947e-001

3.34035167771346e+004,-1.83466794134246e+001,-5.70054770554345e-001

3.38698124945009e+004,-1.83466831377841e+001,-5.78012237978098e-001

3.43426174575100e+004,-1.83466869668221e+001,-5.86080778991785e-001

3.48220225318448e+004,-1.83466909034801e+001,-5.94261943763123e-001

3.53081198516260e+004,-1.83466949507819e+001,-6.02557304084751e-001

3.58010028371187e+004,-1.83466991118364e+001,-6.10968453674328e-001

3.63007662126863e+004,-1.83467033898398e+001,-6.19497008480923e-001

3.68075060249948e+004,-1.83467077880782e+001,-6.28144606992582e-001

3.73213196614721e+004,-1.83467123099296e+001,-6.36912910553957e-001

3.78423058690237e+004,-1.83467169588670e+001,-6.45803603680134e-001

3.83705647730104e+004,-1.83467217384612e+001,-6.54818394382684e-001

3.89061978964912e+004,-1.83467266523830e+001,-6.63959014495206e-001

3.94493081797342e+004,-1.83467317044061e+001,-6.73227220006325e-001

3.99999999999998e+004,-1.83467368984103e+001,-6.82624791394271e-001

4.05583791916010e+004,-1.83467422383847e+001,-6.92153533968272e-001

4.11245530662425e+004,-1.83467477284297e+001,-7.01815278215263e-001

4.16986304336447e+004,-1.83467533727613e+001,-7.11611880149451e-001

4.22807216224550e+004,-1.83467591757137e+001,-7.21545221667246e-001

4.28709385014515e+004,-1.83467651417427e+001,-7.31617210909353e-001

4.34693945010421e+004,-1.83467712754293e+001,-7.41829782622230e-001

4.40762046350642e+004,-1.83467775814829e+001,-7.52184898533325e-001

4.46914855228886e+004,-1.83467840647452e+001,-7.62684547721273e-001

4.53153554118317e+004,-1.83467907301936e+001,-7.73330747000796e-001

4.59479341998812e+004,-1.83467975829456e+001,-7.84125541305055e-001

4.65893434587380e+004,-1.83468046282618e+001,-7.95071004080258e-001

4.72397064571810e+004,-1.83468118715507e+001,-8.06169237677879e-001

4.78991481847569e+004,-1.83468193183724e+001,-8.17422373760565e-001

4.85677953758016e+004,-1.83468269744433e+001,-8.28832573707157e-001

4.92457765337964e+004,-1.83468348456397e+001,-8.40402029027847e-001

4.99332219560642e+004,-1.83468429380031e+001,-8.52132961780965e-001

5.06302637588109e+004,-1.83468512577445e+001,-8.64027624998800e-001

5.13370359025159e+004,-1.83468598112488e+001,-8.76088303118103e-001

5.20536742176771e+004,-1.83468686050803e+001,-8.88317312415810e-001

5.27803164309155e+004,-1.83468776459872e+001,-9.00717001452698e-001

5.35171021914442e+004,-1.83468869409072e+001,-9.13289751519787e-001

5.42641730979066e+004,-1.83468964969722e+001,-9.26037977095755e-001

5.50216727255895e+004,-1.83469063215144e+001,-9.38964126304941e-001

5.57897466540159e+004,-1.83469164220715e+001,-9.52070681386662e-001

5.65685424949235e+004,-1.83469268063923e+001,-9.65360159168952e-001

5.73582099206328e+004,-1.83469374824430e+001,-9.78835111547169e-001

5.81589006928121e+004,-1.83469484584133e+001,-9.92498125971905e-001

5.89707686916437e+004,-1.83469597427223e+001,-1.00635182594208e+000

5.97939699453972e+004,-1.83469713440248e+001,-1.02039887150581e+000

6.06286626604156e+004,-1.83469832712186e+001,-1.03464195976588e+000

6.14750072515201e+004,-1.83469955334506e+001,-1.04908382539600e+000

6.23331663728396e+004,-1.83470081401239e+001,-1.06372724116026e+000

6.32033049490698e+004,-1.83470211009053e+001,-1.07857501844156e+000

6.40855902071694e+004,-1.83470344257323e+001,-1.09363000777709e+000

6.49801917084985e+004,-1.83470481248206e+001,-1.10889509940191e+000

6.58872813814055e+004,-1.83470622086723e+001,-1.12437322379796e+000

6.68070335542691e+004,-1.83470766880835e+001,-1.14006735225207e+000

6.77396249890018e+004,-1.83470915741525e+001,-1.15598049742117e+000

6.86852349150199e+004,-1.83471068782887e+001,-1.17211571390611e+000

6.96440450636895e+004,-1.83471226122205e+001,-1.18847609883105e+000

7.06162397032520e+004,-1.83471387880049e+001,-1.20506479243350e+000

7.16020056742374e+004,-1.83471554180363e+001,-1.22188497865994e+000

7.26015324253724e+004,-1.83471725150560e+001,-1.23893988577124e+000

7.36150120499896e+004,-1.83471900921617e+001,-1.25623278695575e+000

7.46426393229441e+004,-1.83472081628178e+001,-1.27376700095029e+000

7.56846117380472e+004,-1.83472267408652e+001,-1.29154589267054e+000

7.67411295460207e+004,-1.83472458405320e+001,-1.30957287384863e+000

7.78123957929823e+004,-1.83472654764443e+001,-1.32785140368076e+000

7.88986163594682e+004,-1.83472856636370e+001,-1.34638498948272e+000

7.99999999999995e+004,-1.83473064175657e+001,-1.36517718735469e+000

8.11167583832018e+004,-1.83473277541178e+001,-1.38423160285429e+000

8.22491061324848e+004,-1.83473496896247e+001,-1.40355189168018e+000

8.33972608672892e+004,-1.83473722408746e+001,-1.42314176036270e+000

8.45614432449099e+004,-1.83473954251244e+001,-1.44300496696651e+000

8.57418770029029e+004,-1.83474192601132e+001,-1.46314532180095e+000

8.69387890020841e+004,-1.83474437640757e+001,-1.48356668813865e+000

8.81524092701283e+004,-1.83474689557558e+001,-1.50427298294805e+000

8.93829710457770e+004,-1.83474948544207e+001,-1.52526817763111e+000

9.06307108236633e+004,-1.83475214798755e+001,-1.54655629877379e+000

9.18958683997622e+004,-1.83475488524781e+001,-1.56814142890541e+000

9.31786869174758e+004,-1.83475769931546e+001,-1.59002770726871e+000

9.44794129143618e+004,-1.83476059234146e+001,-1.61221933059968e+000

9.57982963695136e+004,-1.83476356653679e+001,-1.63472055391883e+000

9.71355907516031e+004,-1.83476662417411e+001,-1.65753569133071e+000

9.84915530675926e+004,-1.83476976758941e+001,-1.68066911683698e+000

9.98664439121282e+004,-1.83477299918381e+001,-1.70412526515867e+000

1.01260527517622e+005,-1.83477632142533e+001,-1.72790863256964e+000

1.02674071805032e+005,-1.83477973685078e+001,-1.75202377774042e+000

1.04107348435354e+005,-1.83478324806762e+001,-1.77647532259397e+000

1.05560632861831e+005,-1.83478685775590e+001,-1.80126795317425e+000

1.07034204382888e+005,-1.83479056867031e+001,-1.82640642052208e+000

1.08528346195813e+005,-1.83479438364221e+001,-1.85189554156675e+000

1.10043345451179e+005,-1.83479830558172e+001,-1.87774020002773e+000

1.11579493308032e+005,-1.83480233747991e+001,-1.90394534732781e+000

1.13137084989847e+005,-1.83480648241106e+001,-1.93051600351816e+000

1.14716419841265e+005,-1.83481074353487e+001,-1.95745725821715e+000

1.16317801385624e+005,-1.83481512409889e+001,-1.98477427155872e+000

1.17941537383287e+005,-1.83481962744086e+001,-2.01247227515671e+000

1.19587939890794e+005,-1.83482425699126e+001,-2.04055657307743e+000

1.21257325320831e+005,-1.83482901627579e+001,-2.06903254282849e+000

1.22950014503040e+005,-1.83483390891800e+001,-2.09790563635909e+000

1.24666332745679e+005,-1.83483893864198e+001,-2.12718138107271e+000

1.26406609898139e+005,-1.83484410927511e+001,-2.15686538085401e+000

1.28171180414339e+005,-1.83484942475087e+001,-2.18696331710768e+000

1.29960383416997e+005,-1.83485488911176e+001,-2.21748094981250e+000

1.31774562762811e+005,-1.83486050651227e+001,-2.24842411858621e+000

1.33614067108538e+005,-1.83486628122191e+001,-2.27979874376765e+000

1.35479249978003e+005,-1.83487221762839e+001,-2.31161082750852e+000

1.37370469830040e+005,-1.83487832024081e+001,-2.34386645488302e+000

1.39288090127379e+005,-1.83488459369297e+001,-2.37657179500880e+000

1.41232479406504e+005,-1.83489104274677e+001,-2.40973310218344e+000

1.43204011348474e+005,-1.83489767229566e+001,-2.44335671703493e+000

1.45203064850745e+005,-1.83490448736828e+001,-2.47744906768668e+000

1.47230024099979e+005,-1.83491149313200e+001,-2.51201667093820e+000

1.49285278645888e+005,-1.83491869489685e+001,-2.54706613345766e+000

1.51369223476094e+005,-1.83492609811920e+001,-2.58260415299309e+000

1.53482259092041e+005,-1.83493370840587e+001,-2.61863751959629e+000

1.55624791585964e+005,-1.83494153151808e+001,-2.65517311686310e+000

1.57797232718936e+005,-1.83494957337567e+001,-2.69221792318779e+000

1.59999999999999e+005,-1.83495784006138e+001,-2.72977901303399e+000

1.62233516766403e+005,-1.83496633782521e+001,-2.76786355822187e+000

1.64498212264969e+005,-1.83497507308889e+001,-2.80647882922944e+000

1.66794521734578e+005,-1.83498405245057e+001,-2.84563219651044e+000

1.69122886489819e+005,-1.83499328268948e+001,-2.88533113182990e+000

1.71483754005805e+005,-1.83500277077079e+001,-2.92558320961277e+000

1.73877578004168e+005,-1.83501252385063e+001,-2.96639610831182e+000

1.76304818540256e+005,-1.83502254928111e+001,-3.00777761179075e+000

1.78765942091554e+005,-1.83503285461562e+001,-3.04973561072353e+000

1.81261421647326e+005,-1.83504344761416e+001,-3.09227810401186e+000

1.83791736799524e+005,-1.83505433624882e+001,-3.13541320021802e+000

1.86357373834951e+005,-1.83506552870943e+001,-3.17914911901574e+000

1.88958825828723e+005,-1.83507703340934e+001,-3.22349419265808e+000

1.91596592739027e+005,-1.83508885899133e+001,-3.26845686746180e+000

1.94271181503206e+005,-1.83510101433364e+001,-3.31404570531101e+000

1.96983106135185e+005,-1.83511350855622e+001,-3.36026938517597e+000

1.99732887824256e+005,-1.83512635102712e+001,-3.40713670465157e+000

2.02521055035243e+005,-1.83513955136892e+001,-3.45465658151251e+000

2.05348143610063e+005,-1.83515311946553e+001,-3.50283805528663e+000

2.08214696870707e+005,-1.83516706546892e+001,-3.55169028884656e+000

2.11121265723661e+005,-1.83518139980623e+001,-3.60122257001924e+000

2.14068408765776e+005,-1.83519613318687e+001,-3.65144431321371e+000

2.17056692391625e+005,-1.83521127660993e+001,-3.70236506106791e+000

2.20086690902357e+005,-1.83522684137168e+001,-3.75399448611269e+000

2.23158986616063e+005,-1.83524283907327e+001,-3.80634239245588e+000

2.26274169979693e+005,-1.83525928162865e+001,-3.85941871748412e+000

2.29432839682530e+005,-1.83527618127264e+001,-3.91323353358360e+000

2.32635602771247e+005,-1.83529355056918e+001,-3.96779704988105e+000

2.35883074766574e+005,-1.83531140241981e+001,-4.02311961400133e+000

2.39175879781588e+005,-1.83532975007233e+001,-4.07921171384658e+000

2.42514650641661e+005,-1.83534860712966e+001,-4.13608397939275e+000

2.45900029006080e+005,-1.83536798755888e+001,-4.19374718450733e+000

2.49332665491357e+005,-1.83538790570055e+001,-4.25221224878450e+000

2.52813219796278e+005,-1.83540837627816e+001,-4.31149023940157e+000

2.56342360828676e+005,-1.83542941440785e+001,-4.37159237299359e+000

2.59920766833993e+005,-1.83545103560830e+001,-4.43253001754895e+000

2.63549125525621e+005,-1.83547325581093e+001,-4.49431469432411e+000

2.67228134217075e+005,-1.83549609137020e+001,-4.55695807977800e+000

2.70958499956006e+005,-1.83551955907426e+001,-4.62047200752690e+000

2.74740939660078e+005,-1.83554367615578e+001,-4.68486847031911e+000

2.78576180254757e+005,-1.83556846030299e+001,-4.75015962203033e+000

2.82464958813007e+005,-1.83559392967103e+001,-4.81635777967795e+000

2.86408022696948e+005,-1.83562010289349e+001,-4.88347542545676e+000

2.90406129701488e+005,-1.83564699909420e+001,-4.95152520879546e+000

2.94460048199957e+005,-1.83567463789933e+001,-5.02051994843147e+000

2.98570557291775e+005,-1.83570303944968e+001,-5.09047263450970e+000

3.02738446952187e+005,-1.83573222441327e+001,-5.16139643069791e+000

3.06964518184081e+005,-1.83576221399813e+001,-5.23330467632678e+000

3.11249583171928e+005,-1.83579302996548e+001,-5.30621088854714e+000

3.15594465437872e+005,-1.83582469464307e+001,-5.38012876451163e+000

3.19999999999997e+005,-1.83585723093881e+001,-5.45507218357387e+000

3.24467033532806e+005,-1.83589066235473e+001,-5.53105520951162e+000

3.28996424529938e+005,-1.83592501300120e+001,-5.60809209276903e+000

3.33589043469155e+005,-1.83596030761139e+001,-5.68619727272119e+000

3.38245772979638e+005,-1.83599657155607e+001,-5.76538537995979e+000

3.42967508011610e+005,-1.83603383085870e+001,-5.84567123860034e+000

3.47755156008335e+005,-1.83607211221078e+001,-5.92706986861097e+000

3.52609637080511e+005,-1.83611144298753e+001,-6.00959648816215e+000

3.57531884183106e+005,-1.83615185126389e+001,-6.09326651599952e+000

3.62522843294651e+005,-1.83619336583077e+001,-6.17809557383778e+000

3.67583473599047e+005,-1.83623601621165e+001,-6.26409948877680e+000

3.72714747669902e+005,-1.83627983267947e+001,-6.35129429574013e+000

3.77917651657445e+005,-1.83632484627391e+001,-6.43969623993574e+000

3.83193185478053e+005,-1.83637108881887e+001,-6.52932177933947e+000

3.88542363006410e+005,-1.83641859294038e+001,-6.62018758720096e+000

3.93966212270369e+005,-1.83646739208477e+001,-6.71231055457263e+000

3.99465775648511e+005,-1.83651752053724e+001,-6.80570779286188e+000

4.05042110070485e+005,-1.83656901344068e+001,-6.90039663640661e+000

4.10696287220124e+005,-1.83662190681492e+001,-6.99639464507395e+000

4.16429393741414e+005,-1.83667623757626e+001,-7.09371960688331e+000

4.22242531447321e+005,-1.83673204355740e+001,-7.19238954065338e+000

4.28136817531551e+005,-1.83678936352768e+001,-7.29242269867285e+000

4.34113384783250e+005,-1.83684823721369e+001,-7.39383756939722e+000

4.40173381804713e+005,-1.83690870532026e+001,-7.49665288016868e+000

4.46317973232124e+005,-1.83697080955185e+001,-7.60088759996293e+000

4.52548339959385e+005,-1.83703459263421e+001,-7.70656094216086e+000

4.58865679365059e+005,-1.83710009833653e+001,-7.81369236734649e+000

4.65271205542494e+005,-1.83716737149394e+001,-7.92230158613100e+000

4.71766149533147e+005,-1.83723645803040e+001,-8.03240856200410e+000

4.78351759563174e+005,-1.83730740498194e+001,-8.14403351421229e+000

4.85029301283321e+005,-1.83738026052046e+001,-8.25719692066510e+000

4.91800058012158e+005,-1.83745507397775e+001,-8.37191952086912e+000

4.98665330982714e+005,-1.83753189587010e+001,-8.48822231889164e+000

5.05626439592555e+005,-1.83761077792326e+001,-8.60612658635177e+000

5.12684721657352e+005,-1.83769177309785e+001,-8.72565386544378e+000

5.19841533667984e+005,-1.83777493561529e+001,-8.84682597198836e+000

5.27098251051240e+005,-1.83786032098410e+001,-8.96966499851603e+000

5.34456268434150e+005,-1.83794798602677e+001,-9.09419331738194e+000

5.41916999912011e+005,-1.83803798890708e+001,-9.22043358391216e+000

