Freq.,VOut,OutRef

1.00000000000000e+004,-1.28190867882801e+001,-5.09896894114669e-002

1.01395947979003e+004,-1.28190868064456e+001,-5.17014781689100e-002

1.02811382665607e+004,-1.28190868251218e+001,-5.24232030936230e-002

1.04246576084112e+004,-1.28190868443230e+001,-5.31550028874153e-002

1.05701804056138e+004,-1.28190868640638e+001,-5.38970181919788e-002

1.07177346253629e+004,-1.28190868843598e+001,-5.46493916042024e-002

1.08673486252606e+004,-1.28190869052263e+001,-5.54122677192879e-002

1.10190511587661e+004,-1.28190869266793e+001,-5.61857931474156e-002

1.11728713807222e+004,-1.28190869487352e+001,-5.69701165472491e-002

1.13288388529580e+004,-1.28190869714114e+001,-5.77653886473257e-002

1.14869835499703e+004,-1.28190869947250e+001,-5.85717622857899e-002

1.16473358646846e+004,-1.28190870186938e+001,-5.93893924337856e-002

1.18099266142953e+004,-1.28190870433365e+001,-6.02184362219184e-002

1.19747870461893e+004,-1.28190870686717e+001,-6.10590529792782e-002

1.21419488439505e+004,-1.28190870947192e+001,-6.19114042541926e-002

1.23114441334492e+004,-1.28190871214991e+001,-6.27756538508162e-002

1.24833054890161e+004,-1.28190871490317e+001,-6.36519678636931e-002

1.26575659397028e+004,-1.28190871773382e+001,-6.45405147023661e-002

1.28342589756290e+004,-1.28190872064403e+001,-6.54414651288954e-002

1.30134185544193e+004,-1.28190872363606e+001,-6.63549922868196e-002

1.31950791077289e+004,-1.28190872671220e+001,-6.72812717383398e-002

1.33792755478611e+004,-1.28190872987480e+001,-6.82204814961113e-002

1.35660432744767e+004,-1.28190873312632e+001,-6.91728020562086e-002

1.37554181813974e+004,-1.28190873646921e+001,-7.01384164381244e-002

1.39474366635040e+004,-1.28190873990608e+001,-7.11175102109677e-002

1.41421356237309e+004,-1.28190874343955e+001,-7.21102715375330e-002

1.43395524801583e+004,-1.28190874707234e+001,-7.31168912058289e-002

1.45397251732031e+004,-1.28190875080725e+001,-7.41375626670380e-002

1.47426921729110e+004,-1.28190875464715e+001,-7.51724820731453e-002

1.49484924863494e+004,-1.28190875859499e+001,-7.62218483130360e-002

1.51571656651040e+004,-1.28190876265378e+001,-7.72858630543342e-002

1.53687518128801e+004,-1.28190876682666e+001,-7.83647307767131e-002

1.55832915932100e+004,-1.28190877111685e+001,-7.94586588156468e-002

1.58008262372675e+004,-1.28190877552762e+001,-8.05678573999702e-002

1.60213975517924e+004,-1.28190878006237e+001,-8.16925396945788e-002

1.62450479271247e+004,-1.28190878472458e+001,-8.28329218380010e-002

1.64718203453514e+004,-1.28190878951781e+001,-8.39892229872993e-002

1.67017583885674e+004,-1.28190879444581e+001,-8.51616653548994e-002

1.69349062472505e+004,-1.28190879951229e+001,-8.63504742616140e-002

1.71713087287550e+004,-1.28190880472119e+001,-8.75558781665128e-002

1.74110112659224e+004,-1.28190881007650e+001,-8.87781087218292e-002

1.76540599258131e+004,-1.28190881558231e+001,-9.00174008131816e-002

1.79005014185594e+004,-1.28190882124287e+001,-9.12739926021520e-002

1.81503831063432e+004,-1.28190882706254e+001,-9.25481255752202e-002

1.84037530124975e+004,-1.28190883304579e+001,-9.38400445912301e-002

1.86606598307361e+004,-1.28190883919718e+001,-9.51499979273996e-002

1.89211529345119e+004,-1.28190884552148e+001,-9.64782373231586e-002

1.91852823865052e+004,-1.28190885202351e+001,-9.78250180347940e-002

1.94530989482457e+004,-1.28190885870829e+001,-9.91905988794957e-002

1.97246540898671e+004,-1.28190886558095e+001,-1.00575242287977e-001

1.99999999999999e+004,-1.28190887264675e+001,-1.01979214354751e-001

2.02791895958005e+004,-1.28190887991115e+001,-1.03402784885681e-001

2.05622765331213e+004,-1.28190888737971e+001,-1.04846227455673e-001

2.08493152168224e+004,-1.28190889505815e+001,-1.06309819456531e-001

2.11403608112276e+004,-1.28190890295238e+001,-1.07793842152756e-001

2.14354692507258e+004,-1.28190891106848e+001,-1.09298580732168e-001

2.17346972505211e+004,-1.28190891941266e+001,-1.10824324366140e-001

2.20381023175322e+004,-1.28190892799133e+001,-1.12371366261666e-001

2.23457427614443e+004,-1.28190893681110e+001,-1.13940003715320e-001

2.26576777059159e+004,-1.28190894587871e+001,-1.15530538177491e-001

2.29739670999406e+004,-1.28190895520115e+001,-1.17143275302909e-001

2.32946717293690e+004,-1.28190896478554e+001,-1.18778525014974e-001

2.36198532285905e+004,-1.28190897463927e+001,-1.20436601560162e-001

2.39495740923785e+004,-1.28190898476992e+001,-1.22117823570455e-001

2.42838976879009e+004,-1.28190899518523e+001,-1.23822514129825e-001

2.46228882668982e+004,-1.28190900589321e+001,-1.25551000826503e-001

2.49666109780322e+004,-1.28190901690209e+001,-1.27303615823494e-001

2.53151318794055e+004,-1.28190902822030e+001,-1.29080695919317e-001

2.56685179512580e+004,-1.28190903985655e+001,-1.30882582612401e-001

2.60268371088386e+004,-1.28190905181975e+001,-1.32709622168463e-001

2.63901582154578e+004,-1.28190906411910e+001,-1.34562165685789e-001

2.67585510957221e+004,-1.28190907676403e+001,-1.36440569161511e-001

2.71320865489533e+004,-1.28190908976424e+001,-1.38345193564080e-001

2.75108363627948e+004,-1.28190910312971e+001,-1.40276404897636e-001

2.78948733270080e+004,-1.28190911687072e+001,-1.42234574273393e-001

2.82842712474618e+004,-1.28190913099777e+001,-1.44220077985469e-001

2.86791049603164e+004,-1.28190914552174e+001,-1.46233297576175e-001

2.90794503464061e+004,-1.28190916045374e+001,-1.48274619915160e-001

2.94853843458219e+004,-1.28190917580525e+001,-1.50344437270635e-001

2.98969849726987e+004,-1.28190919158804e+001,-1.52443147383723e-001

3.03143313302078e+004,-1.28190920781421e+001,-1.54571153549005e-001

3.07375036257601e+004,-1.28190922449622e+001,-1.56728864686548e-001

3.11665831864199e+004,-1.28190924164685e+001,-1.58916695426861e-001

3.16016524745350e+004,-1.28190925927926e+001,-1.61135066183573e-001

3.20427951035848e+004,-1.28190927740698e+001,-1.63384403237749e-001

3.24900958542493e+004,-1.28190929604391e+001,-1.65665138821311e-001

3.29436406907028e+004,-1.28190931520432e+001,-1.67977711197671e-001

3.34035167771346e+004,-1.28190933490293e+001,-1.70322564743999e-001

3.38698124945009e+004,-1.28190935515483e+001,-1.72700150041106e-001

3.43426174575100e+004,-1.28190937597555e+001,-1.75110923957080e-001

3.48220225318448e+004,-1.28190939738103e+001,-1.77555349735835e-001

3.53081198516260e+004,-1.28190941938771e+001,-1.80033897084204e-001

3.58010028371187e+004,-1.28190944201245e+001,-1.82547042264775e-001

3.63007662126863e+004,-1.28190946527257e+001,-1.85095268186924e-001

3.68075060249948e+004,-1.28190948918590e+001,-1.87679064497365e-001

3.73213196614721e+004,-1.28190951377078e+001,-1.90298927675149e-001

3.78423058690237e+004,-1.28190953904604e+001,-1.92955361127564e-001

3.83705647730104e+004,-1.28190956503104e+001,-1.95648875287702e-001

3.89061978964912e+004,-1.28190959174569e+001,-1.98379987708498e-001

3.94493081797342e+004,-1.28190961921043e+001,-2.01149223167618e-001

3.99999999999998e+004,-1.28190964744633e+001,-2.03957113762165e-001

4.05583791916010e+004,-1.28190967647499e+001,-2.06804199015399e-001

4.11245530662425e+004,-1.28190970631865e+001,-2.09691025978113e-001

4.16986304336447e+004,-1.28190973700014e+001,-2.12618149334935e-001

4.22807216224550e+004,-1.28190976854297e+001,-2.15586131507364e-001

4.28709385014515e+004,-1.28190980097126e+001,-2.18595542767268e-001

4.34693945010421e+004,-1.28190983430986e+001,-2.21646961339658e-001

4.40762046350642e+004,-1.28190986858427e+001,-2.24740973519658e-001

4.46914855228886e+004,-1.28190990382070e+001,-2.27878173781203e-001

4.53153554118317e+004,-1.28190994004614e+001,-2.31059164891398e-001

4.59479341998812e+004,-1.28190997728826e+001,-2.34284558029571e-001

4.65893434587380e+004,-1.28191001557558e+001,-2.37554972896924e-001

4.72397064571810e+004,-1.28191005493737e+001,-2.40871037844927e-001

4.78991481847569e+004,-1.28191009540371e+001,-2.44233389988766e-001

4.85677953758016e+004,-1.28191013700556e+001,-2.47642675330705e-001

4.92457765337964e+004,-1.28191017977470e+001,-2.51099548886561e-001

4.99332219560642e+004,-1.28191022374384e+001,-2.54604674809202e-001

5.06302637588109e+004,-1.28191026894656e+001,-2.58158726515798e-001

5.13370359025159e+004,-1.28191031541739e+001,-2.61762386817684e-001

5.20536742176771e+004,-1.28191036319187e+001,-2.65416348049429e-001

5.27803164309155e+004,-1.28191041230643e+001,-2.69121312205914e-001

5.35171021914442e+004,-1.28191046279860e+001,-2.72877991070857e-001

5.42641730979066e+004,-1.28191051470695e+001,-2.76687106356413e-001

5.50216727255895e+004,-1.28191056807106e+001,-2.80549389843725e-001

5.57897466540159e+004,-1.28191062293168e+001,-2.84465583516897e-001

5.65685424949235e+004,-1.28191067933068e+001,-2.88436439710663e-001

5.73582099206328e+004,-1.28191073731106e+001,-2.92462721253185e-001

5.81589006928121e+004,-1.28191079691703e+001,-2.96545201610314e-001

5.89707686916437e+004,-1.28191085819407e+001,-3.00684665034019e-001

5.97939699453972e+004,-1.28191092118889e+001,-3.04881906714888e-001

6.06286626604156e+004,-1.28191098594947e+001,-3.09137732932894e-001

6.14750072515201e+004,-1.28191105252517e+001,-3.13452961210697e-001

6.23331663728396e+004,-1.28191112096673e+001,-3.17828420469859e-001

6.32033049490698e+004,-1.28191119132624e+001,-3.22264951194300e-001

6.40855902071694e+004,-1.28191126365727e+001,-3.26763405584592e-001

6.49801917084985e+004,-1.28191133801491e+001,-3.31324647723365e-001

6.58872813814055e+004,-1.28191141445569e+001,-3.35949553744027e-001

6.68070335542691e+004,-1.28191149303780e+001,-3.40639011993230e-001

6.77396249890018e+004,-1.28191157382098e+001,-3.45393923203686e-001

6.86852349150199e+004,-1.28191165686666e+001,-3.50215200664806e-001

6.96440450636895e+004,-1.28191174223795e+001,-3.55103770400075e-001

7.06162397032520e+004,-1.28191182999971e+001,-3.60060571340820e-001

7.16020056742374e+004,-1.28191192021861e+001,-3.65086555506579e-001

7.26015324253724e+004,-1.28191201296313e+001,-3.70182688189965e-001

7.36150120499896e+004,-1.28191210830368e+001,-3.75349948136027e-001

7.46426393229441e+004,-1.28191220631259e+001,-3.80589327733841e-001

7.56846117380472e+004,-1.28191230706419e+001,-3.85901833203067e-001

7.67411295460207e+004,-1.28191241063488e+001,-3.91288484787323e-001

7.78123957929823e+004,-1.28191251710315e+001,-3.96750316949070e-001

7.88986163594682e+004,-1.28191262654964e+001,-4.02288378568366e-001

7.99999999999995e+004,-1.28191273905725e+001,-4.07903733138960e-001

8.11167583832018e+004,-1.28191285471111e+001,-4.13597458976534e-001

8.22491061324848e+004,-1.28191297359874e+001,-4.19370649420194e-001

8.33972608672892e+004,-1.28191309581006e+001,-4.25224413043595e-001

8.45614432449099e+004,-1.28191322143742e+001,-4.31159873866334e-001

8.57418770029029e+004,-1.28191335057576e+001,-4.37178171565647e-001

8.69387890020841e+004,-1.28191348332259e+001,-4.43280461697594e-001

8.81524092701283e+004,-1.28191361977810e+001,-4.49467915914519e-001

8.93829710457770e+004,-1.28191376004526e+001,-4.55741722188651e-001

9.06307108236633e+004,-1.28191390422979e+001,-4.62103085041064e-001

9.18958683997622e+004,-1.28191405244036e+001,-4.68553225766582e-001

9.31786869174758e+004,-1.28191420478861e+001,-4.75093382670928e-001

9.44794129143618e+004,-1.28191436138919e+001,-4.81724811303318e-001

9.57982963695136e+004,-1.28191452235992e+001,-4.88448784697257e-001

9.71355907516031e+004,-1.28191468782183e+001,-4.95266593611215e-001

9.84915530675926e+004,-1.28191485789923e+001,-5.02179546776758e-001

9.98664439121282e+004,-1.28191503271980e+001,-5.09188971145670e-001

1.01260527517622e+005,-1.28191521241474e+001,-5.16296212140634e-001

1.02674071805032e+005,-1.28191539711878e+001,-5.23502633915036e-001

1.04107348435354e+005,-1.28191558697034e+001,-5.30809619608555e-001

1.05560632861831e+005,-1.28191578211154e+001,-5.38218571613402e-001

1.07034204382888e+005,-1.28191598268842e+001,-5.45730911836097e-001

1.08528346195813e+005,-1.28191618885092e+001,-5.53348081972677e-001

1.10043345451179e+005,-1.28191640075304e+001,-5.61071543778359e-001

1.11579493308032e+005,-1.28191661855298e+001,-5.68902779345869e-001

1.13137084989847e+005,-1.28191684241315e+001,-5.76843291389130e-001

1.14716419841265e+005,-1.28191707250039e+001,-5.84894603523437e-001

1.16317801385624e+005,-1.28191730898599e+001,-5.93058260558704e-001

1.17941537383287e+005,-1.28191755204587e+001,-6.01335828789678e-001

1.19587939890794e+005,-1.28191780186064e+001,-6.09728896293851e-001

1.21257325320831e+005,-1.28191805861579e+001,-6.18239073231278e-001

1.22950014503040e+005,-1.28191832250174e+001,-6.26867992150193e-001

1.24666332745679e+005,-1.28191859371403e+001,-6.35617308294879e-001

1.26406609898139e+005,-1.28191887245341e+001,-6.44488699918506e-001

1.28171180414339e+005,-1.28191915892596e+001,-6.53483868602801e-001

1.29960383416997e+005,-1.28191945334327e+001,-6.62604539576855e-001

1.31774562762811e+005,-1.28191975592255e+001,-6.71852462043374e-001

1.33614067108538e+005,-1.28192006688673e+001,-6.81229409511632e-001

1.35479249978003e+005,-1.28192038646471e+001,-6.90737180126513e-001

1.37370469830040e+005,-1.28192071489138e+001,-7.00377597015456e-001

1.39288090127379e+005,-1.28192105240786e+001,-7.10152508624377e-001

1.41232479406504e+005,-1.28192139926162e+001,-7.20063789070696e-001

1.43204011348474e+005,-1.28192175570661e+001,-7.30113338495633e-001

1.45203064850745e+005,-1.28192212200346e+001,-7.40303083421258e-001

1.47230024099979e+005,-1.28192249841963e+001,-7.50634977111496e-001

1.49285278645888e+005,-1.28192288522954e+001,-7.61110999943076e-001

1.51369223476094e+005,-1.28192328271478e+001,-7.71733159774427e-001

1.53482259092041e+005,-1.28192369116428e+001,-7.82503492323789e-001

1.55624791585964e+005,-1.28192411087444e+001,-7.93424061552345e-001

1.57797232718936e+005,-1.28192454214933e+001,-8.04496960050535e-001

1.59999999999999e+005,-1.28192498530088e+001,-8.15724309430769e-001

1.62233516766403e+005,-1.28192544064909e+001,-8.27108260723639e-001

1.64498212264969e+005,-1.28192590852211e+001,-8.38650994783866e-001

1.66794521734578e+005,-1.28192638925655e+001,-8.50354722694717e-001

1.69122886489819e+005,-1.28192688319761e+001,-8.62221686185074e-001

1.71483754005805e+005,-1.28192739069927e+001,-8.74254158045492e-001

1.73877578004168e+005,-1.28192791212451e+001,-8.86454442555215e-001

1.76304818540256e+005,-1.28192844784551e+001,-8.98824875910280e-001

1.78765942091554e+005,-1.28192899824381e+001,-9.11367826660933e-001

1.81261421647326e+005,-1.28192956371060e+001,-9.24085696150875e-001

1.83791736799524e+005,-1.28193014464684e+001,-9.36980918968800e-001

1.86357373834951e+005,-1.28193074146353e+001,-9.50055963395528e-001

1.88958825828723e+005,-1.28193135458188e+001,-9.63313331869731e-001

1.91596592739027e+005,-1.28193198443359e+001,-9.76755561447090e-001

1.94271181503206e+005,-1.28193263146098e+001,-9.90385224275930e-001

1.96983106135185e+005,-1.28193329611728e+001,-1.00420492807175e+000

1.99732887824256e+005,-1.28193397886682e+001,-1.01821731660236e+000

2.02521055035243e+005,-1.28193468018528e+001,-1.03242507017644e+000

2.05348143610063e+005,-1.28193540055989e+001,-1.04683090614135e+000

2.08214696870707e+005,-1.28193614048965e+001,-1.06143757938378e+000

2.11121265723661e+005,-1.28193690048561e+001,-1.07624788284053e+000

2.14068408765776e+005,-1.28193768107103e+001,-1.09126464801454e+000

2.17056692391625e+005,-1.28193848278166e+001,-1.10649074549489e+000

2.20086690902357e+005,-1.28193930616596e+001,-1.12192908548801e+000

2.23158986616063e+005,-1.28194015178531e+001,-1.13758261835512e+000

2.26274169979693e+005,-1.28194102021429e+001,-1.15345433515035e+000

2.29432839682530e+005,-1.28194191204084e+001,-1.16954726817656e+000

2.32635602771247e+005,-1.28194282786656e+001,-1.18586449153706e+000

2.35883074766574e+005,-1.28194376830690e+001,-1.20240912170373e+000

2.39175879781588e+005,-1.28194473399141e+001,-1.21918431808657e+000

2.42514650641661e+005,-1.28194572556393e+001,-1.23619328361267e+000

2.45900029006080e+005,-1.28194674368285e+001,-1.25343926531258e+000

2.49332665491357e+005,-1.28194778902133e+001,-1.27092555491457e+000

2.52813219796278e+005,-1.28194886226751e+001,-1.28865548944472e+000

2.56342360828676e+005,-1.28194996412469e+001,-1.30663245183764e+000

2.59920766833993e+005,-1.28195109531163e+001,-1.32485987155120e+000

2.63549125525621e+005,-1.28195225656266e+001,-1.34334122519349e+000

2.67228134217075e+005,-1.28195344862793e+001,-1.36208003715471e+000

2.70958499956006e+005,-1.28195467227361e+001,-1.38107988024669e+000

2.74740939660078e+005,-1.28195592828203e+001,-1.40034437635479e+000

2.78576180254757e+005,-1.28195721745193e+001,-1.41987719709252e+000

2.82464958813007e+005,-1.28195854059859e+001,-1.43968206446907e+000

2.86408022696948e+005,-1.28195989855398e+001,-1.45976275156229e+000

2.90406129701488e+005,-1.28196129216695e+001,-1.48012308320362e+000

2.94460048199957e+005,-1.28196272230333e+001,-1.50076693666804e+000

2.98570557291775e+005,-1.28196418984614e+001,-1.52169824237474e+000

3.02738446952187e+005,-1.28196569569559e+001,-1.54292098459849e+000

3.06964518184081e+005,-1.28196724076931e+001,-1.56443920218612e+000

3.11249583171928e+005,-1.28196882600233e+001,-1.58625698928590e+000

3.15594465437872e+005,-1.28197045234724e+001,-1.60837849608531e+000

3.19999999999997e+005,-1.28197212077418e+001,-1.63080792955660e+000

3.24467033532806e+005,-1.28197383227094e+001,-1.65354955421453e+000

3.28996424529938e+005,-1.28197558784296e+001,-1.67660769288182e+000

3.33589043469155e+005,-1.28197738851328e+001,-1.69998672746695e+000

3.38245772979638e+005,-1.28197923532259e+001,-1.72369109974964e+000

3.42967508011610e+005,-1.28198112932915e+001,-1.74772531217797e+000

3.47755156008335e+005,-1.28198307160872e+001,-1.77209392867516e+000

3.52609637080511e+005,-1.28198506325446e+001,-1.79680157545885e+000

3.57531884183106e+005,-1.28198710537681e+001,-1.82185294186829e+000

3.62522843294651e+005,-1.28198919910334e+001,-1.84725278120538e+000

3.67583473599047e+005,-1.28199134557858e+001,-1.87300591158387e+000

3.72714747669902e+005,-1.28199354596374e+001,-1.89911721679398e+000

3.77917651657445e+005,-1.28199580143652e+001,-1.92559164717391e+000

3.83193185478053e+005,-1.28199811319082e+001,-1.95243422049810e+000

3.88542363006410e+005,-1.28200048243636e+001,-1.97965002287210e+000

3.93966212270369e+005,-1.28200291039836e+001,-2.00724420964471e+000

3.99465775648511e+005,-1.28200539831710e+001,-2.03522200633012e+000

4.05042110070485e+005,-1.28200794744751e+001,-2.06358870954269e+000

4.10696287220124e+005,-1.28201055905862e+001,-2.09234968794505e+000

4.16429393741414e+005,-1.28201323443303e+001,-2.12151038321065e+000

4.22242531447321e+005,-1.28201597486632e+001,-2.15107631099847e+000

4.28136817531551e+005,-1.28201878166641e+001,-2.18105306194134e+000

4.34113384783250e+005,-1.28202165615283e+001,-2.21144630265062e+000

4.40173381804713e+005,-1.28202459965599e+001,-2.24226177673217e+000

4.46317973232124e+005,-1.28202761351630e+001,-2.27350530582044e+000

4.52548339959385e+005,-1.28203069908340e+001,-2.30518279062514e+000

4.58865679365059e+005,-1.28203385771509e+001,-2.33730021199483e+000

4.65271205542494e+005,-1.28203709077645e+001,-2.36986363199581e+000

4.71766149533147e+005,-1.28204039963866e+001,-2.40287919500733e+000

4.78351759563174e+005,-1.28204378567793e+001,-2.43635312883471e+000

4.85029301283321e+005,-1.28204725027424e+001,-2.47029174583623e+000

4.91800058012158e+005,-1.28205079481012e+001,-2.50470144407204e+000

4.98665330982714e+005,-1.28205442066921e+001,-2.53958870846719e+000

5.05626439592555e+005,-1.28205812923489e+001,-2.57496011199540e+000

5.12684721657352e+005,-1.28206192188873e+001,-2.61082231688006e+000

5.19841533667984e+005,-1.28206580000893e+001,-2.64718207581626e+000

5.27098251051240e+005,-1.28206976496862e+001,-2.68404623321188e+000

5.34456268434150e+005,-1.28207381813412e+001,-2.72142172644842e+000

5.41916999912011e+005,-1.28207796086309e+001,-2.75931558716388e+000

