Freq.,VOut,OutRef

1.00000000000000e+004,-2.64555728584850e+001,-4.37104643457567e-001

1.01395947979003e+004,-2.64555756177213e+001,-4.43206338344341e-001

1.02811382665607e+004,-2.64555784545285e+001,-4.49393207230408e-001

1.04246576084112e+004,-2.64555813710870e+001,-4.55666438996667e-001

1.05701804056138e+004,-2.64555843696388e+001,-4.62027239112285e-001

1.07177346253629e+004,-2.64555874524891e+001,-4.68476829872275e-001

1.08673486252606e+004,-2.64555906220075e+001,-4.75016450628067e-001

1.10190511587661e+004,-2.64555938806306e+001,-4.81647358026010e-001

1.11728713807222e+004,-2.64555972308632e+001,-4.88370826251247e-001

1.13288388529580e+004,-2.64556006752807e+001,-4.95188147268829e-001

1.14869835499703e+004,-2.64556042165308e+001,-5.02100631073410e-001

1.16473358646846e+004,-2.64556078573357e+001,-5.09109605941434e-001

1.18099266142953e+004,-2.64556116004940e+001,-5.16216418683360e-001

1.19747870461893e+004,-2.64556154488831e+001,-5.23422434906116e-001

1.21419488439505e+004,-2.64556194054612e+001,-5.30729039271557e-001

1.23114441334492e+004,-2.64556234732698e+001,-5.38137635763204e-001

1.24833054890161e+004,-2.64556276554356e+001,-5.45649647957547e-001

1.26575659397028e+004,-2.64556319551734e+001,-5.53266519295285e-001

1.28342589756290e+004,-2.64556363757885e+001,-5.60989713357649e-001

1.30134185544193e+004,-2.64556409206788e+001,-5.68820714149328e-001

1.31950791077289e+004,-2.64556455933379e+001,-5.76761026382704e-001

1.33792755478611e+004,-2.64556503973574e+001,-5.84812175765191e-001

1.35660432744767e+004,-2.64556553364303e+001,-5.92975709292895e-001

1.37554181813974e+004,-2.64556604143529e+001,-6.01253195547453e-001

1.39474366635040e+004,-2.64556656350286e+001,-6.09646224996860e-001

1.41421356237309e+004,-2.64556710024702e+001,-6.18156410300411e-001

1.43395524801583e+004,-2.64556765208035e+001,-6.26785386618564e-001

1.45397251732031e+004,-2.64556821942701e+001,-6.35534811925440e-001

1.47426921729110e+004,-2.64556880272311e+001,-6.44406367327004e-001

1.49484924863494e+004,-2.64556940241700e+001,-6.53401757385336e-001

1.51571656651040e+004,-2.64557001896961e+001,-6.62522710443505e-001

1.53687518128801e+004,-2.64557065285488e+001,-6.71770978956511e-001

1.55832915932100e+004,-2.64557130456003e+001,-6.81148339829897e-001

1.58008262372675e+004,-2.64557197458596e+001,-6.90656594758684e-001

1.60213975517924e+004,-2.64557266344771e+001,-7.00297570571459e-001

1.62450479271247e+004,-2.64557337167474e+001,-7.10073119583829e-001

1.64718203453514e+004,-2.64557409981140e+001,-7.19985119951358e-001

1.67017583885674e+004,-2.64557484841738e+001,-7.30035476029311e-001

1.69349062472505e+004,-2.64557561806804e+001,-7.40226118740027e-001

1.71713087287550e+004,-2.64557640935497e+001,-7.50559005938977e-001

1.74110112659224e+004,-2.64557722288634e+001,-7.61036122793514e-001

1.76540599258131e+004,-2.64557805928743e+001,-7.71659482162705e-001

1.79005014185594e+004,-2.64557891920110e+001,-7.82431124981375e-001

1.81503831063432e+004,-2.64557980328828e+001,-7.93353120651558e-001

1.84037530124975e+004,-2.64558071222846e+001,-8.04427567440219e-001

1.86606598307361e+004,-2.64558164672023e+001,-8.15656592881166e-001

1.89211529345119e+004,-2.64558260748184e+001,-8.27042354179205e-001

1.91852823865052e+004,-2.64558359525168e+001,-8.38587038629055e-001

1.94530989482457e+004,-2.64558461078893e+001,-8.50292864028474e-001

1.97246540898671e+004,-2.64558565487408e+001,-8.62162079106006e-001

1.99999999999999e+004,-2.64558672830957e+001,-8.74196963951979e-001

2.02791895958005e+004,-2.64558783192039e+001,-8.86399830452901e-001

2.05622765331213e+004,-2.64558896655470e+001,-8.98773022735540e-001

2.08493152168224e+004,-2.64559013308452e+001,-9.11318917614126e-001

2.11403608112276e+004,-2.64559133240634e+001,-9.24039925047331e-001

2.14354692507258e+004,-2.64559256544188e+001,-9.36938488597803e-001

2.17346972505211e+004,-2.64559383313874e+001,-9.50017085900096e-001

2.20381023175322e+004,-2.64559513647115e+001,-9.63278229134084e-001

2.23457427614443e+004,-2.64559647644072e+001,-9.76724465506810e-001

2.26576777059159e+004,-2.64559785407720e+001,-9.90358377738875e-001

2.29739670999406e+004,-2.64559927043929e+001,-1.00418258455797e+000

2.32946717293690e+004,-2.64560072661541e+001,-1.01819974119963e+000

2.36198532285905e+004,-2.64560222372461e+001,-1.03241253991542e+000

2.39495740923785e+004,-2.64560376291733e+001,-1.04682371048791e+000

2.42838976879009e+004,-2.64560534537638e+001,-1.06143602075028e+000

2.46228882668982e+004,-2.64560697231776e+001,-1.07625227711784e+000

2.49666109780322e+004,-2.64560864499168e+001,-1.09127532512276e+000

2.53151318794055e+004,-2.64561036468345e+001,-1.10650804995680e+000

2.56685179512580e+004,-2.64561213271450e+001,-1.12195337702449e+000

2.60268371088386e+004,-2.64561395044339e+001,-1.13761427250000e+000

2.63901582154578e+004,-2.64561581926683e+001,-1.15349374389483e+000

2.67585510957221e+004,-2.64561774062079e+001,-1.16959484063039e+000

2.71320865489533e+004,-2.64561971598159e+001,-1.18592065462046e+000

2.75108363627948e+004,-2.64562174686700e+001,-1.20247432086178e+000

2.78948733270080e+004,-2.64562383483744e+001,-1.21925901803189e+000

2.82842712474618e+004,-2.64562598149716e+001,-1.23627796909537e+000

2.86791049603164e+004,-2.64562818849550e+001,-1.25353444191715e+000

2.90794503464061e+004,-2.64563045752810e+001,-1.27103174988788e+000

2.94853843458219e+004,-2.64563279033824e+001,-1.28877325255345e+000

2.98969849726987e+004,-2.64563518871819e+001,-1.30676235625630e+000

3.03143313302078e+004,-2.64563765451053e+001,-1.32500251478398e+000

3.07375036257601e+004,-2.64564018960961e+001,-1.34349723002703e+000

3.11665831864199e+004,-2.64564279596301e+001,-1.36225005264549e+000

3.16016524745350e+004,-2.64564547557297e+001,-1.38126458274530e+000

3.20427951035848e+004,-2.64564823049800e+001,-1.40054447056359e+000

3.24900958542493e+004,-2.64565106285440e+001,-1.42009341716254e+000

3.29436406907028e+004,-2.64565397481792e+001,-1.43991517513379e+000

3.34035167771346e+004,-2.64565696862541e+001,-1.46001354931222e+000

3.38698124945009e+004,-2.64566004657654e+001,-1.48039239749852e+000

3.43426174575100e+004,-2.64566321103555e+001,-1.50105563119313e+000

3.48220225318448e+004,-2.64566646443308e+001,-1.52200721633875e+000

3.53081198516260e+004,-2.64566980926802e+001,-1.54325117407365e+000

3.58010028371187e+004,-2.64567324810943e+001,-1.56479158149604e+000

3.63007662126863e+004,-2.64567678359849e+001,-1.58663257243614e+000

3.68075060249948e+004,-2.64568041845056e+001,-1.60877833824150e+000

3.73213196614721e+004,-2.64568415545722e+001,-1.63123312857226e+000

3.78423058690237e+004,-2.64568799748845e+001,-1.65400125220572e+000

3.83705647730104e+004,-2.64569194749476e+001,-1.67708707785383e+000

3.89061978964912e+004,-2.64569600850953e+001,-1.70049503499043e+000

3.94493081797342e+004,-2.64570018365127e+001,-1.72422961468984e+000

3.99999999999998e+004,-2.64570447612603e+001,-1.74829537047701e+000

4.05583791916010e+004,-2.64570888922987e+001,-1.77269691918923e+000

4.11245530662425e+004,-2.64571342635135e+001,-1.79743894184891e+000

4.16986304336447e+004,-2.64571809097414e+001,-1.82252618454880e+000

4.22807216224550e+004,-2.64572288667968e+001,-1.84796345934795e+000

4.28709385014515e+004,-2.64572781714992e+001,-1.87375564518176e+000

4.34693945010421e+004,-2.64573288617014e+001,-1.89990768878111e+000

4.40762046350642e+004,-2.64573809763185e+001,-1.92642460560743e+000

4.46914855228886e+004,-2.64574345553573e+001,-1.95331148079684e+000

4.53153554118317e+004,-2.64574896399475e+001,-1.98057347011972e+000

4.59479341998812e+004,-2.64575462723724e+001,-2.00821580095095e+000

4.65893434587380e+004,-2.64576044961019e+001,-2.03624377325382e+000

4.72397064571810e+004,-2.64576643558251e+001,-2.06466276057836e+000

4.78991481847569e+004,-2.64577258974851e+001,-2.09347821106972e+000

4.85677953758016e+004,-2.64577891683132e+001,-2.12269564849421e+000

4.92457765337964e+004,-2.64578542168661e+001,-2.15232067327391e+000

4.99332219560642e+004,-2.64579210930618e+001,-2.18235896354016e+000

5.06302637588109e+004,-2.64579898482185e+001,-2.21281627619696e+000

5.13370359025159e+004,-2.64580605350935e+001,-2.24369844799946e+000

5.20536742176771e+004,-2.64581332079236e+001,-2.27501139664853e+000

5.27803164309155e+004,-2.64582079224660e+001,-2.30676112189689e+000

5.35171021914442e+004,-2.64582847360416e+001,-2.33895370667080e+000

5.42641730979066e+004,-2.64583637075778e+001,-2.37159531820820e+000

5.50216727255895e+004,-2.64584448976541e+001,-2.40469220920785e+000

5.57897466540159e+004,-2.64585283685483e+001,-2.43825071899762e+000

5.65685424949235e+004,-2.64586141842833e+001,-2.47227727471476e+000

5.73582099206328e+004,-2.64587024106764e+001,-2.50677839250369e+000

5.81589006928121e+004,-2.64587931153895e+001,-2.54176067872729e+000

5.89707686916437e+004,-2.64588863679801e+001,-2.57723083119597e+000

5.97939699453972e+004,-2.64589822399548e+001,-2.61319564041032e+000

6.06286626604156e+004,-2.64590808048233e+001,-2.64966199082200e+000

6.14750072515201e+004,-2.64591821381545e+001,-2.68663686210892e+000

6.23331663728396e+004,-2.64592863176340e+001,-2.72412733046737e+000

6.32033049490698e+004,-2.64593934231230e+001,-2.76214056992153e+000

6.40855902071694e+004,-2.64595035367193e+001,-2.80068385364798e+000

6.49801917084985e+004,-2.64596167428193e+001,-2.83976455531851e+000

6.58872813814055e+004,-2.64597331281822e+001,-2.87939015045810e+000

6.68070335542691e+004,-2.64598527819962e+001,-2.91956821782273e+000

6.77396249890018e+004,-2.64599757959456e+001,-2.96030644079177e+000

6.86852349150199e+004,-2.64601022642809e+001,-3.00161260877932e+000

6.96440450636895e+004,-2.64602322838901e+001,-3.04349461866253e+000

7.06162397032520e+004,-2.64603659543719e+001,-3.08596047622878e+000

7.16020056742374e+004,-2.64605033781115e+001,-3.12901829763908e+000

7.26015324253724e+004,-2.64606446603582e+001,-3.17267631091033e+000

7.36150120499896e+004,-2.64607899093048e+001,-3.21694285741702e+000

7.46426393229441e+004,-2.64609392361696e+001,-3.26182639340902e+000

7.56846117380472e+004,-2.64610927552806e+001,-3.30733549155012e+000

7.67411295460207e+004,-2.64612505841620e+001,-3.35347884247329e+000

7.78123957929823e+004,-2.64614128436228e+001,-3.40026525635651e+000

7.88986163594682e+004,-2.64615796578485e+001,-3.44770366451615e+000

7.99999999999995e+004,-2.64617511544944e+001,-3.49580312102114e+000

8.11167583832018e+004,-2.64619274647821e+001,-3.54457280432355e+000

8.22491061324848e+004,-2.64621087235985e+001,-3.59402201891253e+000

8.33972608672892e+004,-2.64622950695979e+001,-3.64416019698376e+000

8.45614432449099e+004,-2.64624866453056e+001,-3.69499690013130e+000

8.57418770029029e+004,-2.64626835972261e+001,-3.74654182105816e+000

8.69387890020841e+004,-2.64628860759528e+001,-3.79880478530651e+000

8.81524092701283e+004,-2.64630942362816e+001,-3.85179575300818e+000

8.93829710457770e+004,-2.64633082373271e+001,-3.90552482065600e+000

9.06307108236633e+004,-2.64635282426420e+001,-3.96000222289377e+000

9.18958683997622e+004,-2.64637544203405e+001,-4.01523833432703e+000

9.31786869174758e+004,-2.64639869432237e+001,-4.07124367135565e+000

9.44794129143618e+004,-2.64642259889095e+001,-4.12802889402508e+000

9.57982963695136e+004,-2.64644717399657e+001,-4.18560480789829e+000

9.71355907516031e+004,-2.64647243840465e+001,-4.24398236594944e+000

9.84915530675926e+004,-2.64649841140333e+001,-4.30317267047734e+000

9.98664439121282e+004,-2.64652511281784e+001,-4.36318697503958e+000

1.01260527517622e+005,-2.64655256302532e+001,-4.42403668640787e+000

1.02674071805032e+005,-2.64658078297006e+001,-4.48573336654323e+000

1.04107348435354e+005,-2.64660979417909e+001,-4.54828873459374e+000

1.05560632861831e+005,-2.64663961877821e+001,-4.61171466891103e+000

1.07034204382888e+005,-2.64667027950852e+001,-4.67602320908879e+000

1.08528346195813e+005,-2.64670179974323e+001,-4.74122655802181e+000

1.10043345451179e+005,-2.64673420350515e+001,-4.80733708398562e+000

1.11579493308032e+005,-2.64676751548442e+001,-4.87436732273746e+000

1.13137084989847e+005,-2.64680176105687e+001,-4.94232997963677e+000

1.14716419841265e+005,-2.64683696630283e+001,-5.01123793178745e+000

1.16317801385624e+005,-2.64687315802640e+001,-5.08110423020021e+000

1.17941537383287e+005,-2.64691036377529e+001,-5.15194210197482e+000

1.19587939890794e+005,-2.64694861186114e+001,-5.22376495250388e+000

1.21257325320831e+005,-2.64698793138042e+001,-5.29658636769592e+000

1.22950014503040e+005,-2.64702835223587e+001,-5.37042011621836e+000

1.24666332745679e+005,-2.64706990515850e+001,-5.44528015176086e+000

1.26406609898139e+005,-2.64711262173017e+001,-5.52118061531883e+000

1.28171180414339e+005,-2.64715653440678e+001,-5.59813583749503e+000

1.29960383416997e+005,-2.64720167654205e+001,-5.67616034082172e+000

1.31774562762811e+005,-2.64724808241197e+001,-5.75526884210113e+000

1.33614067108538e+005,-2.64729578723980e+001,-5.83547625476497e+000

1.35479249978003e+005,-2.64734482722187e+001,-5.91679769125219e+000

1.37370469830040e+005,-2.64739523955387e+001,-5.99924846540533e+000

1.39288090127379e+005,-2.64744706245799e+001,-6.08284409488343e+000

1.41232479406504e+005,-2.64750033521068e+001,-6.16760030359382e+000

1.43204011348474e+005,-2.64755509817113e+001,-6.25353302414028e+000

1.45203064850745e+005,-2.64761139281053e+001,-6.34065840028704e+000

1.47230024099979e+005,-2.64766926174205e+001,-6.42899278943965e+000

1.49285278645888e+005,-2.64772874875161e+001,-6.51855276514150e+000

1.51369223476094e+005,-2.64778989882942e+001,-6.60935511958471e+000

1.53482259092041e+005,-2.64785275820234e+001,-6.70141686613556e+000

1.55624791585964e+005,-2.64791737436709e+001,-6.79475524187454e+000

1.57797232718936e+005,-2.64798379612427e+001,-6.88938771014870e+000

1.59999999999999e+005,-2.64805207361325e+001,-6.98533196313644e+000

1.62233516766403e+005,-2.64812225834795e+001,-7.08260592442461e+000

1.64498212264969e+005,-2.64819440325357e+001,-7.18122775159628e+000

1.66794521734578e+005,-2.64826856270412e+001,-7.28121583882839e+000

1.69122886489819e+005,-2.64834479256104e+001,-7.38258881949978e+000

1.71483754005805e+005,-2.64842315021267e+001,-7.48536556880503e+000

1.73877578004168e+005,-2.64850369461478e+001,-7.58956520637909e+000

1.76304818540256e+005,-2.64858648633204e+001,-7.69520709892530e+000

1.78765942091554e+005,-2.64867158758058e+001,-7.80231086285018e+000

1.81261421647326e+005,-2.64875906227154e+001,-7.91089636690218e+000

1.83791736799524e+005,-2.64884897605572e+001,-8.02098373481271e+000

1.86357373834951e+005,-2.64894139636932e+001,-8.13259334793977e+000

1.88958825828723e+005,-2.64903639248079e+001,-8.24574584791085e+000

1.91596592739027e+005,-2.64913403553877e+001,-8.36046213926593e+000

1.94271181503206e+005,-2.64923439862128e+001,-8.47676339209713e+000

1.96983106135185e+005,-2.64933755678598e+001,-8.59467104468445e+000

1.99732887824256e+005,-2.64944358712172e+001,-8.71420680612643e+000

2.02521055035243e+005,-2.64955256880122e+001,-8.83539265896302e+000

2.05348143610063e+005,-2.64966458313514e+001,-8.95825086178915e+000

2.08214696870707e+005,-2.64977971362721e+001,-9.08280395185880e+000

2.11121265723661e+005,-2.64989804603084e+001,-9.20907474767423e+000

2.14068408765776e+005,-2.65001966840694e+001,-9.33708635156236e+000

2.17056692391625e+005,-2.65014467118311e+001,-9.46686215223328e+000

2.20086690902357e+005,-2.65027314721415e+001,-9.59842582732013e+000

2.23158986616063e+005,-2.65040519184399e+001,-9.73180134589732e+000

2.26274169979693e+005,-2.65054090296899e+001,-9.86701297097550e+000

2.29432839682530e+005,-2.65068038110268e+001,-1.00040852619710e+001

2.32635602771247e+005,-2.65082372944193e+001,-1.01430430771450e+001

2.35883074766574e+005,-2.65097105393458e+001,-1.02839115760131e+001

2.39175879781588e+005,-2.65112246334855e+001,-1.04267162217205e+001

2.42514650641661e+005,-2.65127806934250e+001,-1.05714827833793e+001

2.45900029006080e+005,-2.65143798653794e+001,-1.07182373383670e+001

2.49332665491357e+005,-2.65160233259290e+001,-1.08670062745820e+001

2.52813219796278e+005,-2.65177122827724e+001,-1.10178162926520e+001

2.56342360828676e+005,-2.65194479754944e+001,-1.11706944080940e+001

2.59920766833993e+005,-2.65212316763497e+001,-1.13256679534210e+001

2.63549125525621e+005,-2.65230646910643e+001,-1.14827645801916e+001

2.67228134217075e+005,-2.65249483596511e+001,-1.16420122610007e+001

2.70958499956006e+005,-2.65268840572435e+001,-1.18034392914046e+001

2.74740939660078e+005,-2.65288731949444e+001,-1.19670742917797e+001

2.78576180254757e+005,-2.65309172206928e+001,-1.21329462091083e+001

2.82464958813007e+005,-2.65330176201467e+001,-1.23010843186878e+001

2.86408022696948e+005,-2.65351759175825e+001,-1.24715182257608e+001

2.90406129701488e+005,-2.65373936768120e+001,-1.26442778670583e+001

2.94460048199957e+005,-2.65396725021165e+001,-1.28193935122546e+001

2.98570557291775e+005,-2.65420140391966e+001,-1.29968957653269e+001

3.02738446952187e+005,-2.65444199761410e+001,-1.31768155658161e+001

3.06964518184081e+005,-2.65468920444110e+001,-1.33591841899827e+001

3.11249583171928e+005,-2.65494320198424e+001,-1.35440332518535e+001

3.15594465437872e+005,-2.65520417236649e+001,-1.37313947041530e+001

3.19999999999997e+005,-2.65547230235375e+001,-1.39213008391147e+001

3.24467033532806e+005,-2.65574778346022e+001,-1.41137842891660e+001

3.28996424529938e+005,-2.65603081205530e+001,-1.43088780274818e+001

3.33589043469155e+005,-2.65632158947228e+001,-1.45066153684003e+001

3.38245772979638e+005,-2.65662032211860e+001,-1.47070299676938e+001

3.42967508011610e+005,-2.65692722158777e+001,-1.49101558226921e+001

3.47755156008335e+005,-2.65724250477290e+001,-1.51160272722473e+001

3.52609637080511e+005,-2.65756639398182e+001,-1.53246789965366e+001

3.57531884183106e+005,-2.65789911705369e+001,-1.55361460166964e+001

3.62522843294651e+005,-2.65824090747727e+001,-1.57504636942801e+001

3.67583473599047e+005,-2.65859200451048e+001,-1.59676677305320e+001

3.72714747669902e+005,-2.65895265330159e+001,-1.61877941654730e+001

3.77917651657445e+005,-2.65932310501166e+001,-1.64108793767889e+001

3.83193185478053e+005,-2.65970361693839e+001,-1.66369600785134e+001

3.88542363006410e+005,-2.66009445264128e+001,-1.68660733195015e+001

3.93966212270369e+005,-2.66049588206799e+001,-1.70982564816829e+001

3.99465775648511e+005,-2.66090818168182e+001,-1.73335472780904e+001

4.05042110070485e+005,-2.66133163459042e+001,-1.75719837506530e+001

4.10696287220124e+005,-2.66176653067535e+001,-1.78136042677488e+001

4.16429393741414e+005,-2.66221316672273e+001,-1.80584475215090e+001

4.22242531447321e+005,-2.66267184655466e+001,-1.83065525248638e+001

4.28136817531551e+005,-2.66314288116139e+001,-1.85579586083254e+001

4.34113384783250e+005,-2.66362658883423e+001,-1.88127054164977e+001

4.40173381804713e+005,-2.66412329529891e+001,-1.90708329043067e+001

4.46317973232124e+005,-2.66463333384948e+001,-1.93323813329421e+001

4.52548339959385e+005,-2.66515704548242e+001,-1.95973912655045e+001

4.58865679365059e+005,-2.66569477903109e+001,-1.98659035623483e+001

4.65271205542494e+005,-2.66624689130008e+001,-2.01379593761144e+001

4.71766149533147e+005,-2.66681374719964e+001,-2.04136001464441e+001

4.78351759563174e+005,-2.66739571987971e+001,-2.06928675943674e+001

4.85029301283321e+005,-2.66799319086372e+001,-2.09758037163570e+001

4.91800058012158e+005,-2.66860655018174e+001,-2.12624507780434e+001

4.98665330982714e+005,-2.66923619650294e+001,-2.15528513075812e+001

5.05626439592555e+005,-2.66988253726712e+001,-2.18470480886616e+001

5.12684721657352e+005,-2.67054598881519e+001,-2.21450841531633e+001

5.19841533667984e+005,-2.67122697651830e+001,-2.24470027734374e+001

5.27098251051240e+005,-2.67192593490550e+001,-2.27528474542173e+001

5.34456268434150e+005,-2.67264330778967e+001,-2.30626619241497e+001

5.41916999912011e+005,-2.67337954839149e+001,-2.33764901269420e+001

