Freq.,VOut,OutRef

1.00000000000000e+004,-1.49055303272365e+001,-1.94446374652172e-001

1.01395947979003e+004,-1.49055305392262e+001,-1.97160740937575e-001

1.02811382665607e+004,-1.49055307571756e+001,-1.99912998196473e-001

1.04246576084112e+004,-1.49055309812522e+001,-2.02703675360009e-001

1.05701804056138e+004,-1.49055312116281e+001,-2.05533308743515e-001

1.07177346253629e+004,-1.49055314484807e+001,-2.08402442145798e-001

1.08673486252606e+004,-1.49055316919918e+001,-2.11311626960662e-001

1.10190511587661e+004,-1.49055319423486e+001,-2.14261422275433e-001

1.11728713807222e+004,-1.49055321997439e+001,-2.17252394981985e-001

1.13288388529580e+004,-1.49055324643751e+001,-2.20285119887974e-001

1.14869835499703e+004,-1.49055327364459e+001,-2.23360179822079e-001

1.16473358646846e+004,-1.49055330161653e+001,-2.26478165748990e-001

1.18099266142953e+004,-1.49055333037483e+001,-2.29639676883532e-001

1.19747870461893e+004,-1.49055335994163e+001,-2.32845320802597e-001

1.21419488439505e+004,-1.49055339033961e+001,-2.36095713567728e-001

1.23114441334492e+004,-1.49055342159217e+001,-2.39391479835973e-001

1.24833054890161e+004,-1.49055345372330e+001,-2.42733252987208e-001

1.26575659397028e+004,-1.49055348675774e+001,-2.46121675239933e-001

1.28342589756290e+004,-1.49055352072085e+001,-2.49557397778235e-001

1.30134185544193e+004,-1.49055355563874e+001,-2.53041080875851e-001

1.31950791077289e+004,-1.49055359153826e+001,-2.56573394022457e-001

1.33792755478611e+004,-1.49055362844701e+001,-2.60155016053179e-001

1.35660432744767e+004,-1.49055366639335e+001,-2.63786635278699e-001

1.37554181813974e+004,-1.49055370540644e+001,-2.67468949617559e-001

1.39474366635040e+004,-1.49055374551629e+001,-2.71202666730369e-001

1.41421356237309e+004,-1.49055378675371e+001,-2.74988504154513e-001

1.43395524801583e+004,-1.49055382915040e+001,-2.78827189445400e-001

1.45397251732031e+004,-1.49055387273896e+001,-2.82719460310850e-001

1.47426921729110e+004,-1.49055391755288e+001,-2.86666064757890e-001

1.49484924863494e+004,-1.49055396362662e+001,-2.90667761234376e-001

1.51571656651040e+004,-1.49055401099557e+001,-2.94725318774729e-001

1.53687518128801e+004,-1.49055405969616e+001,-2.98839517146526e-001

1.55832915932100e+004,-1.49055410976582e+001,-3.03011147003369e-001

1.58008262372675e+004,-1.49055416124302e+001,-3.07241010034613e-001

1.60213975517924e+004,-1.49055421416734e+001,-3.11529919117546e-001

1.62450479271247e+004,-1.49055426857945e+001,-3.15878698478872e-001

1.64718203453514e+004,-1.49055432452118e+001,-3.20288183847662e-001

1.67017583885674e+004,-1.49055438203553e+001,-3.24759222618546e-001

1.69349062472505e+004,-1.49055444116668e+001,-3.29292674015692e-001

1.71713087287550e+004,-1.49055450196011e+001,-3.33889409253790e-001

1.74110112659224e+004,-1.49055456446251e+001,-3.38550311710274e-001

1.76540599258131e+004,-1.49055462872195e+001,-3.43276277091059e-001

1.79005014185594e+004,-1.49055469478779e+001,-3.48068213604466e-001

1.81503831063432e+004,-1.49055476271084e+001,-3.52927042135505e-001

1.84037530124975e+004,-1.49055483254326e+001,-3.57853696423466e-001

1.86606598307361e+004,-1.49055490433876e+001,-3.62849123239220e-001

1.89211529345119e+004,-1.49055497815249e+001,-3.67914282568722e-001

1.91852823865052e+004,-1.49055505404120e+001,-3.73050147797675e-001

1.94530989482457e+004,-1.49055513206319e+001,-3.78257705896954e-001

1.97246540898671e+004,-1.49055521227845e+001,-3.83537957613700e-001

1.99999999999999e+004,-1.49055529474859e+001,-3.88891917663428e-001

2.02791895958005e+004,-1.49055537953703e+001,-3.94320614921944e-001

2.05622765331213e+004,-1.49055546670891e+001,-3.99825092628334e-001

2.08493152168224e+004,-1.49055555633120e+001,-4.05406408581785e-001

2.11403608112276e+004,-1.49055564847282e+001,-4.11065635343609e-001

2.14354692507258e+004,-1.49055574320455e+001,-4.16803860446823e-001

2.17346972505211e+004,-1.49055584059919e+001,-4.22622186602825e-001

2.20381023175322e+004,-1.49055594073159e+001,-4.28521731913021e-001

2.23457427614443e+004,-1.49055604367869e+001,-4.34503630085116e-001

2.26576777059159e+004,-1.49055614951961e+001,-4.40569030648074e-001

2.29739670999406e+004,-1.49055625833567e+001,-4.46719099176505e-001

2.32946717293690e+004,-1.49055637021049e+001,-4.52955017511356e-001

2.36198532285905e+004,-1.49055648523006e+001,-4.59277983987972e-001

2.39495740923785e+004,-1.49055660348272e+001,-4.65689213667797e-001

2.42838976879009e+004,-1.49055672505938e+001,-4.72189938568481e-001

2.46228882668982e+004,-1.49055685005343e+001,-4.78781407902966e-001

2.49666109780322e+004,-1.49055697856091e+001,-4.85464888319113e-001

2.53151318794055e+004,-1.49055711068057e+001,-4.92241664141437e-001

2.56685179512580e+004,-1.49055724651393e+001,-4.99113037618617e-001

2.60268371088386e+004,-1.49055738616534e+001,-5.06080329174959e-001

2.63901582154578e+004,-1.49055752974212e+001,-5.13144877660501e-001

2.67585510957221e+004,-1.49055767735456e+001,-5.20308040611484e-001

2.71320865489533e+004,-1.49055782911610e+001,-5.27571194508838e-001

2.75108363627948e+004,-1.49055798514331e+001,-5.34935735043265e-001

2.78948733270080e+004,-1.49055814555607e+001,-5.42403077383469e-001

2.82842712474618e+004,-1.49055831047762e+001,-5.49974656447041e-001

2.86791049603164e+004,-1.49055848003466e+001,-5.57651927176037e-001

2.90794503464061e+004,-1.49055865435746e+001,-5.65436364816327e-001

2.94853843458219e+004,-1.49055883357992e+001,-5.73329465201894e-001

2.98969849726987e+004,-1.49055901783974e+001,-5.81332745039578e-001

3.03143313302078e+004,-1.49055920727845e+001,-5.89447742202875e-001

3.07375036257601e+004,-1.49055940204158e+001,-5.97676016024742e-001

3.11665831864199e+004,-1.49055960227874e+001,-6.06019147598518e-001

3.16016524745350e+004,-1.49055980814372e+001,-6.14478740080829e-001

3.20427951035848e+004,-1.49056001979467e+001,-6.23056418998214e-001

3.24900958542493e+004,-1.49056023739417e+001,-6.31753832560034e-001

3.29436406907028e+004,-1.49056046110932e+001,-6.40572651976267e-001

3.34035167771346e+004,-1.49056069111197e+001,-6.49514571774679e-001

3.38698124945009e+004,-1.49056092757877e+001,-6.58581310129249e-001

3.43426174575100e+004,-1.49056117069133e+001,-6.67774609187219e-001

3.48220225318448e+004,-1.49056142063635e+001,-6.77096235405645e-001

3.53081198516260e+004,-1.49056167760580e+001,-6.86547979888195e-001

3.58010028371187e+004,-1.49056194179701e+001,-6.96131658730093e-001

3.63007662126863e+004,-1.49056221341286e+001,-7.05849113366678e-001

3.68075060249948e+004,-1.49056249266195e+001,-7.15702210924628e-001

3.73213196614721e+004,-1.49056277975869e+001,-7.25692844582700e-001

3.78423058690237e+004,-1.49056307492352e+001,-7.35822933933680e-001

3.83705647730104e+004,-1.49056337838311e+001,-7.46094425351413e-001

3.89061978964912e+004,-1.49056369037043e+001,-7.56509292365958e-001

3.94493081797342e+004,-1.49056401112504e+001,-7.67069536040893e-001

3.99999999999998e+004,-1.49056434089318e+001,-7.77777185357339e-001

4.05583791916010e+004,-1.49056467992804e+001,-7.88634297602229e-001

4.11245530662425e+004,-1.49056502848989e+001,-7.99642958764893e-001

4.16986304336447e+004,-1.49056538684631e+001,-8.10805283933928e-001

4.22807216224550e+004,-1.49056575527239e+001,-8.22123417705340e-001

4.28709385014515e+004,-1.49056613405092e+001,-8.33599534592081e-001

4.34693945010421e+004,-1.49056652347266e+001,-8.45235839440846e-001

4.40762046350642e+004,-1.49056692383649e+001,-8.57034567855495e-001

4.46914855228886e+004,-1.49056733544971e+001,-8.68997986625003e-001

4.53153554118317e+004,-1.49056775862820e+001,-8.81128394157327e-001

4.59479341998812e+004,-1.49056819369672e+001,-8.93428120921661e-001

4.65893434587380e+004,-1.49056864098915e+001,-9.05899529891400e-001

4.72397064571810e+004,-1.49056910084871e+001,-9.18545017001025e-001

4.78991481847569e+004,-1.49056957362827e+001,-9.31367011601845e-001

4.85677953758016e+004,-1.49057005969057e+001,-9.44367976928924e-001

4.92457765337964e+004,-1.49057055940854e+001,-9.57550410571823e-001

4.99332219560642e+004,-1.49057107316555e+001,-9.70916844954582e-001

5.06302637588109e+004,-1.49057160135573e+001,-9.84469847818538e-001

5.13370359025159e+004,-1.49057214438425e+001,-9.98212022715654e-001

5.20536742176771e+004,-1.49057270266765e+001,-1.01214600950536e+000

5.27803164309155e+004,-1.49057327663412e+001,-1.02627448486186e+000

5.35171021914442e+004,-1.49057386672388e+001,-1.04060016278459e+000

5.42641730979066e+004,-1.49057447338945e+001,-1.05512579511881e+000

5.50216727255895e+004,-1.49057509709607e+001,-1.06985417208133e+000

5.57897466540159e+004,-1.49057573832199e+001,-1.08478812279500e+000

5.65685424949235e+004,-1.49057639755887e+001,-1.09993051583020e+000

5.73582099206328e+004,-1.49057707531213e+001,-1.11528425975243e+000

5.81589006928121e+004,-1.49057777210134e+001,-1.13085230368008e+000

5.89707686916437e+004,-1.49057848846065e+001,-1.14663763784691e+000

5.97939699453972e+004,-1.49057922493915e+001,-1.16264329417528e+000

6.06286626604156e+004,-1.49057998210130e+001,-1.17887234685441e+000

6.14750072515201e+004,-1.49058076052736e+001,-1.19532791292924e+000

6.23331663728396e+004,-1.49058156081387e+001,-1.21201315289505e+000

6.32033049490698e+004,-1.49058238357401e+001,-1.22893127130243e+000

6.40855902071694e+004,-1.49058322943817e+001,-1.24608551736938e+000

6.49801917084985e+004,-1.49058409905435e+001,-1.26347918560134e+000

6.58872813814055e+004,-1.49058499308870e+001,-1.28111561642046e+000

6.68070335542691e+004,-1.49058591222599e+001,-1.29899819680544e+000

6.77396249890018e+004,-1.49058685717016e+001,-1.31713036093520e+000

6.86852349150199e+004,-1.49058782864482e+001,-1.33551559084726e+000

6.96440450636895e+004,-1.49058882739384e+001,-1.35415741710036e+000

7.06162397032520e+004,-1.49058985418186e+001,-1.37305941944973e+000

7.16020056742374e+004,-1.49059090979492e+001,-1.39222522752856e+000

7.26015324253724e+004,-1.49059199504101e+001,-1.41165852154197e+000

7.36150120499896e+004,-1.49059311075071e+001,-1.43136303296770e+000

7.46426393229441e+004,-1.49059425777781e+001,-1.45134254526796e+000

7.56846117380472e+004,-1.49059543699996e+001,-1.47160089461106e+000

7.67411295460207e+004,-1.49059664931931e+001,-1.49214197060197e+000

7.78123957929823e+004,-1.49059789566321e+001,-1.51296971702403e+000

7.88986163594682e+004,-1.49059917698489e+001,-1.53408813259039e+000

7.99999999999995e+004,-1.49060049426422e+001,-1.55550127170447e+000

8.11167583832018e+004,-1.49060184850840e+001,-1.57721324523345e+000

8.22491061324848e+004,-1.49060324075273e+001,-1.59922822128976e+000

8.33972608672892e+004,-1.49060467206142e+001,-1.62155042602460e+000

8.45614432449099e+004,-1.49060614352833e+001,-1.64418414443265e+000

8.57418770029029e+004,-1.49060765627785e+001,-1.66713372116607e+000

8.69387890020841e+004,-1.49060921146571e+001,-1.69040356136171e+000

8.81524092701283e+004,-1.49061081027987e+001,-1.71399813147759e+000

8.93829710457770e+004,-1.49061245394137e+001,-1.73792196014210e+000

9.06307108236633e+004,-1.49061414370528e+001,-1.76217963901541e+000

9.18958683997622e+004,-1.49061588086165e+001,-1.78677582365963e+000

9.31786869174758e+004,-1.49061766673642e+001,-1.81171523442366e+000

9.44794129143618e+004,-1.49061950269246e+001,-1.83700265733988e+000

9.57982963695136e+004,-1.49062139013058e+001,-1.86264294503132e+000

9.71355907516031e+004,-1.49062333049056e+001,-1.88864101763181e+000

9.84915530675926e+004,-1.49062532525222e+001,-1.91500186372005e+000

9.98664439121282e+004,-1.49062737593653e+001,-1.94173054126390e+000

1.01260527517622e+005,-1.49062948410675e+001,-1.96883217857979e+000

1.02674071805032e+005,-1.49063165136959e+001,-1.99631197530273e+000

1.04107348435354e+005,-1.49063387937639e+001,-2.02417520337166e+000

1.05560632861831e+005,-1.49063616982435e+001,-2.05242720802676e+000

1.07034204382888e+005,-1.49063852445778e+001,-2.08107340882097e+000

1.08528346195813e+005,-1.49064094506943e+001,-2.11011930064330e+000

1.10043345451179e+005,-1.49064343350175e+001,-2.13957045475933e+000

1.11579493308032e+005,-1.49064599164830e+001,-2.16943251986236e+000

1.13137084989847e+005,-1.49064862145517e+001,-2.19971122314001e+000

1.14716419841265e+005,-1.49065132492232e+001,-2.23041237135608e+000

1.16317801385624e+005,-1.49065410410514e+001,-2.26154185194495e+000

1.17941537383287e+005,-1.49065696111595e+001,-2.29310563412193e+000

1.19587939890794e+005,-1.49065989812550e+001,-2.32510977000838e+000

1.21257325320831e+005,-1.49066291736461e+001,-2.35756039577123e+000

1.22950014503040e+005,-1.49066602112580e+001,-2.39046373277884e+000

1.24666332745679e+005,-1.49066921176493e+001,-2.42382608877063e+000

1.26406609898139e+005,-1.49067249170297e+001,-2.45765385904366e+000

1.28171180414339e+005,-1.49067586342775e+001,-2.49195352765446e+000

1.29960383416997e+005,-1.49067932949573e+001,-2.52673166863711e+000

1.31774562762811e+005,-1.49068289253393e+001,-2.56199494723620e+000

1.33614067108538e+005,-1.49068655524177e+001,-2.59775012115875e+000

1.35479249978003e+005,-1.49069032039309e+001,-2.63400404183956e+000

1.37370469830040e+005,-1.49069419083812e+001,-2.67076365572536e+000

1.39288090127379e+005,-1.49069816950551e+001,-2.70803600557615e+000

1.41232479406504e+005,-1.49070225940452e+001,-2.74582823178116e+000

1.43204011348474e+005,-1.49070646362714e+001,-2.78414757369489e+000

1.45203064850745e+005,-1.49071078535030e+001,-2.82300137098987e+000

1.47230024099979e+005,-1.49071522783817e+001,-2.86239706502576e+000

1.49285278645888e+005,-1.49071979444451e+001,-2.90234220023863e+000

1.51369223476094e+005,-1.49072448861503e+001,-2.94284442554620e+000

1.53482259092041e+005,-1.49072931388989e+001,-2.98391149577361e+000

1.55624791585964e+005,-1.49073427390617e+001,-3.02555127309545e+000

1.57797232718936e+005,-1.49073937240052e+001,-3.06777172849857e+000

1.59999999999999e+005,-1.49074461321172e+001,-3.11058094326303e+000

1.62233516766403e+005,-1.49075000028349e+001,-3.15398711046108e+000

1.64498212264969e+005,-1.49075553766719e+001,-3.19799853647807e+000

1.66794521734578e+005,-1.49076122952471e+001,-3.24262364255132e+000

1.69122886489819e+005,-1.49076708013142e+001,-3.28787096632814e+000

1.71483754005805e+005,-1.49077309387909e+001,-3.33374916344566e+000

1.73877578004168e+005,-1.49077927527903e+001,-3.38026700913043e+000

1.76304818540256e+005,-1.49078562896518e+001,-3.42743339981710e+000

1.78765942091554e+005,-1.49079215969735e+001,-3.47525735479033e+000

1.81261421647326e+005,-1.49079887236454e+001,-3.52374801784473e+000

1.83791736799524e+005,-1.49080577198829e+001,-3.57291465896851e+000

1.86357373834951e+005,-1.49081286372612e+001,-3.62276667604755e+000

1.88958825828723e+005,-1.49082015287513e+001,-3.67331359658985e+000

1.91596592739027e+005,-1.49082764487557e+001,-3.72456507947435e+000

1.94271181503206e+005,-1.49083534531459e+001,-3.77653091671919e+000

1.96983106135185e+005,-1.49084325993001e+001,-3.82922103527463e+000

1.99732887824256e+005,-1.49085139461425e+001,-3.88264549883617e+000

2.02521055035243e+005,-1.49085975541826e+001,-3.93681450968305e+000

2.05348143610063e+005,-1.49086834855565e+001,-3.99173841053675e+000

2.08214696870707e+005,-1.49087718040679e+001,-4.04742768644541e+000

2.11121265723661e+005,-1.49088625752315e+001,-4.10389296669020e+000

2.14068408765776e+005,-1.49089558663161e+001,-4.16114502671573e+000

2.17056692391625e+005,-1.49090517463894e+001,-4.21919479008450e+000

2.20086690902357e+005,-1.49091502863635e+001,-4.27805333045535e+000

2.23158986616063e+005,-1.49092515590417e+001,-4.33773187358694e+000

2.26274169979693e+005,-1.49093556391662e+001,-4.39824179936457e+000

2.29432839682530e+005,-1.49094626034666e+001,-4.45959464385368e+000

2.32635602771247e+005,-1.49095725307100e+001,-4.52180210137676e+000

2.35883074766574e+005,-1.49096855017518e+001,-4.58487602661682e+000

2.39175879781588e+005,-1.49098015995879e+001,-4.64882843674641e+000

2.42514650641661e+005,-1.49099209094074e+001,-4.71367151358180e+000

2.45900029006080e+005,-1.49100435186473e+001,-4.77941760576452e+000

2.49332665491357e+005,-1.49101695170479e+001,-4.84607923096754e+000

2.52813219796278e+005,-1.49102989967093e+001,-4.91366907813069e+000

2.56342360828676e+005,-1.49104320521489e+001,-4.98220000971982e+000

2.59920766833993e+005,-1.49105687803612e+001,-5.05168506401646e+000

2.63549125525621e+005,-1.49107092808771e+001,-5.12213745743290e+000

2.67228134217075e+005,-1.49108536558259e+001,-5.19357058685440e+000

2.70958499956006e+005,-1.49110020099977e+001,-5.26599803201246e+000

2.74740939660078e+005,-1.49111544509075e+001,-5.33943355788284e+000

2.78576180254757e+005,-1.49113110888602e+001,-5.41389111711452e+000

2.82464958813007e+005,-1.49114720370173e+001,-5.48938485248645e+000

2.86408022696948e+005,-1.49116374114643e+001,-5.56592909939433e+000

2.90406129701488e+005,-1.49118073312802e+001,-5.64353838836573e+000

2.94460048199957e+005,-1.49119819186073e+001,-5.72222744760557e+000

2.98570557291775e+005,-1.49121612987236e+001,-5.80201120557208e+000

3.02738446952187e+005,-1.49123456001151e+001,-5.88290479358245e+000

3.06964518184081e+005,-1.49125349545506e+001,-5.96492354844928e+000

3.11249583171928e+005,-1.49127294971575e+001,-6.04808301514848e+000

3.15594465437872e+005,-1.49129293664982e+001,-6.13239894951846e+000

3.19999999999997e+005,-1.49131347046496e+001,-6.21788732099028e+000

3.24467033532806e+005,-1.49133456572818e+001,-6.30456431535134e+000

3.28996424529938e+005,-1.49135623737401e+001,-6.39244633753981e+000

3.33589043469155e+005,-1.49137850071271e+001,-6.48155001447354e+000

3.38245772979638e+005,-1.49140137143869e+001,-6.57189219791061e+000

3.42967508011610e+005,-1.49142486563905e+001,-6.66348996734458e+000

3.47755156008335e+005,-1.49144899980223e+001,-6.75636063293367e+000

3.52609637080511e+005,-1.49147379082684e+001,-6.85052173846376e+000

3.57531884183106e+005,-1.49149925603063e+001,-6.94599106434668e+000

3.62522843294651e+005,-1.49152541315957e+001,-7.04278663065390e+000

3.67583473599047e+005,-1.49155228039710e+001,-7.14092670018612e+000

3.72714747669902e+005,-1.49157987637352e+001,-7.24042978157839e+000

3.77917651657445e+005,-1.49160822017547e+001,-7.34131463244333e+000

3.83193185478053e+005,-1.49163733135565e+001,-7.44360026255011e+000

3.88542363006410e+005,-1.49166722994260e+001,-7.54730593704325e+000

3.93966212270369e+005,-1.49169793645066e+001,-7.65245117969742e+000

3.99465775648511e+005,-1.49172947189004e+001,-7.75905577621366e+000

4.05042110070485e+005,-1.49176185777709e+001,-7.86713977755363e+000

4.10696287220124e+005,-1.49179511614467e+001,-7.97672350331497e+000

4.16429393741414e+005,-1.49182926955265e+001,-8.08782754514705e+000

4.22242531447321e+005,-1.49186434109861e+001,-8.20047277020842e+000

4.28136817531551e+005,-1.49190035442865e+001,-8.31468032466751e+000

4.34113384783250e+005,-1.49193733374832e+001,-8.43047163724464e+000

4.40173381804713e+005,-1.49197530383378e+001,-8.54786842279972e+000

4.46317973232124e+005,-1.49201429004302e+001,-8.66689268596327e+000

4.52548339959385e+005,-1.49205431832725e+001,-8.78756672481368e+000

4.58865679365059e+005,-1.49209541524251e+001,-8.90991313460070e+000

4.65271205542494e+005,-1.49213760796134e+001,-9.03395481151543e+000

4.71766149533147e+005,-1.49218092428466e+001,-9.15971495650983e+000

4.78351759563174e+005,-1.49222539265381e+001,-9.28721707916425e+000

4.85029301283321e+005,-1.49227104216269e+001,-9.41648500160553e+000

4.91800058012158e+005,-1.49231790257016e+001,-9.54754286247661e+000

4.98665330982714e+005,-1.49236600431255e+001,-9.68041512095757e+000

5.05626439592555e+005,-1.49241537851634e+001,-9.81512656084081e+000

5.12684721657352e+005,-1.49246605701102e+001,-9.95170229466046e+000

5.19841533667984e+005,-1.49251807234221e+001,-1.00901677678773e+001

5.27098251051240e+005,-1.49257145778483e+001,-1.02305487631209e+001

5.34456268434150e+005,-1.49262624735660e+001,-1.03728714044895e+001

5.41916999912011e+005,-1.49268247583166e+001,-1.05171621619098e+001

