Freq.,VOut,OutRef

1.00000000000000e+004,-3.52316600165948e+001,-1.57440598303485e-001

1.01395947979003e+004,-3.52316604431828e+001,-1.59638381560508e-001

1.02811382665607e+004,-3.52316608817636e+001,-1.61866844490339e-001

1.04246576084112e+004,-3.52316613326743e+001,-1.64126415356569e-001

1.05701804056138e+004,-3.52316617962617e+001,-1.66417528397871e-001

1.07177346253629e+004,-3.52316622728821e+001,-1.68740623916722e-001

1.08673486252606e+004,-3.52316627629018e+001,-1.71096148359528e-001

1.10190511587661e+004,-3.52316632666976e+001,-1.73484554406169e-001

1.11728713807222e+004,-3.52316637846568e+001,-1.75906301053292e-001

1.13288388529580e+004,-3.52316643171775e+001,-1.78361853706182e-001

1.14869835499703e+004,-3.52316648646690e+001,-1.80851684265968e-001

1.16473358646846e+004,-3.52316654275523e+001,-1.83376271219459e-001

1.18099266142953e+004,-3.52316660062601e+001,-1.85936099733058e-001

1.19747870461893e+004,-3.52316666012372e+001,-1.88531661746037e-001

1.21419488439505e+004,-3.52316672129410e+001,-1.91163456063549e-001

1.23114441334492e+004,-3.52316678418416e+001,-1.93831988452935e-001

1.24833054890161e+004,-3.52316684884226e+001,-1.96537771741222e-001

1.26575659397028e+004,-3.52316691531812e+001,-1.99281325912223e-001

1.28342589756290e+004,-3.52316698366280e+001,-2.02063178211135e-001

1.30134185544193e+004,-3.52316705392887e+001,-2.04883863239079e-001

1.31950791077289e+004,-3.52316712617033e+001,-2.07743923060633e-001

1.33792755478611e+004,-3.52316720044271e+001,-2.10643907306541e-001

1.35660432744767e+004,-3.52316727680311e+001,-2.13584373277818e-001

1.37554181813974e+004,-3.52316735531023e+001,-2.16565886055695e-001

1.39474366635040e+004,-3.52316743602442e+001,-2.19589018607884e-001

1.41421356237309e+004,-3.52316751900773e+001,-2.22654351899161e-001

1.43395524801583e+004,-3.52316760432394e+001,-2.25762475004760e-001

1.45397251732031e+004,-3.52316769203863e+001,-2.28913985219986e-001

1.47426921729110e+004,-3.52316778221923e+001,-2.32109488178174e-001

1.49484924863494e+004,-3.52316787493506e+001,-2.35349597965916e-001

1.51571656651040e+004,-3.52316797025739e+001,-2.38634937239065e-001

1.53687518128801e+004,-3.52316806825950e+001,-2.41966137346297e-001

1.55832915932100e+004,-3.52316816901672e+001,-2.45343838446611e-001

1.58008262372675e+004,-3.52316827260650e+001,-2.48768689635372e-001

1.60213975517924e+004,-3.52316837910845e+001,-2.52241349066748e-001

1.62450479271247e+004,-3.52316848860447e+001,-2.55762484079640e-001

1.64718203453514e+004,-3.52316860117870e+001,-2.59332771329304e-001

1.67017583885674e+004,-3.52316871691769e+001,-2.62952896913587e-001

1.69349062472505e+004,-3.52316883591039e+001,-2.66623556506177e-001

1.71713087287550e+004,-3.52316895824828e+001,-2.70345455490599e-001

1.74110112659224e+004,-3.52316908402539e+001,-2.74119309095476e-001

1.76540599258131e+004,-3.52316921333839e+001,-2.77945842531750e-001

1.79005014185594e+004,-3.52316934628670e+001,-2.81825791129568e-001

1.81503831063432e+004,-3.52316948297250e+001,-2.85759900485356e-001

1.84037530124975e+004,-3.52316962350084e+001,-2.89748926599211e-001

1.86606598307361e+004,-3.52316976797976e+001,-2.93793636022215e-001

1.89211529345119e+004,-3.52316991652031e+001,-2.97894806004028e-001

1.91852823865052e+004,-3.52317006923666e+001,-3.02053224642201e-001

1.94530989482457e+004,-3.52317022624619e+001,-3.06269691033231e-001

1.97246540898671e+004,-3.52317038766958e+001,-3.10545015424386e-001

1.99999999999999e+004,-3.52317055363091e+001,-3.14880019372286e-001

2.02791895958005e+004,-3.52317072425775e+001,-3.19275535897259e-001

2.05622765331213e+004,-3.52317089968124e+001,-3.23732409646579e-001

2.08493152168224e+004,-3.52317108003621e+001,-3.28251497054846e-001

2.11403608112276e+004,-3.52317126546130e+001,-3.32833666507666e-001

2.14354692507258e+004,-3.52317145609901e+001,-3.37479798510516e-001

2.17346972505211e+004,-3.52317165209588e+001,-3.42190785855220e-001

2.20381023175322e+004,-3.52317185360253e+001,-3.46967533794843e-001

2.23457427614443e+004,-3.52317206077386e+001,-3.51810960211743e-001

2.26576777059159e+004,-3.52317227376910e+001,-3.56721995800639e-001

2.29739670999406e+004,-3.52317249275195e+001,-3.61701584241896e-001

2.32946717293690e+004,-3.52317271789071e+001,-3.66750682386130e-001

2.36198532285905e+004,-3.52317294935843e+001,-3.71870260433797e-001

2.39495740923785e+004,-3.52317318733299e+001,-3.77061302127070e-001

2.42838976879009e+004,-3.52317343199730e+001,-3.82324804932993e-001

2.46228882668982e+004,-3.52317368353941e+001,-3.87661780237858e-001

2.49666109780322e+004,-3.52317394215262e+001,-3.93073253542119e-001

2.53151318794055e+004,-3.52317420803570e+001,-3.98560264653826e-001

2.56685179512580e+004,-3.52317448139298e+001,-4.04123867891432e-001

2.60268371088386e+004,-3.52317476243456e+001,-4.09765132284191e-001

2.63901582154578e+004,-3.52317505137643e+001,-4.15485141777601e-001

2.67585510957221e+004,-3.52317534844063e+001,-4.21284995442516e-001

2.71320865489533e+004,-3.52317565385546e+001,-4.27165807684174e-001

2.75108363627948e+004,-3.52317596785564e+001,-4.33128708457109e-001

2.78948733270080e+004,-3.52317629068248e+001,-4.39174843480336e-001

2.82842712474618e+004,-3.52317662258406e+001,-4.45305374460762e-001

2.86791049603164e+004,-3.52317696381544e+001,-4.51521479311876e-001

2.90794503464061e+004,-3.52317731463886e+001,-4.57824352380659e-001

2.94853843458219e+004,-3.52317767532390e+001,-4.64215204679909e-001

2.98969849726987e+004,-3.52317804614775e+001,-4.70695264115045e-001

3.03143313302078e+004,-3.52317842739535e+001,-4.77265775723911e-001

3.07375036257601e+004,-3.52317881935966e+001,-4.83928001913812e-001

3.11665831864199e+004,-3.52317922234191e+001,-4.90683222702248e-001

3.16016524745350e+004,-3.52317963665172e+001,-4.97532735966100e-001

3.20427951035848e+004,-3.52318006260746e+001,-5.04477857686439e-001

3.24900958542493e+004,-3.52318050053645e+001,-5.11519922201899e-001

3.29436406907028e+004,-3.52318095077518e+001,-5.18660282465859e-001

3.34035167771346e+004,-3.52318141366960e+001,-5.25900310304810e-001

3.38698124945009e+004,-3.52318188957538e+001,-5.33241396680447e-001

3.43426174575100e+004,-3.52318237885819e+001,-5.40684951957109e-001

3.48220225318448e+004,-3.52318288189396e+001,-5.48232406172372e-001

3.53081198516260e+004,-3.52318339906920e+001,-5.55885209309619e-001

3.58010028371187e+004,-3.52318393078124e+001,-5.63644831577494e-001

3.63007662126863e+004,-3.52318447743863e+001,-5.71512763689592e-001

3.68075060249948e+004,-3.52318503946134e+001,-5.79490517152385e-001

3.73213196614721e+004,-3.52318561728116e+001,-5.87579624552233e-001

3.78423058690237e+004,-3.52318621134202e+001,-5.95781639850898e-001

3.83705647730104e+004,-3.52318682210032e+001,-6.04098138680879e-001

3.89061978964912e+004,-3.52318745002522e+001,-6.12530718650767e-001

3.94493081797342e+004,-3.52318809559914e+001,-6.21080999646483e-001

3.99999999999998e+004,-3.52318875931801e+001,-6.29750624144457e-001

4.05583791916010e+004,-3.52318944169168e+001,-6.38541257525108e-001

4.11245530662425e+004,-3.52319014324434e+001,-6.47454588390880e-001

4.16986304336447e+004,-3.52319086451489e+001,-6.56492328891695e-001

4.22807216224550e+004,-3.52319160605736e+001,-6.65656215049029e-001

4.28709385014515e+004,-3.52319236844136e+001,-6.74948007090658e-001

4.34693945010421e+004,-3.52319315225245e+001,-6.84369489787254e-001

4.40762046350642e+004,-3.52319395809268e+001,-6.93922472791597e-001

4.46914855228886e+004,-3.52319478658099e+001,-7.03608790986576e-001

4.53153554118317e+004,-3.52319563835368e+001,-7.13430304836437e-001

4.59479341998812e+004,-3.52319651406495e+001,-7.23388900739755e-001

4.65893434587380e+004,-3.52319741438733e+001,-7.33486491393544e-001

4.72397064571810e+004,-3.52319834001227e+001,-7.43725016155116e-001

4.78991481847569e+004,-3.52319929165059e+001,-7.54106441416601e-001

4.85677953758016e+004,-3.52320027003311e+001,-7.64632760976655e-001

4.92457765337964e+004,-3.52320127591111e+001,-7.75305996424599e-001

4.99332219560642e+004,-3.52320231005702e+001,-7.86128197524804e-001

5.06302637588109e+004,-3.52320337326491e+001,-7.97101442607326e-001

5.13370359025159e+004,-3.52320446635115e+001,-8.08227838968070e-001

5.20536742176771e+004,-3.52320559015503e+001,-8.19509523266646e-001

5.27803164309155e+004,-3.52320674553938e+001,-8.30948661937350e-001

5.35171021914442e+004,-3.52320793339126e+001,-8.42547451601531e-001

5.42641730979066e+004,-3.52320915462262e+001,-8.54308119486316e-001

5.50216727255895e+004,-3.52321041017098e+001,-8.66232923850009e-001

5.57897466540159e+004,-3.52321170100020e+001,-8.78324154411982e-001

5.65685424949235e+004,-3.52321302810117e+001,-8.90584132789974e-001

5.73582099206328e+004,-3.52321439249258e+001,-9.03015212942090e-001

5.81589006928121e+004,-3.52321579522168e+001,-9.15619781616179e-001

5.89707686916437e+004,-3.52321723736515e+001,-9.28400258803404e-001

5.97939699453972e+004,-3.52321872002982e+001,-9.41359098199673e-001

6.06286626604156e+004,-3.52322024435360e+001,-9.54498787673829e-001

6.14750072515201e+004,-3.52322181150630e+001,-9.67821849739464e-001

6.23331663728396e+004,-3.52322342269054e+001,-9.81330842036274e-001

6.32033049490698e+004,-3.52322507914269e+001,-9.95028357816834e-001

6.40855902071694e+004,-3.52322678213375e+001,-1.00891702643952e+000

6.49801917084985e+004,-3.52322853297040e+001,-1.02299951386735e+000

6.58872813814055e+004,-3.52323033299594e+001,-1.03727852317762e+000

6.68070335542691e+004,-3.52323218359134e+001,-1.05175679507299e+000

6.77396249890018e+004,-3.52323408617626e+001,-1.06643710840341e+000

6.86852349150199e+004,-3.52323604221018e+001,-1.08132228069369e+000

6.96440450636895e+004,-3.52323805319351e+001,-1.09641516867830e+000

7.06162397032520e+004,-3.52324012066865e+001,-1.11171866884452e+000

7.16020056742374e+004,-3.52324224622128e+001,-1.12723571798105e+000

7.26015324253724e+004,-3.52324443148151e+001,-1.14296929373438e+000

7.36150120499896e+004,-3.52324667812511e+001,-1.15892241517547e+000

7.46426393229441e+004,-3.52324898787479e+001,-1.17509814337042e+000

7.56846117380472e+004,-3.52325136250156e+001,-1.19149958196014e+000

7.67411295460207e+004,-3.52325380382601e+001,-1.20812987775006e+000

7.78123957929823e+004,-3.52325631371974e+001,-1.22499222130332e+000

7.88986163594682e+004,-3.52325889410676e+001,-1.24208984754650e+000

7.99999999999995e+004,-3.52326154696496e+001,-1.25942603638044e+000

8.11167583832018e+004,-3.52326427432761e+001,-1.27700411330082e+000

8.22491061324848e+004,-3.52326707828491e+001,-1.29482745002663e+000

8.33972608672892e+004,-3.52326996098557e+001,-1.31289946513626e+000

8.45614432449099e+004,-3.52327292463845e+001,-1.33122362471444e+000

8.57418770029029e+004,-3.52327597151423e+001,-1.34980344300415e+000

8.69387890020841e+004,-3.52327910394712e+001,-1.36864248307171e+000

8.81524092701283e+004,-3.52328232433667e+001,-1.38774435747712e+000

8.93829710457770e+004,-3.52328563514953e+001,-1.40711272895455e+000

9.06307108236633e+004,-3.52328903892138e+001,-1.42675131110317e+000

9.18958683997622e+004,-3.52329253825877e+001,-1.44666386908533e+000

9.31786869174758e+004,-3.52329613584122e+001,-1.46685422033368e+000

9.44794129143618e+004,-3.52329983442310e+001,-1.48732623527141e+000

9.57982963695136e+004,-3.52330363683581e+001,-1.50808383803667e+000

9.71355907516031e+004,-3.52330754598992e+001,-1.52913100722052e+000

9.84915530675926e+004,-3.52331156487729e+001,-1.55047177661419e+000

9.98664439121282e+004,-3.52331569657343e+001,-1.57211023596338e+000

1.01260527517622e+005,-3.52331994423974e+001,-1.59405053173630e+000

1.02674071805032e+005,-3.52332431112597e+001,-1.61629686789894e+000

1.04107348435354e+005,-3.52332880057258e+001,-1.63885350670307e+000

1.05560632861831e+005,-3.52333341601335e+001,-1.66172476948092e+000

1.07034204382888e+005,-3.52333816097791e+001,-1.68491503745431e+000

1.08528346195813e+005,-3.52334303909441e+001,-1.70842875255216e+000

1.10043345451179e+005,-3.52334805409225e+001,-1.73227041823842e+000

1.11579493308032e+005,-3.52335320980491e+001,-1.75644460035127e+000

1.13137084989847e+005,-3.52335851017277e+001,-1.78095592795533e+000

1.14716419841265e+005,-3.52336395924613e+001,-1.80580909419963e+000

1.16317801385624e+005,-3.52336956118823e+001,-1.83100885719295e+000

1.17941537383287e+005,-3.52337532027836e+001,-1.85656004088539e+000

1.19587939890794e+005,-3.52338124091509e+001,-1.88246753596476e+000

1.21257325320831e+005,-3.52338732761952e+001,-1.90873630076288e+000

1.22950014503040e+005,-3.52339358503876e+001,-1.93537136217251e+000

1.24666332745679e+005,-3.52340001794927e+001,-1.96237781657926e+000

1.26406609898139e+005,-3.52340663126055e+001,-1.98976083080190e+000

1.28171180414339e+005,-3.52341343001875e+001,-2.01752564304597e+000

1.29960383416997e+005,-3.52342041941044e+001,-2.04567756387101e+000

1.31774562762811e+005,-3.52342760476647e+001,-2.07422197716785e+000

1.33614067108538e+005,-3.52343499156598e+001,-2.10316434114857e+000

1.35479249978003e+005,-3.52344258544044e+001,-2.13251018935005e+000

1.37370469830040e+005,-3.52345039217783e+001,-2.16226513165004e+000

1.39288090127379e+005,-3.52345841772701e+001,-2.19243485529361e+000

1.41232479406504e+005,-3.52346666820203e+001,-2.22302512593658e+000

1.43204011348474e+005,-3.52347514988677e+001,-2.25404178869742e+000

1.45203064850745e+005,-3.52348386923951e+001,-2.28549076922548e+000

1.47230024099979e+005,-3.52349283289778e+001,-2.31737807478127e+000

1.49285278645888e+005,-3.52350204768321e+001,-2.34970979532959e+000

1.51369223476094e+005,-3.52351152060661e+001,-2.38249210464686e+000

1.53482259092041e+005,-3.52352125887312e+001,-2.41573126144191e+000

1.55624791585964e+005,-3.52353126988753e+001,-2.44943361048894e+000

1.57797232718936e+005,-3.52354156125973e+001,-2.48360558377786e+000

1.59999999999999e+005,-3.52355214081030e+001,-2.51825370167360e+000

1.62233516766403e+005,-3.52356301657626e+001,-2.55338457409381e+000

1.64498212264969e+005,-3.52357419681696e+001,-2.58900490169791e+000

1.66794521734578e+005,-3.52358569002015e+001,-2.62512147709152e+000

1.69122886489819e+005,-3.52359750490815e+001,-2.66174118604538e+000

1.71483754005805e+005,-3.52360965044426e+001,-2.69887100872740e+000

1.73877578004168e+005,-3.52362213583928e+001,-2.73651802095105e+000

1.76304818540256e+005,-3.52363497055825e+001,-2.77468939543660e+000

1.78765942091554e+005,-3.52364816432728e+001,-2.81339240308914e+000

1.81261421647326e+005,-3.52366172714069e+001,-2.85263441428841e+000

1.83791736799524e+005,-3.52367566926818e+001,-2.89242290019754e+000

1.86357373834951e+005,-3.52369000126236e+001,-2.93276543408303e+000

1.88958825828723e+005,-3.52370473396629e+001,-2.97366969265221e+000

1.91596592739027e+005,-3.52371987852137e+001,-3.01514345740501e+000

1.94271181503206e+005,-3.52373544637535e+001,-3.05719461600119e+000

1.96983106135185e+005,-3.52375144929058e+001,-3.09983116364240e+000

1.99732887824256e+005,-3.52376789935242e+001,-3.14306120447147e+000

2.02521055035243e+005,-3.52378480897797e+001,-3.18689295298469e+000

2.05348143610063e+005,-3.52380219092489e+001,-3.23133473546150e+000

2.08214696870707e+005,-3.52382005830056e+001,-3.27639499140891e+000

2.11121265723661e+005,-3.52383842457141e+001,-3.32208227502280e+000

2.14068408765776e+005,-3.52385730357251e+001,-3.36840525666345e+000

2.17056692391625e+005,-3.52387670951738e+001,-3.41537272434798e+000

2.20086690902357e+005,-3.52389665700808e+001,-3.46299358525866e+000

2.23158986616063e+005,-3.52391716104552e+001,-3.51127686726695e+000

2.26274169979693e+005,-3.52393823704008e+001,-3.56023172047269e+000

2.29432839682530e+005,-3.52395990082239e+001,-3.60986741876172e+000

2.32635602771247e+005,-3.52398216865456e+001,-3.66019336137653e+000

2.35883074766574e+005,-3.52400505724148e+001,-3.71121907450571e+000

2.39175879781588e+005,-3.52402858374253e+001,-3.76295421288788e+000

2.42514650641661e+005,-3.52405276578360e+001,-3.81540856143200e+000

2.45900029006080e+005,-3.52407762146928e+001,-3.86859203685504e+000

2.49332665491357e+005,-3.52410316939548e+001,-3.92251468933406e+000

2.52813219796278e+005,-3.52412942866228e+001,-3.97718670417642e+000

2.56342360828676e+005,-3.52415641888712e+001,-4.03261840350397e+000

2.59920766833993e+005,-3.52418416021833e+001,-4.08882024795601e+000

2.63549125525621e+005,-3.52421267334893e+001,-4.14580283840595e+000

2.67228134217075e+005,-3.52424197953085e+001,-4.20357691769677e+000

2.70958499956006e+005,-3.52427210058939e+001,-4.26215337238940e+000

2.74740939660078e+005,-3.52430305893812e+001,-4.32154323453114e+000

2.78576180254757e+005,-3.52433487759408e+001,-4.38175768343644e+000

2.82464958813007e+005,-3.52436758019337e+001,-4.44280804748663e+000

2.86408022696948e+005,-3.52440119100706e+001,-4.50470580594397e+000

2.90406129701488e+005,-3.52443573495757e+001,-4.56746259078252e+000

2.94460048199957e+005,-3.52447123763533e+001,-4.63109018853494e+000

2.98570557291775e+005,-3.52450772531590e+001,-4.69560054215448e+000

3.02738446952187e+005,-3.52454522497747e+001,-4.76100575289375e+000

3.06964518184081e+005,-3.52458376431878e+001,-4.82731808219874e+000

3.11249583171928e+005,-3.52462337177740e+001,-4.89454995361828e+000

3.15594465437872e+005,-3.52466407654852e+001,-4.96271395473001e+000

3.19999999999997e+005,-3.52470590860407e+001,-5.03182283908091e+000

3.24467033532806e+005,-3.52474889871239e+001,-5.10188952814351e+000

3.28996424529938e+005,-3.52479307845826e+001,-5.17292711328840e+000

3.33589043469155e+005,-3.52483848026340e+001,-5.24494885777003e+000

3.38245772979638e+005,-3.52488513740749e+001,-5.31796819872995e+000

3.42967508011610e+005,-3.52493308404958e+001,-5.39199874921300e+000

3.47755156008335e+005,-3.52498235525002e+001,-5.46705430020006e+000

3.52609637080511e+005,-3.52503298699293e+001,-5.54314882265466e+000

3.57531884183106e+005,-3.52508501620905e+001,-5.62029646958435e+000

3.62522843294651e+005,-3.52513848079921e+001,-5.69851157811717e+000

3.67583473599047e+005,-3.52519341965826e+001,-5.77780867159191e+000

3.72714747669902e+005,-3.52524987269953e+001,-5.85820246166296e+000

3.77917651657445e+005,-3.52530788087986e+001,-5.93970785041946e+000

3.83193185478053e+005,-3.52536748622509e+001,-6.02233993251850e+000

3.88542363006410e+005,-3.52542873185622e+001,-6.10611399733154e+000

3.93966212270369e+005,-3.52549166201606e+001,-6.19104553110573e+000

3.99465775648511e+005,-3.52555632209645e+001,-6.27715021913766e+000

4.05042110070485e+005,-3.52562275866609e+001,-6.36444394796142e+000

4.10696287220124e+005,-3.52569101949902e+001,-6.45294280754976e+000

4.16429393741414e+005,-3.52576115360354e+001,-6.54266309352797e+000

4.22242531447321e+005,-3.52583321125197e+001,-6.63362130940182e+000

4.28136817531551e+005,-3.52590724401084e+001,-6.72583416879681e+000

4.34113384783250e+005,-3.52598330477185e+001,-6.81931859771185e+000

4.40173381804713e+005,-3.52606144778345e+001,-6.91409173678432e+000

4.46317973232124e+005,-3.52614172868303e+001,-7.01017094356789e+000

4.52548339959385e+005,-3.52622420452988e+001,-7.10757379482307e+000

4.58865679365059e+005,-3.52630893383876e+001,-7.20631808881840e+000

4.65271205542494e+005,-3.52639597661425e+001,-7.30642184764609e+000

4.71766149533147e+005,-3.52648539438574e+001,-7.40790331954695e+000

4.78351759563174e+005,-3.52657725024321e+001,-7.51078098124803e+000

4.85029301283321e+005,-3.52667160887379e+001,-7.61507354031206e+000

4.91800058012158e+005,-3.52676853659896e+001,-7.72079993749757e+000

4.98665330982714e+005,-3.52686810141266e+001,-7.82797934913005e+000

5.05626439592555e+005,-3.52697037302016e+001,-7.93663118948510e+000

5.12684721657352e+005,-3.52707542287771e+001,-8.04677511318048e+000

5.19841533667984e+005,-3.52718332423306e+001,-8.15843101758065e+000

5.27098251051240e+005,-3.52729415216685e+001,-8.27161904520998e+000

5.34456268434150e+005,-3.52740798363483e+001,-8.38635958617735e+000

5.41916999912011e+005,-3.52752489751099e+001,-8.50267328060944e+000

