Freq.,VOut,OutRef

1.00000000000000e+004,-2.10708923592337e+001,-7.01035785576211e-002

1.01395947979003e+004,-2.10708925530136e+001,-7.10821817295876e-002

1.02811382665607e+004,-2.10708927522411e+001,-7.20744454237748e-002

1.04246576084112e+004,-2.10708929570691e+001,-7.30805603247771e-002

1.05701804056138e+004,-2.10708931676554e+001,-7.41007197738820e-002

1.07177346253629e+004,-2.10708933841618e+001,-7.51351198131413e-002

1.08673486252606e+004,-2.10708936067544e+001,-7.61839592237818e-002

1.10190511587661e+004,-2.10708938356044e+001,-7.72474395566725e-002

1.11728713807222e+004,-2.10708940708879e+001,-7.83257651775134e-002

1.13288388529580e+004,-2.10708943127857e+001,-7.94191433032390e-002

1.14869835499703e+004,-2.10708945614835e+001,-8.05277840452663e-002

1.16473358646846e+004,-2.10708948171726e+001,-8.16519004458494e-002

1.18099266142953e+004,-2.10708950800496e+001,-8.27917085190544e-002

1.19747870461893e+004,-2.10708953503163e+001,-8.39474272975210e-002

1.21419488439505e+004,-2.10708956281807e+001,-8.51192788663712e-002

1.23114441334492e+004,-2.10708959138562e+001,-8.63074884129449e-002

1.24833054890161e+004,-2.10708962075622e+001,-8.75122842678340e-002

1.26575659397028e+004,-2.10708965095248e+001,-8.87338979441179e-002

1.28342589756290e+004,-2.10708968199759e+001,-8.99725641901817e-002

1.30134185544193e+004,-2.10708971391540e+001,-9.12285210293566e-002

1.31950791077289e+004,-2.10708974673044e+001,-9.25020098064368e-002

1.33792755478611e+004,-2.10708978046797e+001,-9.37932752312927e-002

1.35660432744767e+004,-2.10708981515386e+001,-9.51025654356877e-002

1.37554181813974e+004,-2.10708985081481e+001,-9.64301320059419e-002

1.39474366635040e+004,-2.10708988747820e+001,-9.77762300471822e-002

1.41421356237309e+004,-2.10708992517221e+001,-9.91411182183043e-002

1.43395524801583e+004,-2.10708996392583e+001,-1.00525058789644e-001

1.45397251732031e+004,-2.10709000376882e+001,-1.01928317693430e-001

1.47426921729110e+004,-2.10709004473179e+001,-1.03351164571438e-001

1.49484924863494e+004,-2.10709008684626e+001,-1.04793872826043e-001

1.51571656651040e+004,-2.10709013014454e+001,-1.06256719679783e-001

1.53687518128801e+004,-2.10709017465994e+001,-1.07739986217965e-001

1.55832915932100e+004,-2.10709022042667e+001,-1.09243957450590e-001

1.58008262372675e+004,-2.10709026747987e+001,-1.10768922367207e-001

1.60213975517924e+004,-2.10709031585571e+001,-1.12315173985298e-001

1.62450479271247e+004,-2.10709036559139e+001,-1.13883009413479e-001

1.64718203453514e+004,-2.10709041672508e+001,-1.15472729906935e-001

1.67017583885674e+004,-2.10709046929610e+001,-1.17084640921104e-001

1.69349062472505e+004,-2.10709052334485e+001,-1.18719052176153e-001

1.71713087287550e+004,-2.10709057891285e+001,-1.20376277712374e-001

1.74110112659224e+004,-2.10709063604279e+001,-1.22056635953289e-001

1.76540599258131e+004,-2.10709069477858e+001,-1.23760449763564e-001

1.79005014185594e+004,-2.10709075516535e+001,-1.25488046512136e-001

1.81503831063432e+004,-2.10709081724947e+001,-1.27239758138141e-001

1.84037530124975e+004,-2.10709088107867e+001,-1.29015921209226e-001

1.86606598307361e+004,-2.10709094670199e+001,-1.30816876988680e-001

1.89211529345119e+004,-2.10709101416982e+001,-1.32642971503625e-001

1.91852823865052e+004,-2.10709108353404e+001,-1.34494555604662e-001

1.94530989482457e+004,-2.10709115484791e+001,-1.36371985040381e-001

1.97246540898671e+004,-2.10709122816621e+001,-1.38275620521624e-001

1.99999999999999e+004,-2.10709130354528e+001,-1.40205827789989e-001

2.02791895958005e+004,-2.10709138104303e+001,-1.42162977690435e-001

2.05622765331213e+004,-2.10709146071900e+001,-1.44147446239367e-001

2.08493152168224e+004,-2.10709154263437e+001,-1.46159614702070e-001

2.11403608112276e+004,-2.10709162685209e+001,-1.48199869658897e-001

2.14354692507258e+004,-2.10709171343684e+001,-1.50268603083609e-001

2.17346972505211e+004,-2.10709180245515e+001,-1.52366212417121e-001

2.20381023175322e+004,-2.10709189397538e+001,-1.54493100645798e-001

2.23457427614443e+004,-2.10709198806781e+001,-1.56649676376051e-001

2.26576777059159e+004,-2.10709208480475e+001,-1.58836353911484e-001

2.29739670999406e+004,-2.10709218426048e+001,-1.61053553336435e-001

2.32946717293690e+004,-2.10709228651139e+001,-1.63301700594107e-001

2.36198532285905e+004,-2.10709239163602e+001,-1.65581227566731e-001

2.39495740923785e+004,-2.10709249971507e+001,-1.67892572162969e-001

2.42838976879009e+004,-2.10709261083159e+001,-1.70236178394624e-001

2.46228882668982e+004,-2.10709272507090e+001,-1.72612496466930e-001

2.49666109780322e+004,-2.10709284252070e+001,-1.75021982866737e-001

2.53151318794055e+004,-2.10709296327123e+001,-1.77465100440580e-001

2.56685179512580e+004,-2.10709308741519e+001,-1.79942318493315e-001

2.60268371088386e+004,-2.10709321504789e+001,-1.82454112873990e-001

2.63901582154578e+004,-2.10709334626736e+001,-1.85000966064970e-001

2.67585510957221e+004,-2.10709348117434e+001,-1.87583367275942e-001

2.71320865489533e+004,-2.10709361987242e+001,-1.90201812538281e-001

2.75108363627948e+004,-2.10709376246806e+001,-1.92856804800231e-001

2.78948733270080e+004,-2.10709390907076e+001,-1.95548854021019e-001

2.82842712474618e+004,-2.10709405979307e+001,-1.98278477267904e-001

2.86791049603164e+004,-2.10709421475068e+001,-2.01046198819133e-001

2.90794503464061e+004,-2.10709437406258e+001,-2.03852550259009e-001

2.94853843458219e+004,-2.10709453785101e+001,-2.06698070585447e-001

2.98969849726987e+004,-2.10709470624172e+001,-2.09583306306021e-001

3.03143313302078e+004,-2.10709487936394e+001,-2.12508811548512e-001

3.07375036257601e+004,-2.10709505735057e+001,-2.15475148161919e-001

3.11665831864199e+004,-2.10709524033820e+001,-2.18482885827214e-001

3.16016524745350e+004,-2.10709542846725e+001,-2.21532602165652e-001

3.20427951035848e+004,-2.10709562188210e+001,-2.24624882847140e-001

3.24900958542493e+004,-2.10709582073117e+001,-2.27760321703877e-001

3.29436406907028e+004,-2.10709602516706e+001,-2.30939520842231e-001

3.34035167771346e+004,-2.10709623534660e+001,-2.34163090759707e-001

3.38698124945009e+004,-2.10709645143107e+001,-2.37431650459084e-001

3.43426174575100e+004,-2.10709667358623e+001,-2.40745827568479e-001

3.48220225318448e+004,-2.10709690198253e+001,-2.44106258459664e-001

3.53081198516260e+004,-2.10709713679518e+001,-2.47513588369083e-001

3.58010028371187e+004,-2.10709737820427e+001,-2.50968471523696e-001

3.63007662126863e+004,-2.10709762639497e+001,-2.54471571261828e-001

3.68075060249948e+004,-2.10709788155767e+001,-2.58023560161221e-001

3.73213196614721e+004,-2.10709814388802e+001,-2.61625120168437e-001

3.78423058690237e+004,-2.10709841358721e+001,-2.65276942727627e-001

3.83705647730104e+004,-2.10709869086204e+001,-2.68979728910658e-001

3.89061978964912e+004,-2.10709897592513e+001,-2.72734189553148e-001

3.94493081797342e+004,-2.10709926899501e+001,-2.76541045388601e-001

3.99999999999998e+004,-2.10709957029639e+001,-2.80401027184858e-001

4.05583791916010e+004,-2.10709988006021e+001,-2.84314875885053e-001

4.11245530662425e+004,-2.10710019852394e+001,-2.88283342744793e-001

4.16986304336447e+004,-2.10710052593166e+001,-2.92307189479716e-001

4.22807216224550e+004,-2.10710086253428e+001,-2.96387188406834e-001

4.28709385014515e+004,-2.10710120858976e+001,-3.00524122591899e-001

4.34693945010421e+004,-2.10710156436327e+001,-3.04718785999195e-001

4.40762046350642e+004,-2.10710193012739e+001,-3.08971983640371e-001

4.46914855228886e+004,-2.10710230616235e+001,-3.13284531729353e-001

4.53153554118317e+004,-2.10710269275620e+001,-3.17657257836383e-001

4.59479341998812e+004,-2.10710309020505e+001,-3.22091001043156e-001

4.65893434587380e+004,-2.10710349881330e+001,-3.26586612105668e-001

4.72397064571810e+004,-2.10710391889389e+001,-3.31144953609977e-001

4.78991481847569e+004,-2.10710435076844e+001,-3.35766900142794e-001

4.85677953758016e+004,-2.10710479476765e+001,-3.40453338449164e-001

4.92457765337964e+004,-2.10710525123139e+001,-3.45205167606761e-001

4.99332219560642e+004,-2.10710572050908e+001,-3.50023299191930e-001

5.06302637588109e+004,-2.10710620295989e+001,-3.54908657454179e-001

5.13370359025159e+004,-2.10710669895302e+001,-3.59862179489226e-001

5.20536742176771e+004,-2.10710720886797e+001,-3.64884815419155e-001

5.27803164309155e+004,-2.10710773309489e+001,-3.69977528566650e-001

5.35171021914442e+004,-2.10710827203476e+001,-3.75141295641849e-001

5.42641730979066e+004,-2.10710882609983e+001,-3.80377106922889e-001

5.50216727255895e+004,-2.10710939571380e+001,-3.85685966445726e-001

5.57897466540159e+004,-2.10710998131220e+001,-3.91068892190830e-001

5.65685424949235e+004,-2.10711058334277e+001,-3.96526916275312e-001

5.73582099206328e+004,-2.10711120226567e+001,-4.02061085148986e-001

5.81589006928121e+004,-2.10711183855392e+001,-4.07672459789812e-001

5.89707686916437e+004,-2.10711249269378e+001,-4.13362115901440e-001

5.97939699453972e+004,-2.10711316518498e+001,-4.19131144119954e-001

6.06286626604156e+004,-2.10711385654126e+001,-4.24980650214018e-001

6.14750072515201e+004,-2.10711456729064e+001,-4.30911755295137e-001

6.23331663728396e+004,-2.10711529797585e+001,-4.36925596026793e-001

6.32033049490698e+004,-2.10711604915472e+001,-4.43023324838919e-001

6.40855902071694e+004,-2.10711682140067e+001,-4.49206110140403e-001

6.49801917084985e+004,-2.10711761530305e+001,-4.55475136540478e-001

6.58872813814055e+004,-2.10711843146759e+001,-4.61831605070244e-001

6.68070335542691e+004,-2.10711927051690e+001,-4.68276733406200e-001

6.77396249890018e+004,-2.10712013309092e+001,-4.74811756096411e-001

6.86852349150199e+004,-2.10712101984735e+001,-4.81437924793348e-001

6.96440450636895e+004,-2.10712193146222e+001,-4.88156508484255e-001

7.06162397032520e+004,-2.10712286863030e+001,-4.94968793731334e-001

7.16020056742374e+004,-2.10712383206568e+001,-5.01876084906523e-001

7.26015324253724e+004,-2.10712482250230e+001,-5.08879704436702e-001

7.36150120499896e+004,-2.10712584069444e+001,-5.15980993049856e-001

7.46426393229441e+004,-2.10712688741735e+001,-5.23181310021226e-001

7.56846117380472e+004,-2.10712796346775e+001,-5.30482033427766e-001

7.67411295460207e+004,-2.10712906966448e+001,-5.37884560401450e-001

7.78123957929823e+004,-2.10713020684907e+001,-5.45390307389037e-001

7.88986163594682e+004,-2.10713137588636e+001,-5.53000710413329e-001

7.99999999999995e+004,-2.10713257766517e+001,-5.60717225337217e-001

8.11167583832018e+004,-2.10713381309891e+001,-5.68541328133442e-001

8.22491061324848e+004,-2.10713508312627e+001,-5.76474515155773e-001

8.33972608672892e+004,-2.10713638871189e+001,-5.84518303414836e-001

8.45614432449099e+004,-2.10713773084713e+001,-5.92674230854746e-001

8.57418770029029e+004,-2.10713911055068e+001,-6.00943856638701e-001

8.69387890020841e+004,-2.10714052886943e+001,-6.09328761431609e-001

8.81524092701283e+004,-2.10714198687916e+001,-6.17830547689774e-001

8.93829710457770e+004,-2.10714348568531e+001,-6.26450839955712e-001

9.06307108236633e+004,-2.10714502642382e+001,-6.35191285152062e-001

9.18958683997622e+004,-2.10714661026197e+001,-6.44053552883685e-001

9.31786869174758e+004,-2.10714823839916e+001,-6.53039335740237e-001

9.44794129143618e+004,-2.10714991206784e+001,-6.62150349603435e-001

9.57982963695136e+004,-2.10715163253437e+001,-6.71388333959955e-001

9.71355907516031e+004,-2.10715340109994e+001,-6.80755052214164e-001

9.84915530675926e+004,-2.10715521910148e+001,-6.90252292008484e-001

9.98664439121282e+004,-2.10715708791269e+001,-6.99881865545593e-001

1.01260527517622e+005,-2.10715900894491e+001,-7.09645609915733e-001

1.02674071805032e+005,-2.10716098364826e+001,-7.19545387424339e-001

1.04107348435354e+005,-2.10716301351256e+001,-7.29583085930492e-001

1.05560632861831e+005,-2.10716510006848e+001,-7.39760619180948e-001

1.07034204382888e+005,-2.10716724488853e+001,-7.50079927156509e-001

1.08528346195813e+005,-2.10716944958828e+001,-7.60542976413949e-001

1.10043345451179e+005,-2.10717171582744e+001,-7.71151760440460e-001

1.11579493308032e+005,-2.10717404531102e+001,-7.81908300004459e-001

1.13137084989847e+005,-2.10717643979057e+001,-7.92814643516631e-001

1.14716419841265e+005,-2.10717890106539e+001,-8.03872867390252e-001

1.16317801385624e+005,-2.10718143098378e+001,-8.15085076409174e-001

1.17941537383287e+005,-2.10718403144434e+001,-8.26453404098278e-001

1.19587939890794e+005,-2.10718670439727e+001,-8.37980013098410e-001

1.21257325320831e+005,-2.10718945184578e+001,-8.49667095544397e-001

1.22950014503040e+005,-2.10719227584740e+001,-8.61516873450004e-001

1.24666332745679e+005,-2.10719517851546e+001,-8.73531599094630e-001

1.26406609898139e+005,-2.10719816202049e+001,-8.85713555414698e-001

1.28171180414339e+005,-2.10720122859176e+001,-8.98065056399946e-001

1.29960383416997e+005,-2.10720438051876e+001,-9.10588447492986e-001

1.31774562762811e+005,-2.10720762015279e+001,-9.23286105995768e-001

1.33614067108538e+005,-2.10721094990851e+001,-9.36160441475668e-001

1.35479249978003e+005,-2.10721437226562e+001,-9.49213896180797e-001

1.37370469830040e+005,-2.10721788977050e+001,-9.62448945455535e-001

1.39288090127379e+005,-2.10722150503793e+001,-9.75868098163650e-001

1.41232479406504e+005,-2.10722522075282e+001,-9.89473897112684e-001

1.43204011348474e+005,-2.10722903967198e+001,-1.00326891948665e+000

1.45203064850745e+005,-2.10723296462604e+001,-1.01725577727683e+000

1.47230024099979e+005,-2.10723699852115e+001,-1.03143711772471e+000

1.49285278645888e+005,-2.10724114434104e+001,-1.04581562376281e+000

1.51369223476094e+005,-2.10724540514888e+001,-1.06039401446201e+000

1.53482259092041e+005,-2.10724978408933e+001,-1.07517504548398e+000

1.55624791585964e+005,-2.10725428439047e+001,-1.09016150953744e+000

1.57797232718936e+005,-2.10725890936602e+001,-1.10535623683762e+000

1.59999999999999e+005,-2.10726366241734e+001,-1.12076209557190e+000

1.62233516766403e+005,-2.10726854703564e+001,-1.13638199236696e+000

1.64498212264969e+005,-2.10727356680419e+001,-1.15221887276305e+000

1.66794521734578e+005,-2.10727872540057e+001,-1.16827572169127e+000

1.69122886489819e+005,-2.10728402659896e+001,-1.18455556395365e+000

1.71483754005805e+005,-2.10728947427250e+001,-1.20106146471010e+000

1.73877578004168e+005,-2.10729507239564e+001,-1.21779652996679e+000

1.76304818540256e+005,-2.10730082504664e+001,-1.23476390707054e+000

1.78765942091554e+005,-2.10730673640999e+001,-1.25196678520676e+000

1.81261421647326e+005,-2.10731281077897e+001,-1.26940839590040e+000

1.83791736799524e+005,-2.10731905255822e+001,-1.28709201352220e+000

1.86357373834951e+005,-2.10732546626637e+001,-1.30502095579847e+000

1.88958825828723e+005,-2.10733205653869e+001,-1.32319858432377e+000

1.91596592739027e+005,-2.10733882812980e+001,-1.34162830507980e+000

1.94271181503206e+005,-2.10734578591648e+001,-1.36031356895534e+000

1.96983106135185e+005,-2.10735293490042e+001,-1.37925787227125e+000

1.99732887824256e+005,-2.10736028021109e+001,-1.39846475731020e+000

2.02521055035243e+005,-2.10736782710867e+001,-1.41793781284746e+000

2.05348143610063e+005,-2.10737558098695e+001,-1.43768067468746e+000

2.08214696870707e+005,-2.10738354737636e+001,-1.45769702620266e+000

2.11121265723661e+005,-2.10739173194696e+001,-1.47799059887748e+000

2.14068408765776e+005,-2.10740014051158e+001,-1.49856517285216e+000

2.17056692391625e+005,-2.10740877902884e+001,-1.51942457747517e+000

2.20086690902357e+005,-2.10741765360642e+001,-1.54057269185289e+000

2.23158986616063e+005,-2.10742677050420e+001,-1.56201344540752e+000

2.26274169979693e+005,-2.10743613613748e+001,-1.58375081843485e+000

2.29432839682530e+005,-2.10744575708033e+001,-1.60578884266714e+000

2.32635602771247e+005,-2.10745564006883e+001,-1.62813160183665e+000

2.35883074766574e+005,-2.10746579200447e+001,-1.65078323224454e+000

2.39175879781588e+005,-2.10747621995752e+001,-1.67374792333067e+000

2.42514650641661e+005,-2.10748693117039e+001,-1.69702991824737e+000

2.45900029006080e+005,-2.10749793306117e+001,-1.72063351443469e+000

2.49332665491357e+005,-2.10750923322702e+001,-1.74456306419842e+000

2.52813219796278e+005,-2.10752083944769e+001,-1.76882297529239e+000

2.56342360828676e+005,-2.10753275968904e+001,-1.79341771149962e+000

2.59920766833993e+005,-2.10754500210654e+001,-1.81835179322017e+000

2.63549125525621e+005,-2.10755757504886e+001,-1.84362979805615e+000

2.67228134217075e+005,-2.10757048706140e+001,-1.86925636140458e+000

2.70958499956006e+005,-2.10758374688988e+001,-1.89523617704665e+000

2.74740939660078e+005,-2.10759736348388e+001,-1.92157399774433e+000

2.78576180254757e+005,-2.10761134600046e+001,-1.94827463583422e+000

2.82464958813007e+005,-2.10762570380766e+001,-1.97534296382780e+000

2.86408022696948e+005,-2.10764044648816e+001,-2.00278391500922e+000

2.90406129701488e+005,-2.10765558384272e+001,-2.03060248403897e+000

2.94460048199957e+005,-2.10767112589381e+001,-2.05880372755585e+000

2.98570557291775e+005,-2.10768708288902e+001,-2.08739276478433e+000

3.02738446952187e+005,-2.10770346530464e+001,-2.11637477814017e+000

3.06964518184081e+005,-2.10772028384902e+001,-2.14575501384043e+000

3.11249583171928e+005,-2.10773754946601e+001,-2.17553878251424e+000

3.15594465437872e+005,-2.10775527333831e+001,-2.20573145981607e+000

3.19999999999997e+005,-2.10777346689076e+001,-2.23633848704009e+000

3.24467033532806e+005,-2.10779214179359e+001,-2.26736537173724e+000

3.28996424529938e+005,-2.10781130996558e+001,-2.29881768833384e+000

3.33589043469155e+005,-2.10783098357715e+001,-2.33070107875341e+000

3.38245772979638e+005,-2.10785117505336e+001,-2.36302125304012e+000

3.42967508011610e+005,-2.10787189707684e+001,-2.39578398998353e+000

3.47755156008335e+005,-2.10789316259055e+001,-2.42899513774946e+000

3.52609637080511e+005,-2.10791498480056e+001,-2.46266061450956e+000

3.57531884183106e+005,-2.10793737717852e+001,-2.49678640907722e+000

3.62522843294651e+005,-2.10796035346419e+001,-2.53137858154572e+000

3.67583473599047e+005,-2.10798392766769e+001,-2.56644326392955e+000

3.72714747669902e+005,-2.10800811407167e+001,-2.60198666081082e+000

3.77917651657445e+005,-2.10803292723329e+001,-2.63801504999019e+000

3.83193185478053e+005,-2.10805838198602e+001,-2.67453478314145e+000

3.88542363006410e+005,-2.10808449344130e+001,-2.71155228647317e+000

3.93966212270369e+005,-2.10811127698995e+001,-2.74907406139450e+000

3.99465775648511e+005,-2.10813874830338e+001,-2.78710668518934e+000

4.05042110070485e+005,-2.10816692333461e+001,-2.82565681169668e+000

4.10696287220124e+005,-2.10819581831907e+001,-2.86473117199824e+000

4.16429393741414e+005,-2.10822544977507e+001,-2.90433657511535e+000

4.22242531447321e+005,-2.10825583450409e+001,-2.94447990871645e+000

4.28136817531551e+005,-2.10828698959082e+001,-2.98516813983142e+000

4.34113384783250e+005,-2.10831893240283e+001,-3.02640831558141e+000

4.40173381804713e+005,-2.10835168059002e+001,-3.06820756391663e+000

4.46317973232124e+005,-2.10838525208375e+001,-3.11057309437159e+000

4.52548339959385e+005,-2.10841966509560e+001,-3.15351219883190e+000

4.58865679365059e+005,-2.10845493811591e+001,-3.19703225231717e+000

4.65271205542494e+005,-2.10849108991185e+001,-3.24114071378251e+000

4.71766149533147e+005,-2.10852813952523e+001,-3.28584512693703e+000

4.78351759563174e+005,-2.10856610626992e+001,-3.33115312108244e+000

4.85029301283321e+005,-2.10860500972885e+001,-3.37707241197426e+000

4.91800058012158e+005,-2.10864486975071e+001,-3.42361080270528e+000

4.98665330982714e+005,-2.10868570644618e+001,-3.47077618461379e+000

5.05626439592555e+005,-2.10872754018379e+001,-3.51857653821998e+000

5.12684721657352e+005,-2.10877039158542e+001,-3.56701993418953e+000

5.19841533667984e+005,-2.10881428152123e+001,-3.61611453432981e+000

5.27098251051240e+005,-2.10885923110437e+001,-3.66586859261778e+000

5.34456268434150e+005,-2.10890526168512e+001,-3.71629045626418e+000

5.41916999912011e+005,-2.10895239484463e+001,-3.76738856681420e+000

