Freq.,VOut,OutRef

1.00000000000000e+004,-1.07557976413220e+001,-1.42544792671670e-001

1.01395947979003e+004,-1.07557975902568e+001,-1.44534643022292e-001

1.02811382665607e+004,-1.07557975377559e+001,-1.46552270614912e-001

1.04246576084112e+004,-1.07557974837790e+001,-1.48598063202718e-001

1.05701804056138e+004,-1.07557974282844e+001,-1.50672413954942e-001

1.07177346253629e+004,-1.07557973712296e+001,-1.52775721524886e-001

1.08673486252606e+004,-1.07557973125705e+001,-1.54908390135916e-001

1.10190511587661e+004,-1.07557972522623e+001,-1.57070829648302e-001

1.11728713807222e+004,-1.07557971902586e+001,-1.59263455647052e-001

1.13288388529580e+004,-1.07557971265115e+001,-1.61486689519090e-001

1.14869835499703e+004,-1.07557970609720e+001,-1.63740958532635e-001

1.16473358646846e+004,-1.07557969935900e+001,-1.66026695918162e-001

1.18099266142953e+004,-1.07557969243133e+001,-1.68344340958222e-001

1.19747870461893e+004,-1.07557968530889e+001,-1.70694339063105e-001

1.21419488439505e+004,-1.07557967798621e+001,-1.73077141861888e-001

1.23114441334492e+004,-1.07557967045762e+001,-1.75493207291416e-001

1.24833054890161e+004,-1.07557966271737e+001,-1.77942999675305e-001

1.26575659397028e+004,-1.07557965475948e+001,-1.80426989824039e-001

1.28342589756290e+004,-1.07557964657786e+001,-1.82945655116308e-001

1.30134185544193e+004,-1.07557963816620e+001,-1.85499479595965e-001

1.31950791077289e+004,-1.07557962951802e+001,-1.88088954066367e-001

1.33792755478611e+004,-1.07557962062670e+001,-1.90714576177487e-001

1.35660432744767e+004,-1.07557961148538e+001,-1.93376850528808e-001

1.37554181813974e+004,-1.07557960208703e+001,-1.96076288764279e-001

1.39474366635040e+004,-1.07557959242444e+001,-1.98813409668078e-001

1.41421356237309e+004,-1.07557958249016e+001,-2.01588739267155e-001

1.43395524801583e+004,-1.07557957227657e+001,-2.04402810931485e-001

1.45397251732031e+004,-1.07557956177580e+001,-2.07256165475627e-001

1.47426921729110e+004,-1.07557955097977e+001,-2.10149351265261e-001

1.49484924863494e+004,-1.07557953988020e+001,-2.13082924317704e-001

1.51571656651040e+004,-1.07557952846853e+001,-2.16057448415899e-001

1.53687518128801e+004,-1.07557951673600e+001,-2.19073495208470e-001

1.55832915932100e+004,-1.07557950467357e+001,-2.22131644327717e-001

1.58008262372675e+004,-1.07557949227198e+001,-2.25232483494134e-001

1.60213975517924e+004,-1.07557947952168e+001,-2.28376608633689e-001

1.62450479271247e+004,-1.07557946641288e+001,-2.31564623989789e-001

1.64718203453514e+004,-1.07557945293549e+001,-2.34797142241380e-001

1.67017583885674e+004,-1.07557943907913e+001,-2.38074784621040e-001

1.69349062472505e+004,-1.07557942483317e+001,-2.41398181031014e-001

1.71713087287550e+004,-1.07557941018662e+001,-2.44767970167712e-001

1.74110112659224e+004,-1.07557939512824e+001,-2.48184799642261e-001

1.76540599258131e+004,-1.07557937964645e+001,-2.51649326106194e-001

1.79005014185594e+004,-1.07557936372934e+001,-2.55162215377658e-001

1.81503831063432e+004,-1.07557934736463e+001,-2.58724142569524e-001

1.84037530124975e+004,-1.07557933053979e+001,-2.62335792216111e-001

1.86606598307361e+004,-1.07557931324183e+001,-2.65997858410060e-001

1.89211529345119e+004,-1.07557929545748e+001,-2.69711044930572e-001

1.91852823865052e+004,-1.07557927717305e+001,-2.73476065382139e-001

1.94530989482457e+004,-1.07557925837446e+001,-2.77293643330348e-001

1.97246540898671e+004,-1.07557923904727e+001,-2.81164512439866e-001

1.99999999999999e+004,-1.07557921917659e+001,-2.85089416618938e-001

2.02791895958005e+004,-1.07557919874715e+001,-2.89069110157325e-001

2.05622765331213e+004,-1.07557917774324e+001,-2.93104357874708e-001

2.08493152168224e+004,-1.07557915614868e+001,-2.97195935267709e-001

2.11403608112276e+004,-1.07557913394687e+001,-3.01344628656856e-001

2.14354692507258e+004,-1.07557911112074e+001,-3.05551235338954e-001

2.17346972505211e+004,-1.07557908765271e+001,-3.09816563741300e-001

2.20381023175322e+004,-1.07557906352474e+001,-3.14141433573359e-001

2.23457427614443e+004,-1.07557903871825e+001,-3.18526675989882e-001

2.26576777059159e+004,-1.07557901321416e+001,-3.22973133745425e-001

2.29739670999406e+004,-1.07557898699287e+001,-3.27481661357798e-001

2.32946717293690e+004,-1.07557896003416e+001,-3.32053125275890e-001

2.36198532285905e+004,-1.07557893231733e+001,-3.36688404038776e-001

2.39495740923785e+004,-1.07557890382104e+001,-3.41388388452164e-001

2.42838976879009e+004,-1.07557887452335e+001,-3.46153981755078e-001

2.46228882668982e+004,-1.07557884440172e+001,-3.50986099794834e-001

2.49666109780322e+004,-1.07557881343296e+001,-3.55885671201596e-001

2.53151318794055e+004,-1.07557878159327e+001,-3.60853637568561e-001

2.56685179512580e+004,-1.07557874885814e+001,-3.65890953632330e-001

2.60268371088386e+004,-1.07557871520235e+001,-3.70998587456233e-001

2.63901582154578e+004,-1.07557868060003e+001,-3.76177520616556e-001

2.67585510957221e+004,-1.07557864502452e+001,-3.81428748390782e-001

2.71320865489533e+004,-1.07557860844846e+001,-3.86753279947785e-001

2.75108363627948e+004,-1.07557857084368e+001,-3.92152138544514e-001

2.78948733270080e+004,-1.07557853218127e+001,-3.97626361719339e-001

2.82842712474618e+004,-1.07557849243143e+001,-4.03177001494772e-001

2.86791049603164e+004,-1.07557845156358e+001,-4.08805124576480e-001

2.90794503464061e+004,-1.07557840954626e+001,-4.14511812559521e-001

2.94853843458219e+004,-1.07557836634714e+001,-4.20298162135995e-001

2.98969849726987e+004,-1.07557832193293e+001,-4.26165285308012e-001

3.03143313302078e+004,-1.07557827626946e+001,-4.32114309595590e-001

3.07375036257601e+004,-1.07557822932157e+001,-4.38146378260069e-001

3.11665831864199e+004,-1.07557818105311e+001,-4.44262650518567e-001

3.16016524745350e+004,-1.07557813142692e+001,-4.50464301769361e-001

3.20427951035848e+004,-1.07557808040478e+001,-4.56752523817528e-001

3.24900958542493e+004,-1.07557802794740e+001,-4.63128525102749e-001

3.29436406907028e+004,-1.07557797401440e+001,-4.69593530930757e-001

3.34035167771346e+004,-1.07557791856423e+001,-4.76148783712967e-001

3.38698124945009e+004,-1.07557786155419e+001,-4.82795543199527e-001

3.43426174575100e+004,-1.07557780294037e+001,-4.89535086725650e-001

3.48220225318448e+004,-1.07557774267762e+001,-4.96368709453892e-001

3.53081198516260e+004,-1.07557768071954e+001,-5.03297724625706e-001

3.58010028371187e+004,-1.07557761701838e+001,-5.10323463811684e-001

3.63007662126863e+004,-1.07557755152509e+001,-5.17447277167423e-001

3.68075060249948e+004,-1.07557748418918e+001,-5.24670533695310e-001

3.73213196614721e+004,-1.07557741495882e+001,-5.31994621502477e-001

3.78423058690237e+004,-1.07557734378063e+001,-5.39420948073697e-001

3.83705647730104e+004,-1.07557727059978e+001,-5.46950940536775e-001

3.89061978964912e+004,-1.07557719535988e+001,-5.54586045938789e-001

3.94493081797342e+004,-1.07557711800294e+001,-5.62327731524592e-001

3.99999999999998e+004,-1.07557703846935e+001,-5.70177485015991e-001

4.05583791916010e+004,-1.07557695669781e+001,-5.78136814900469e-001

4.11245530662425e+004,-1.07557687262529e+001,-5.86207250719673e-001

4.16986304336447e+004,-1.07557678618697e+001,-5.94390343362344e-001

4.22807216224550e+004,-1.07557669731623e+001,-6.02687665363468e-001

4.28709385014515e+004,-1.07557660594455e+001,-6.11100811205617e-001

4.34693945010421e+004,-1.07557651200148e+001,-6.19631397625600e-001

4.40762046350642e+004,-1.07557641541456e+001,-6.28281063924299e-001

4.46914855228886e+004,-1.07557631610934e+001,-6.37051472281354e-001

4.53153554118317e+004,-1.07557621400922e+001,-6.45944308076001e-001

4.59479341998812e+004,-1.07557610903543e+001,-6.54961280208729e-001

4.65893434587380e+004,-1.07557600110704e+001,-6.64104121429223e-001

4.72397064571810e+004,-1.07557589014075e+001,-6.73374588672723e-001

4.78991481847569e+004,-1.07557577605097e+001,-6.82774463392298e-001

4.85677953758016e+004,-1.07557565874966e+001,-6.92305551904252e-001

4.92457765337964e+004,-1.07557553814631e+001,-7.01969685734221e-001

4.99332219560642e+004,-1.07557541414783e+001,-7.11768721968144e-001

5.06302637588109e+004,-1.07557528665854e+001,-7.21704543609067e-001

5.13370359025159e+004,-1.07557515558000e+001,-7.31779059940239e-001

5.20536742176771e+004,-1.07557502081104e+001,-7.41994206888307e-001

5.27803164309155e+004,-1.07557488224759e+001,-7.52351947398977e-001

5.35171021914442e+004,-1.07557473978267e+001,-7.62854271810011e-001

5.42641730979066e+004,-1.07557459330624e+001,-7.73503198236321e-001

5.50216727255895e+004,-1.07557444270517e+001,-7.84300772956075e-001

5.57897466540159e+004,-1.07557428786312e+001,-7.95249070802766e-001

5.65685424949235e+004,-1.07557412866047e+001,-8.06350195565539e-001

5.73582099206328e+004,-1.07557396497420e+001,-8.17606280390028e-001

5.81589006928121e+004,-1.07557379667782e+001,-8.29019488191391e-001

5.89707686916437e+004,-1.07557362364125e+001,-8.40592012065855e-001

5.97939699453972e+004,-1.07557344573071e+001,-8.52326075715112e-001

6.06286626604156e+004,-1.07557326280867e+001,-8.64223933868729e-001

6.14750072515201e+004,-1.07557307473368e+001,-8.76287872721991e-001

6.23331663728396e+004,-1.07557288136027e+001,-8.88520210370759e-001

6.32033049490698e+004,-1.07557268253888e+001,-9.00923297256923e-001

6.40855902071694e+004,-1.07557247811567e+001,-9.13499516621739e-001

6.49801917084985e+004,-1.07557226793248e+001,-9.26251284959188e-001

6.58872813814055e+004,-1.07557205182663e+001,-9.39181052484142e-001

6.68070335542691e+004,-1.07557182963084e+001,-9.52291303598436e-001

6.77396249890018e+004,-1.07557160117309e+001,-9.65584557369921e-001

6.86852349150199e+004,-1.07557136627645e+001,-9.79063368014951e-001

6.96440450636895e+004,-1.07557112475900e+001,-9.92730325388701e-001

7.06162397032520e+004,-1.07557087643364e+001,-1.00658805548056e+000

7.16020056742374e+004,-1.07557062110795e+001,-1.02063922092033e+000

7.26015324253724e+004,-1.07557035858404e+001,-1.03488652148670e+000

7.36150120499896e+004,-1.07557008865841e+001,-1.04933269462619e+000

7.46426393229441e+004,-1.07556981112177e+001,-1.06398051597797e+000

7.56846117380472e+004,-1.07556952575888e+001,-1.07883279990506e+000

7.67411295460207e+004,-1.07556923234835e+001,-1.09389240003685e+000

7.78123957929823e+004,-1.07556893066252e+001,-1.10916220981214e+000

7.88986163594682e+004,-1.07556862046724e+001,-1.12464516303845e+000

7.99999999999995e+004,-1.07556830152170e+001,-1.14034423445031e+000

8.11167583832018e+004,-1.07556797357821e+001,-1.15626244028243e+000

8.22491061324848e+004,-1.07556763638205e+001,-1.17240283884666e+000

8.33972608672892e+004,-1.07556728967121e+001,-1.18876853111912e+000

8.45614432449099e+004,-1.07556693317622e+001,-1.20536266133336e+000

8.57418770029029e+004,-1.07556656661992e+001,-1.22218841758364e+000

8.69387890020841e+004,-1.07556618971726e+001,-1.23924903243649e+000

8.81524092701283e+004,-1.07556580217502e+001,-1.25654778354889e+000

8.93829710457770e+004,-1.07556540369162e+001,-1.27408799429791e+000

9.06307108236633e+004,-1.07556499395686e+001,-1.29187303441594e+000

9.18958683997622e+004,-1.07556457265167e+001,-1.30990632063773e+000

9.31786869174758e+004,-1.07556413944786e+001,-1.32819131735319e+000

9.44794129143618e+004,-1.07556369400786e+001,-1.34673153727294e+000

9.57982963695136e+004,-1.07556323598439e+001,-1.36553054210055e+000

9.71355907516031e+004,-1.07556276502028e+001,-1.38459194321346e+000

9.84915530675926e+004,-1.07556228074810e+001,-1.40391940235601e+000

9.98664439121282e+004,-1.07556178278988e+001,-1.42351663234103e+000

1.01260527517622e+005,-1.07556127075681e+001,-1.44338739775936e+000

1.02674071805032e+005,-1.07556074424894e+001,-1.46353551570056e+000

1.04107348435354e+005,-1.07556020285480e+001,-1.48396485648592e+000

1.05560632861831e+005,-1.07555964615113e+001,-1.50467934440656e+000

1.07034204382888e+005,-1.07555907370249e+001,-1.52568295847609e+000

1.08528346195813e+005,-1.07555848506091e+001,-1.54697973319213e+000

1.10043345451179e+005,-1.07555787976553e+001,-1.56857375930812e+000

1.11579493308032e+005,-1.07555725734223e+001,-1.59046918461531e+000

1.13137084989847e+005,-1.07555661730320e+001,-1.61267021473820e+000

1.14716419841265e+005,-1.07555595914658e+001,-1.63518111393744e+000

1.16317801385624e+005,-1.07555528235602e+001,-1.65800620592551e+000

1.17941537383287e+005,-1.07555458640028e+001,-1.68114987469533e+000

1.19587939890794e+005,-1.07555387073275e+001,-1.70461656535727e+000

1.21257325320831e+005,-1.07555313479101e+001,-1.72841078498887e+000

1.22950014503040e+005,-1.07555237799638e+001,-1.75253710349827e+000

1.24666332745679e+005,-1.07555159975342e+001,-1.77700015449548e+000

1.26406609898139e+005,-1.07555079944942e+001,-1.80180463618106e+000

1.28171180414339e+005,-1.07554997645392e+001,-1.82695531224123e+000

1.29960383416997e+005,-1.07554913011814e+001,-1.85245701275946e+000

1.31774562762811e+005,-1.07554825977448e+001,-1.87831463513968e+000

1.33614067108538e+005,-1.07554736473589e+001,-1.90453314504243e+000

1.35479249978003e+005,-1.07554644429537e+001,-1.93111757733124e+000

1.37370469830040e+005,-1.07554549772529e+001,-1.95807303703665e+000

1.39288090127379e+005,-1.07554452427685e+001,-1.98540470032999e+000

1.41232479406504e+005,-1.07554352317937e+001,-2.01311781551234e+000

1.43204011348474e+005,-1.07554249363967e+001,-2.04121770401585e+000

1.45203064850745e+005,-1.07554143484141e+001,-2.06970976142030e+000

1.47230024099979e+005,-1.07554034594433e+001,-2.09859945848279e+000

1.49285278645888e+005,-1.07553922608357e+001,-2.12789234218149e+000

1.51369223476094e+005,-1.07553807436893e+001,-2.15759403677402e+000

1.53482259092041e+005,-1.07553688988407e+001,-2.18771024487168e+000

1.55624791585964e+005,-1.07553567168572e+001,-2.21824674852543e+000

1.57797232718936e+005,-1.07553441880290e+001,-2.24920941033060e+000

1.59999999999999e+005,-1.07553313023600e+001,-2.28060417454307e+000

1.62233516766403e+005,-1.07553180495598e+001,-2.31243706821408e+000

1.64498212264969e+005,-1.07553044190342e+001,-2.34471420233925e+000

1.66794521734578e+005,-1.07552903998759e+001,-2.37744177302206e+000

1.69122886489819e+005,-1.07552759808552e+001,-2.41062606265631e+000

1.71483754005805e+005,-1.07552611504096e+001,-2.44427344112300e+000

1.73877578004168e+005,-1.07552458966339e+001,-2.47839036700302e+000

1.76304818540256e+005,-1.07552302072696e+001,-2.51298338880862e+000

1.78765942091554e+005,-1.07552140696935e+001,-2.54805914622998e+000

1.81261421647326e+005,-1.07551974709068e+001,-2.58362437140085e+000

1.83791736799524e+005,-1.07551803975232e+001,-2.61968589017929e+000

1.86357373834951e+005,-1.07551628357572e+001,-2.65625062344724e+000

1.88958825828723e+005,-1.07551447714110e+001,-2.69332558842924e+000

1.91596592739027e+005,-1.07551261898620e+001,-2.73091790002678e+000

1.94271181503206e+005,-1.07551070760493e+001,-2.76903477217329e+000

1.96983106135185e+005,-1.07550874144602e+001,-2.80768351920597e+000

1.99732887824256e+005,-1.07550671891155e+001,-2.84687155725843e+000

2.02521055035243e+005,-1.07550463835551e+001,-2.88660640567054e+000

2.05348143610063e+005,-1.07550249808226e+001,-2.92689568841944e+000

2.08214696870707e+005,-1.07550029634499e+001,-2.96774713556905e+000

2.11121265723661e+005,-1.07549803134402e+001,-3.00916858474079e+000

2.14068408765776e+005,-1.07549570122521e+001,-3.05116798260300e+000

2.17056692391625e+005,-1.07549330407814e+001,-3.09375338638277e+000

2.20086690902357e+005,-1.07549083793435e+001,-3.13693296539672e+000

2.23158986616063e+005,-1.07548830076547e+001,-3.18071500260520e+000

2.26274169979693e+005,-1.07548569048127e+001,-3.22510789618605e+000

2.29432839682530e+005,-1.07548300492773e+001,-3.27012016113066e+000

2.32635602771247e+005,-1.07548024188491e+001,-3.31576043086291e+000

2.35883074766574e+005,-1.07547739906484e+001,-3.36203745887995e+000

2.39175879781588e+005,-1.07547447410932e+001,-3.40896012041537e+000

2.42514650641661e+005,-1.07547146458764e+001,-3.45653741412659e+000

2.45900029006080e+005,-1.07546836799420e+001,-3.50477846380441e+000

2.49332665491357e+005,-1.07546518174608e+001,-3.55369252010806e+000

2.52813219796278e+005,-1.07546190318049e+001,-3.60328896232152e+000

2.56342360828676e+005,-1.07545852955217e+001,-3.65357730013815e+000

2.59920766833993e+005,-1.07545505803065e+001,-3.70456717546780e+000

2.63549125525621e+005,-1.07545148569748e+001,-3.75626836426872e+000

2.67228134217075e+005,-1.07544780954329e+001,-3.80869077840787e+000

2.70958499956006e+005,-1.07544402646480e+001,-3.86184446754432e+000

2.74740939660078e+005,-1.07544013326168e+001,-3.91573962104108e+000

2.78576180254757e+005,-1.07543612663337e+001,-3.97038656990304e+000

2.82464958813007e+005,-1.07543200317568e+001,-4.02579578874350e+000

2.86408022696948e+005,-1.07542775937739e+001,-4.08197789777582e+000

2.90406129701488e+005,-1.07542339161661e+001,-4.13894366483704e+000

2.94460048199957e+005,-1.07541889615713e+001,-4.19670400743637e+000

2.98570557291775e+005,-1.07541426914453e+001,-4.25526999483686e+000

3.02738446952187e+005,-1.07540950660226e+001,-4.31465285016334e+000

3.06964518184081e+005,-1.07540460442744e+001,-4.37486395254215e+000

3.11249583171928e+005,-1.07539955838667e+001,-4.43591483927292e+000

3.15594465437872e+005,-1.07539436411159e+001,-4.49781720802855e+000

3.19999999999997e+005,-1.07538901709428e+001,-4.56058291908996e+000

3.24467033532806e+005,-1.07538351268255e+001,-4.62422399761146e+000

3.28996424529938e+005,-1.07537784607504e+001,-4.68875263592030e+000

3.33589043469155e+005,-1.07537201231611e+001,-4.75418119584948e+000

3.38245772979638e+005,-1.07536600629062e+001,-4.82052221110445e+000

3.42967508011610e+005,-1.07535982271843e+001,-4.88778838966481e+000

3.47755156008335e+005,-1.07535345614881e+001,-4.95599261622245e+000

3.52609637080511e+005,-1.07534690095456e+001,-5.02514795465535e+000

3.57531884183106e+005,-1.07534015132601e+001,-5.09526765053771e+000

3.62522843294651e+005,-1.07533320126468e+001,-5.16636513368955e+000

3.67583473599047e+005,-1.07532604457689e+001,-5.23845402076303e+000

3.72714747669902e+005,-1.07531867486696e+001,-5.31154811786964e+000

3.77917651657445e+005,-1.07531108553034e+001,-5.38566142324600e+000

3.83193185478053e+005,-1.07530326974637e+001,-5.46080812996213e+000

3.88542363006410e+005,-1.07529522047084e+001,-5.53700262867066e+000

3.93966212270369e+005,-1.07528693042832e+001,-5.61425951039872e+000

3.99465775648511e+005,-1.07527839210415e+001,-5.69259356938475e+000

4.05042110070485e+005,-1.07526959773622e+001,-5.77201980595793e+000

4.10696287220124e+005,-1.07526053930643e+001,-5.85255342946581e+000

4.16429393741414e+005,-1.07525120853186e+001,-5.93420986124671e+000

4.22242531447321e+005,-1.07524159685565e+001,-6.01700473765087e+000

4.28136817531551e+005,-1.07523169543757e+001,-6.10095391311028e+000

4.34113384783250e+005,-1.07522149514424e+001,-6.18607346325923e+000

4.40173381804713e+005,-1.07521098653905e+001,-6.27237968810524e+000

4.46317973232124e+005,-1.07520015987174e+001,-6.35988911525394e+000

4.52548339959385e+005,-1.07518900506763e+001,-6.44861850318609e+000

4.58865679365059e+005,-1.07517751171647e+001,-6.53858484459173e+000

4.65271205542494e+005,-1.07516566906093e+001,-6.62980536975994e+000

4.71766149533147e+005,-1.07515346598477e+001,-6.72229755002647e+000

4.78351759563174e+005,-1.07514089100053e+001,-6.81607910128236e+000

4.85029301283321e+005,-1.07512793223689e+001,-6.91116798754186e+000

4.91800058012158e+005,-1.07511457742560e+001,-7.00758242457510e+000

4.98665330982714e+005,-1.07510081388804e+001,-7.10534088360310e+000

5.05626439592555e+005,-1.07508662852126e+001,-7.20446209506137e+000

5.12684721657352e+005,-1.07507200778368e+001,-7.30496505242904e+000

5.19841533667984e+005,-1.07505693768031e+001,-7.40686901613002e+000

5.27098251051240e+005,-1.07504140374750e+001,-7.51019351750405e+000

5.34456268434150e+005,-1.07502539103732e+001,-7.61495836285267e+000

5.41916999912011e+005,-1.07500888410131e+001,-7.72118363756065e+000

