Freq.,VOut,OutRef

1.00000000000000e+004,-2.23747834275726e+001,-1.46213576553725e-001

1.01395947979003e+004,-2.23747837712122e+001,-1.48254636412894e-001

1.02811382665607e+004,-2.23747841245125e+001,-1.50324188168748e-001

1.04246576084112e+004,-2.23747844877452e+001,-1.52422629542033e-001

1.05701804056138e+004,-2.23747848611895e+001,-1.54550363805996e-001

1.07177346253629e+004,-2.23747852451326e+001,-1.56707799863196e-001

1.08673486252606e+004,-2.23747856398693e+001,-1.58895352325160e-001

1.10190511587661e+004,-2.23747860457033e+001,-1.61113441588309e-001

1.11728713807222e+004,-2.23747864629465e+001,-1.63362493918346e-001

1.13288388529580e+004,-2.23747868919197e+001,-1.65642941529876e-001

1.14869835499703e+004,-2.23747873329525e+001,-1.67955222672198e-001

1.16473358646846e+004,-2.23747877863841e+001,-1.70299781709581e-001

1.18099266142953e+004,-2.23747882525630e+001,-1.72677069210545e-001

1.19747870461893e+004,-2.23747887318475e+001,-1.75087542032479e-001

1.21419488439505e+004,-2.23747892246062e+001,-1.77531663408242e-001

1.23114441334492e+004,-2.23747897312175e+001,-1.80009903038807e-001

1.24833054890161e+004,-2.23747902520711e+001,-1.82522737179594e-001

1.26575659397028e+004,-2.23747907875675e+001,-1.85070648732459e-001

1.28342589756290e+004,-2.23747913381181e+001,-1.87654127342259e-001

1.30134185544193e+004,-2.23747919041463e+001,-1.90273669486186e-001

1.31950791077289e+004,-2.23747924860869e+001,-1.92929778573313e-001

1.33792755478611e+004,-2.23747930843873e+001,-1.95622965036856e-001

1.35660432744767e+004,-2.23747936995076e+001,-1.98353746435225e-001

1.37554181813974e+004,-2.23747943319206e+001,-2.01122647550298e-001

1.39474366635040e+004,-2.23747949821122e+001,-2.03930200490899e-001

1.41421356237309e+004,-2.23747956505823e+001,-2.06776944790573e-001

1.43395524801583e+004,-2.23747963378449e+001,-2.09663427513214e-001

1.45397251732031e+004,-2.23747970444280e+001,-2.12590203360244e-001

1.47426921729110e+004,-2.23747977708750e+001,-2.15557834772655e-001

1.49484924863494e+004,-2.23747985177439e+001,-2.18566892045100e-001

1.51571656651040e+004,-2.23747992856092e+001,-2.21617953427948e-001

1.53687518128801e+004,-2.23748000750608e+001,-2.24711605245914e-001

1.55832915932100e+004,-2.23748008867057e+001,-2.27848442004696e-001

1.58008262372675e+004,-2.23748017211678e+001,-2.31029066508019e-001

1.60213975517924e+004,-2.23748025790883e+001,-2.34254089974240e-001

1.62450479271247e+004,-2.23748034611267e+001,-2.37524132151091e-001

1.64718203453514e+004,-2.23748043679611e+001,-2.40839821436769e-001

1.67017583885674e+004,-2.23748053002883e+001,-2.44201794999589e-001

1.69349062472505e+004,-2.23748062588251e+001,-2.47610698900331e-001

1.71713087287550e+004,-2.23748072443082e+001,-2.51067188216708e-001

1.74110112659224e+004,-2.23748082574949e+001,-2.54571927170076e-001

1.76540599258131e+004,-2.23748092991641e+001,-2.58125589250694e-001

1.79005014185594e+004,-2.23748103701166e+001,-2.61728857348123e-001

1.81503831063432e+004,-2.23748114711751e+001,-2.65382423884709e-001

1.84037530124975e+004,-2.23748126031863e+001,-2.69086990943439e-001

1.86606598307361e+004,-2.23748137670200e+001,-2.72843270408054e-001

1.89211529345119e+004,-2.23748149635708e+001,-2.76651984095660e-001

1.91852823865052e+004,-2.23748161937582e+001,-2.80513863899005e-001

1.94530989482457e+004,-2.23748174585279e+001,-2.84429651922245e-001

1.97246540898671e+004,-2.23748187588519e+001,-2.88400100628090e-001

1.99999999999999e+004,-2.23748200957295e+001,-2.92425972980730e-001

2.02791895958005e+004,-2.23748214701882e+001,-2.96508042590007e-001

2.05622765331213e+004,-2.23748228832844e+001,-3.00647093863343e-001

2.08493152168224e+004,-2.23748243361040e+001,-3.04843922154235e-001

2.11403608112276e+004,-2.23748258297638e+001,-3.09099333914541e-001

2.14354692507258e+004,-2.23748273654113e+001,-3.13414146853394e-001

2.17346972505211e+004,-2.23748289442273e+001,-3.17789190085975e-001

2.20381023175322e+004,-2.23748305674245e+001,-3.22225304302938e-001

2.23457427614443e+004,-2.23748322362508e+001,-3.26723341922349e-001

2.26576777059159e+004,-2.23748339519885e+001,-3.31284167259094e-001

2.29739670999406e+004,-2.23748357159562e+001,-3.35908656689538e-001

2.32946717293690e+004,-2.23748375295094e+001,-3.40597698818602e-001

2.36198532285905e+004,-2.23748393940419e+001,-3.45352194650290e-001

2.39495740923785e+004,-2.23748413109865e+001,-3.50173057761471e-001

2.42838976879009e+004,-2.23748432818163e+001,-3.55061214477735e-001

2.46228882668982e+004,-2.23748453080457e+001,-3.60017604050146e-001

2.49666109780322e+004,-2.23748473912319e+001,-3.65043178833808e-001

2.53151318794055e+004,-2.23748495329756e+001,-3.70138904474443e-001

2.56685179512580e+004,-2.23748517349226e+001,-3.75305760090737e-001

2.60268371088386e+004,-2.23748539987650e+001,-3.80544738462390e-001

2.63901582154578e+004,-2.23748563262422e+001,-3.85856846222051e-001

2.67585510957221e+004,-2.23748587191427e+001,-3.91243104047425e-001

2.71320865489533e+004,-2.23748611793052e+001,-3.96704546855925e-001

2.75108363627948e+004,-2.23748637086201e+001,-4.02242224005925e-001

2.78948733270080e+004,-2.23748663090305e+001,-4.07857199495766e-001

2.82842712474618e+004,-2.23748689825349e+001,-4.13550552167090e-001

2.86791049603164e+004,-2.23748717311872e+001,-4.19323375915553e-001

2.90794503464061e+004,-2.23748745570992e+001,-4.25176779896845e-001

2.94853843458219e+004,-2.23748774624422e+001,-4.31111888740069e-001

2.98969849726987e+004,-2.23748804494485e+001,-4.37129842764025e-001

3.03143313302078e+004,-2.23748835204128e+001,-4.43231798196863e-001

3.07375036257601e+004,-2.23748866776946e+001,-4.49418927395156e-001

3.11665831864199e+004,-2.23748899237193e+001,-4.55692419071265e-001

3.16016524745350e+004,-2.23748932609810e+001,-4.62053478517959e-001

3.20427951035848e+004,-2.23748966920432e+001,-4.68503327843276e-001

3.24900958542493e+004,-2.23749002195418e+001,-4.75043206202471e-001

3.29436406907028e+004,-2.23749038461867e+001,-4.81674370035057e-001

3.34035167771346e+004,-2.23749075747637e+001,-4.88398093306095e-001

3.38698124945009e+004,-2.23749114081372e+001,-4.95215667751573e-001

3.43426174575100e+004,-2.23749153492515e+001,-5.02128403124808e-001

3.48220225318448e+004,-2.23749194011343e+001,-5.09137627445131e-001

3.53081198516260e+004,-2.23749235668976e+001,-5.16244687256920e-001

3.58010028371187e+004,-2.23749278497414e+001,-5.23450947883574e-001

3.63007662126863e+004,-2.23749322529550e+001,-5.30757793690966e-001

3.68075060249948e+004,-2.23749367799205e+001,-5.38166628351867e-001

3.73213196614721e+004,-2.23749414341147e+001,-5.45678875114408e-001

3.78423058690237e+004,-2.23749462191123e+001,-5.53295977074769e-001

3.83705647730104e+004,-2.23749511385880e+001,-5.61019397454048e-001

3.89061978964912e+004,-2.23749561963200e+001,-5.68850619877512e-001

3.94493081797342e+004,-2.23749613961923e+001,-5.76791148659549e-001

3.99999999999998e+004,-2.23749667421980e+001,-5.84842509089785e-001

4.05583791916010e+004,-2.23749722384424e+001,-5.93006247726270e-001

4.11245530662425e+004,-2.23749778891461e+001,-6.01283932690711e-001

4.16986304336447e+004,-2.23749836986480e+001,-6.09677153969991e-001

4.22807216224550e+004,-2.23749896714088e+001,-6.18187523717192e-001

4.28709385014515e+004,-2.23749958120144e+001,-6.26816676563502e-001

4.34693945010421e+004,-2.23750021251794e+001,-6.35566269928094e-001

4.40762046350642e+004,-2.23750086157509e+001,-6.44437984335346e-001

4.46914855228886e+004,-2.23750152887119e+001,-6.53433523737362e-001

4.53153554118317e+004,-2.23750221491849e+001,-6.62554615839220e-001

4.59479341998812e+004,-2.23750292024368e+001,-6.71803012427258e-001

4.65893434587380e+004,-2.23750364538817e+001,-6.81180489707392e-001

4.72397064571810e+004,-2.23750439090860e+001,-6.90688848639988e-001

4.78991481847569e+004,-2.23750515737719e+001,-7.00329915288009e-001

4.85677953758016e+004,-2.23750594538223e+001,-7.10105541163571e-001

4.92457765337964e+004,-2.23750675552854e+001,-7.20017603580742e-001

4.99332219560642e+004,-2.23750758843785e+001,-7.30068006016005e-001

5.06302637588109e+004,-2.23750844474937e+001,-7.40258678470199e-001

5.13370359025159e+004,-2.23750932512023e+001,-7.50591577837046e-001

5.20536742176771e+004,-2.23751023022598e+001,-7.61068688276264e-001

5.27803164309155e+004,-2.23751116076112e+001,-7.71692021592885e-001

5.35171021914442e+004,-2.23751211743961e+001,-7.82463617620070e-001

5.42641730979066e+004,-2.23751310099546e+001,-7.93385544608371e-001

5.50216727255895e+004,-2.23751411218323e+001,-8.04459899619378e-001

5.57897466540159e+004,-2.23751515177864e+001,-8.15688808927563e-001

5.65685424949235e+004,-2.23751622057917e+001,-8.27074428421913e-001

5.73582099206328e+004,-2.23751731940463e+001,-8.38618944019270e-001

5.81589006928121e+004,-2.23751844909784e+001,-8.50324572079899e-001

5.89707686916437e+004,-2.23751961052518e+001,-8.62193559829693e-001

5.97939699453972e+004,-2.23752080457739e+001,-8.74228185786556e-001

6.06286626604156e+004,-2.23752203217009e+001,-8.86430760196308e-001

6.14750072515201e+004,-2.23752329424462e+001,-8.98803625469813e-001

6.23331663728396e+004,-2.23752459176863e+001,-9.11349156630723e-001

6.32033049490698e+004,-2.23752592573692e+001,-9.24069761765257e-001

6.40855902071694e+004,-2.23752729717215e+001,-9.36967882479641e-001

6.49801917084985e+004,-2.23752870712560e+001,-9.50045994366707e-001

6.58872813814055e+004,-2.23753015667799e+001,-9.63306607473611e-001

6.68070335542691e+004,-2.23753164694031e+001,-9.76752266779448e-001

6.77396249890018e+004,-2.23753317905468e+001,-9.90385552677322e-001

6.86852349150199e+004,-2.23753475419513e+001,-1.00420908146649e+000

6.96440450636895e+004,-2.23753637356861e+001,-1.01822550584533e+000

7.06162397032520e+004,-2.23753803841581e+001,-1.03243751541747e+000

7.16020056742374e+004,-2.23753975001217e+001,-1.04684783719936e+000

7.26015324253724e+004,-2.23754150966879e+001,-1.06145923613844e+000

7.36150120499896e+004,-2.23754331873346e+001,-1.07627451563613e+000

7.46426393229441e+004,-2.23754517859166e+001,-1.09129651807898e+000

7.56846117380472e+004,-2.23754709066765e+001,-1.10652812537556e+000

7.67411295460207e+004,-2.23754905642547e+001,-1.12197225950422e+000

7.78123957929823e+004,-2.23755107737015e+001,-1.13763188306185e+000

7.88986163594682e+004,-2.23755315504873e+001,-1.15350999982750e+000

7.99999999999995e+004,-2.23755529105155e+001,-1.16960965532791e+000

8.11167583832018e+004,-2.23755748701337e+001,-1.18593393741187e+000

8.22491061324848e+004,-2.23755974461462e+001,-1.20248597683594e+000

8.33972608672892e+004,-2.23756206558269e+001,-1.21926894785159e+000

8.45614432449099e+004,-2.23756445169321e+001,-1.23628606880591e+000

8.57418770029029e+004,-2.23756690477140e+001,-1.25354060274800e+000

8.69387890020841e+004,-2.23756942669345e+001,-1.27103585804197e+000

8.81524092701283e+004,-2.23757201938793e+001,-1.28877518899179e+000

8.93829710457770e+004,-2.23757468483723e+001,-1.30676199647102e+000

9.06307108236633e+004,-2.23757742507905e+001,-1.32499972856232e+000

9.18958683997622e+004,-2.23758024220796e+001,-1.34349188120616e+000

9.31786869174758e+004,-2.23758313837695e+001,-1.36224199885619e+000

9.44794129143618e+004,-2.23758611579905e+001,-1.38125367514543e+000

9.57982963695136e+004,-2.23758917674899e+001,-1.40053055355954e+000

9.71355907516031e+004,-2.23759232356491e+001,-1.42007632812078e+000

9.84915530675926e+004,-2.23759555865012e+001,-1.43989474407839e+000

9.98664439121282e+004,-2.23759888447486e+001,-1.45998959861059e+000

1.01260527517622e+005,-2.23760230357822e+001,-1.48036474153432e+000

1.02674071805032e+005,-2.23760581856996e+001,-1.50102407602496e+000

1.04107348435354e+005,-2.23760943213252e+001,-1.52197155934512e+000

1.05560632861831e+005,-2.23761314702299e+001,-1.54321120358312e+000

1.07034204382888e+005,-2.23761696607516e+001,-1.56474707640056e+000

1.08528346195813e+005,-2.23762089220168e+001,-1.58658330179096e+000

1.10043345451179e+005,-2.23762492839616e+001,-1.60872406084638e+000

1.11579493308032e+005,-2.23762907773547e+001,-1.63117359253559e+000

1.13137084989847e+005,-2.23763334338197e+001,-1.65393619449149e+000

1.14716419841265e+005,-2.23763772858586e+001,-1.67701622380947e+000

1.16317801385624e+005,-2.23764223668764e+001,-1.70041809785386e+000

1.17941537383287e+005,-2.23764687112054e+001,-1.72414629507856e+000

1.19587939890794e+005,-2.23765163541309e+001,-1.74820535585356e+000

1.21257325320831e+005,-2.23765653319172e+001,-1.77259988330626e+000

1.22950014503040e+005,-2.23766156818340e+001,-1.79733454417113e+000

1.24666332745679e+005,-2.23766674421847e+001,-1.82241406965084e+000

1.26406609898139e+005,-2.23767206523339e+001,-1.84784325628765e+000

1.28171180414339e+005,-2.23767753527370e+001,-1.87362696684712e+000

1.29960383416997e+005,-2.23768315849694e+001,-1.89977013121208e+000

1.31774562762811e+005,-2.23768893917573e+001,-1.92627774728797e+000

1.33614067108538e+005,-2.23769488170092e+001,-1.95315488191921e+000

1.35479249978003e+005,-2.23770099058478e+001,-1.98040667181867e+000

1.37370469830040e+005,-2.23770727046430e+001,-2.00803832450595e+000

1.39288090127379e+005,-2.23771372610463e+001,-2.03605511926021e+000

1.41232479406504e+005,-2.23772036240247e+001,-2.06446240808317e+000

1.43204011348474e+005,-2.23772718438971e+001,-2.09326561667393e+000

1.45203064850745e+005,-2.23773419723705e+001,-2.12247024541674e+000

1.47230024099979e+005,-2.23774140625782e+001,-2.15208187037995e+000

1.49285278645888e+005,-2.23774881691172e+001,-2.18210614432834e+000

1.51369223476094e+005,-2.23775643480889e+001,-2.21254879774654e+000

1.53482259092041e+005,-2.23776426571390e+001,-2.24341563987579e+000

1.55624791585964e+005,-2.23777231554993e+001,-2.27471255976288e+000

1.57797232718936e+005,-2.23778059040303e+001,-2.30644552732129e+000

1.59999999999999e+005,-2.23778909652651e+001,-2.33862059440651e+000

1.62233516766403e+005,-2.23779784034542e+001,-2.37124389590254e+000

1.64498212264969e+005,-2.23780682846117e+001,-2.40432165082217e+000

1.66794521734578e+005,-2.23781606765622e+001,-2.43786016342073e+000

1.69122886489819e+005,-2.23782556489895e+001,-2.47186582432182e+000

1.71483754005805e+005,-2.23783532734861e+001,-2.50634511165762e+000

1.73877578004168e+005,-2.23784536236043e+001,-2.54130459222195e+000

1.76304818540256e+005,-2.23785567749079e+001,-2.57675092263583e+000

1.78765942091554e+005,-2.23786628050265e+001,-2.61269085052788e+000

1.81261421647326e+005,-2.23787717937093e+001,-2.64913121572903e+000

1.83791736799524e+005,-2.23788838228822e+001,-2.68607895147812e+000

1.86357373834951e+005,-2.23789989767050e+001,-2.72354108564387e+000

1.88958825828723e+005,-2.23791173416303e+001,-2.76152474196002e+000

1.91596592739027e+005,-2.23792390064642e+001,-2.80003714127399e+000

1.94271181503206e+005,-2.23793640624283e+001,-2.83908560281021e+000

1.96983106135185e+005,-2.23794926032230e+001,-2.87867754544630e+000

1.99732887824256e+005,-2.23796247250925e+001,-2.91882048900628e+000

2.02521055035243e+005,-2.23797605268917e+001,-2.95952205556413e+000

2.05348143610063e+005,-2.23799001101545e+001,-3.00078997076491e+000

2.08214696870707e+005,-2.23800435791629e+001,-3.04263206515927e+000

2.11121265723661e+005,-2.23801910410196e+001,-3.08505627555206e+000

2.14068408765776e+005,-2.23803426057206e+001,-3.12807064636515e+000

2.17056692391625e+005,-2.23804983862306e+001,-3.17168333101660e+000

2.20086690902357e+005,-2.23806584985594e+001,-3.21590259331288e+000

2.23158986616063e+005,-2.23808230618408e+001,-3.26073680885630e+000

2.26274169979693e+005,-2.23809921984131e+001,-3.30619446646732e+000

2.29432839682530e+005,-2.23811660339014e+001,-3.35228416962192e+000

2.32635602771247e+005,-2.23813446973015e+001,-3.39901463790328e+000

2.35883074766574e+005,-2.23815283210669e+001,-3.44639470846902e+000

2.39175879781588e+005,-2.23817170411961e+001,-3.49443333753327e+000

2.42514650641661e+005,-2.23819109973233e+001,-3.54313960186382e+000

2.45900029006080e+005,-2.23821103328110e+001,-3.59252270029325e+000

2.49332665491357e+005,-2.23823151948435e+001,-3.64259195524778e+000

2.52813219796278e+005,-2.23825257345241e+001,-3.69335681428815e+000

2.56342360828676e+005,-2.23827421069736e+001,-3.74482685166811e+000

2.59920766833993e+005,-2.23829644714309e+001,-3.79701176990733e+000

2.63549125525621e+005,-2.23831929913564e+001,-3.84992140137879e+000

2.67228134217075e+005,-2.23834278345370e+001,-3.90356570991295e+000

2.70958499956006e+005,-2.23836691731943e+001,-3.95795479241591e+000

2.74740939660078e+005,-2.23839171840939e+001,-4.01309888050390e+000

2.78576180254757e+005,-2.23841720486582e+001,-4.06900834215213e+000

2.82464958813007e+005,-2.23844339530811e+001,-4.12569368336088e+000

2.86408022696948e+005,-2.23847030884452e+001,-4.18316554983455e+000

2.90406129701488e+005,-2.23849796508414e+001,-4.24143472867774e+000

2.94460048199957e+005,-2.23852638414911e+001,-4.30051215010715e+000

2.98570557291775e+005,-2.23855558668709e+001,-4.36040888917782e+000

3.02738446952187e+005,-2.23858559388402e+001,-4.42113616752522e+000

3.06964518184081e+005,-2.23861642747707e+001,-4.48270535512436e+000

3.11249583171928e+005,-2.23864810976792e+001,-4.54512797206149e+000

3.15594465437872e+005,-2.23868066363629e+001,-4.60841569032520e+000

3.19999999999997e+005,-2.23871411255372e+001,-4.67258033560970e+000

3.24467033532806e+005,-2.23874848059764e+001,-4.73763388913668e+000

3.28996424529938e+005,-2.23878379246574e+001,-4.80358848949095e+000

3.33589043469155e+005,-2.23882007349057e+001,-4.87045643447250e+000

3.38245772979638e+005,-2.23885734965446e+001,-4.93825018296560e+000

3.42967508011610e+005,-2.23889564760474e+001,-5.00698235682184e+000

3.47755156008335e+005,-2.23893499466920e+001,-5.07666574276073e+000

3.52609637080511e+005,-2.23897541887189e+001,-5.14731329428575e+000

3.57531884183106e+005,-2.23901694894919e+001,-5.21893813361684e+000

3.62522843294651e+005,-2.23905961436621e+001,-5.29155355363901e+000

3.67583473599047e+005,-2.23910344533345e+001,-5.36517301986757e+000

3.72714747669902e+005,-2.23914847282381e+001,-5.43981017242941e+000

3.77917651657445e+005,-2.23919472858987e+001,-5.51547882806170e+000

3.83193185478053e+005,-2.23924224518150e+001,-5.59219298212726e+000

3.88542363006410e+005,-2.23929105596382e+001,-5.66996681064555e+000

3.93966212270369e+005,-2.23934119513541e+001,-5.74881467234320e+000

3.99465775648511e+005,-2.23939269774690e+001,-5.82875111071934e+000

4.05042110070485e+005,-2.23944559971988e+001,-5.90979085613113e+000

4.10696287220124e+005,-2.23949993786609e+001,-5.99194882789477e+000

4.16429393741414e+005,-2.23955574990702e+001,-6.07524013640541e+000

4.22242531447321e+005,-2.23961307449381e+001,-6.15968008527639e+000

4.28136817531551e+005,-2.23967195122746e+001,-6.24528417349519e+000

4.34113384783250e+005,-2.23973242067946e+001,-6.33206809759995e+000

4.40173381804713e+005,-2.23979452441272e+001,-6.42004775387456e+000

4.46317973232124e+005,-2.23985830500287e+001,-6.50923924056335e+000

4.52548339959385e+005,-2.23992380605993e+001,-6.59965886010617e+000

4.58865679365059e+005,-2.23999107225034e+001,-6.69132312139349e+000

4.65271205542494e+005,-2.24006014931938e+001,-6.78424874204318e+000

4.71766149533147e+005,-2.24013108411394e+001,-6.87845265069776e+000

4.78351759563174e+005,-2.24020392460572e+001,-6.97395198934410e+000

4.85029301283321e+005,-2.24027871991479e+001,-7.07076411565564e+000

4.91800058012158e+005,-2.24035552033358e+001,-7.16890660535739e+000

4.98665330982714e+005,-2.24043437735130e+001,-7.26839725461422e+000

5.05626439592555e+005,-2.24051534367871e+001,-7.36925408244420e+000

5.12684721657352e+005,-2.24059847327343e+001,-7.47149533315572e+000

5.19841533667984e+005,-2.24068382136559e+001,-7.57513947881132e+000

5.27098251051240e+005,-2.24077144448405e+001,-7.68020522171656e+000

5.34456268434150e+005,-2.24086140048300e+001,-7.78671149693668e+000

5.41916999912011e+005,-2.24095374856908e+001,-7.89467747484018e+000

