Freq.,VOut,OutRef

1.00000000000000e+004,-1.15698955664235e+000,-1.16367492253157e-001

1.01395947979003e+004,-1.15698951015934e+000,-1.17991922411641e-001

1.02811382665607e+004,-1.15698946236957e+000,-1.19639028791182e-001

1.04246576084112e+004,-1.15698941323618e+000,-1.21309127941590e-001

1.05701804056138e+004,-1.15698936272165e+000,-1.23002540829486e-001

1.07177346253629e+004,-1.15698931078675e+000,-1.24719592905917e-001

1.08673486252606e+004,-1.15698925739206e+000,-1.26460614159618e-001

1.10190511587661e+004,-1.15698920249609e+000,-1.28225939191585e-001

1.11728713807222e+004,-1.15698914605677e+000,-1.30015907270184e-001

1.13288388529580e+004,-1.15698908803077e+000,-1.31830862400244e-001

1.14869835499703e+004,-1.15698902837350e+000,-1.33671153389525e-001

1.16473358646846e+004,-1.15698896703916e+000,-1.35537133913979e-001

1.18099266142953e+004,-1.15698890398029e+000,-1.37429162589252e-001

1.19747870461893e+004,-1.15698883914877e+000,-1.39347603033442e-001

1.21419488439505e+004,-1.15698877249452e+000,-1.41292823944126e-001

1.23114441334492e+004,-1.15698870396654e+000,-1.43265199162260e-001

1.24833054890161e+004,-1.15698863351188e+000,-1.45265107751475e-001

1.26575659397028e+004,-1.15698856107650e+000,-1.47292934063925e-001

1.28342589756290e+004,-1.15698848660477e+000,-1.49349067817875e-001

1.30134185544193e+004,-1.15698841003933e+000,-1.51433904173125e-001

1.31950791077289e+004,-1.15698833132140e+000,-1.53547843804219e-001

1.33792755478611e+004,-1.15698825039045e+000,-1.55691292979997e-001

1.35660432744767e+004,-1.15698816718429e+000,-1.57864663639863e-001

1.37554181813974e+004,-1.15698808163893e+000,-1.60068373474703e-001

1.39474366635040e+004,-1.15698799368866e+000,-1.62302846005259e-001

1.41421356237309e+004,-1.15698790326582e+000,-1.64568510665620e-001

1.43395524801583e+004,-1.15698781030083e+000,-1.66865802884054e-001

1.45397251732031e+004,-1.15698771472235e+000,-1.69195164166861e-001

1.47426921729110e+004,-1.15698761645679e+000,-1.71557042184632e-001

1.49484924863494e+004,-1.15698751542871e+000,-1.73951890856099e-001

1.51571656651040e+004,-1.15698741156036e+000,-1.76380170437862e-001

1.53687518128801e+004,-1.15698730477201e+000,-1.78842347610235e-001

1.55832915932100e+004,-1.15698719498154e+000,-1.81338895568955e-001

1.58008262372675e+004,-1.15698708210445e+000,-1.83870294116305e-001

1.60213975517924e+004,-1.15698696605403e+000,-1.86437029751174e-001

1.62450479271247e+004,-1.15698684674113e+000,-1.89039595764312e-001

1.64718203453514e+004,-1.15698672407400e+000,-1.91678492332302e-001

1.67017583885674e+004,-1.15698659795823e+000,-1.94354226615642e-001

1.69349062472505e+004,-1.15698646829705e+000,-1.97067312852391e-001

1.71713087287550e+004,-1.15698633499070e+000,-1.99818272461121e-001

1.74110112659224e+004,-1.15698619793664e+000,-2.02607634138724e-001

1.76540599258131e+004,-1.15698605702969e+000,-2.05435933961715e-001

1.79005014185594e+004,-1.15698591216133e+000,-2.08303715492045e-001

1.81503831063432e+004,-1.15698576322037e+000,-2.11211529877555e-001

1.84037530124975e+004,-1.15698561009235e+000,-2.14159935960646e-001

1.86606598307361e+004,-1.15698545265929e+000,-2.17149500387695e-001

1.89211529345119e+004,-1.15698529080054e+000,-2.20180797710524e-001

1.91852823865052e+004,-1.15698512439134e+000,-2.23254410506488e-001

1.94530989482457e+004,-1.15698495330393e+000,-2.26370929482527e-001

1.97246540898671e+004,-1.15698477740691e+000,-2.29530953591973e-001

1.99999999999999e+004,-1.15698459656484e+000,-2.32735090151730e-001

2.02791895958005e+004,-1.15698441063892e+000,-2.35983954954122e-001

2.05622765331213e+004,-1.15698421948604e+000,-2.39278172389890e-001

2.08493152168224e+004,-1.15698402295939e+000,-2.42618375564995e-001

2.11403608112276e+004,-1.15698382090800e+000,-2.46005206423582e-001

2.14354692507258e+004,-1.15698361317629e+000,-2.49439315873012e-001

2.17346972505211e+004,-1.15698339960482e+000,-2.52921363904743e-001

2.20381023175322e+004,-1.15698318002925e+000,-2.56452019725975e-001

2.23457427614443e+004,-1.15698295428097e+000,-2.60031961884098e-001

2.26576777059159e+004,-1.15698272218632e+000,-2.63661878401002e-001

2.29739670999406e+004,-1.15698248356707e+000,-2.67342466901095e-001

2.32946717293690e+004,-1.15698223823964e+000,-2.71074434750273e-001

2.36198532285905e+004,-1.15698198601542e+000,-2.74858499188289e-001

2.39495740923785e+004,-1.15698172670074e+000,-2.78695387465887e-001

2.42838976879009e+004,-1.15698146009615e+000,-2.82585836989025e-001

2.46228882668982e+004,-1.15698118599676e+000,-2.86530595456207e-001

2.49666109780322e+004,-1.15698090419192e+000,-2.90530421004410e-001

2.53151318794055e+004,-1.15698061446493e+000,-2.94586082354934e-001

2.56685179512580e+004,-1.15698031659315e+000,-2.98698358959894e-001

2.60268371088386e+004,-1.15698001034771e+000,-3.02868041152385e-001

2.63901582154578e+004,-1.15697969549312e+000,-3.07095930299752e-001

2.67585510957221e+004,-1.15697937178743e+000,-3.11382838955655e-001

2.71320865489533e+004,-1.15697903898185e+000,-3.15729591017989e-001

2.75108363627948e+004,-1.15697869682050e+000,-3.20137021886489e-001

2.78948733270080e+004,-1.15697834504052e+000,-3.24605978622189e-001

2.82842712474618e+004,-1.15697798337146e+000,-3.29137320112887e-001

2.86791049603164e+004,-1.15697761153543e+000,-3.33731917235832e-001

2.90794503464061e+004,-1.15697722924650e+000,-3.38390653026843e-001

2.94853843458219e+004,-1.15697683621094e+000,-3.43114422848520e-001

2.98969849726987e+004,-1.15697643212669e+000,-3.47904134563377e-001

3.03143313302078e+004,-1.15697601668314e+000,-3.52760708708261e-001

3.07375036257601e+004,-1.15697558956106e+000,-3.57685078671120e-001

3.11665831864199e+004,-1.15697515043212e+000,-3.62678190870493e-001

3.16016524745350e+004,-1.15697469895886e+000,-3.67741004937439e-001

3.20427951035848e+004,-1.15697423479431e+000,-3.72874493899980e-001

3.24900958542493e+004,-1.15697375758177e+000,-3.78079644370208e-001

3.29436406907028e+004,-1.15697326695444e+000,-3.83357456734193e-001

3.34035167771346e+004,-1.15697276253535e+000,-3.88708945343198e-001

3.38698124945009e+004,-1.15697224393677e+000,-3.94135138711394e-001

3.43426174575100e+004,-1.15697171076012e+000,-3.99637079710415e-001

3.48220225318448e+004,-1.15697116259580e+000,-4.05215825770762e-001

3.53081198516260e+004,-1.15697059902238e+000,-4.10872449087219e-001

3.58010028371187e+004,-1.15697001960690e+000,-4.16608036821878e-001

3.63007662126863e+004,-1.15696942390407e+000,-4.22423691315016e-001

3.68075060249948e+004,-1.15696881145611e+000,-4.28320530296877e-001

3.73213196614721e+004,-1.15696818179239e+000,-4.34299687102136e-001

3.78423058690237e+004,-1.15696753442900e+000,-4.40362310888122e-001

3.83705647730104e+004,-1.15696686886853e+000,-4.46509566855592e-001

3.89061978964912e+004,-1.15696618459957e+000,-4.52742636472454e-001

3.94493081797342e+004,-1.15696548109630e+000,-4.59062717701688e-001

3.99999999999998e+004,-1.15696475781811e+000,-4.65471025231493e-001

4.05583791916010e+004,-1.15696401420921e+000,-4.71968790708485e-001

4.11245530662425e+004,-1.15696324969835e+000,-4.78557262973918e-001

4.16986304336447e+004,-1.15696246369803e+000,-4.85237708305421e-001

4.22807216224550e+004,-1.15696165560432e+000,-4.92011410659583e-001

4.28709385014515e+004,-1.15696082479628e+000,-4.98879671918941e-001

4.34693945010421e+004,-1.15695997063565e+000,-5.05843812141949e-001

4.40762046350642e+004,-1.15695909246610e+000,-5.12905169817196e-001

4.46914855228886e+004,-1.15695818961303e+000,-5.20065102120816e-001

4.53153554118317e+004,-1.15695726138259e+000,-5.27324985178288e-001

4.59479341998812e+004,-1.15695630706180e+000,-5.34686214326688e-001

4.65893434587380e+004,-1.15695532591738e+000,-5.42150204386118e-001

4.72397064571810e+004,-1.15695431719566e+000,-5.49718389928467e-001

4.78991481847569e+004,-1.15695328012158e+000,-5.57392225557186e-001

4.85677953758016e+004,-1.15695221389855e+000,-5.65173186183125e-001

4.92457765337964e+004,-1.15695111770741e+000,-5.73062767310959e-001

4.99332219560642e+004,-1.15694999070613e+000,-5.81062485325276e-001

5.06302637588109e+004,-1.15694883202885e+000,-5.89173877784126e-001

5.13370359025159e+004,-1.15694764078565e+000,-5.97398503711599e-001

5.20536742176771e+004,-1.15694641606141e+000,-6.05737943900799e-001

5.27803164309155e+004,-1.15694515691545e+000,-6.14193801215850e-001

5.35171021914442e+004,-1.15694386238054e+000,-6.22767700901711e-001

5.42641730979066e+004,-1.15694253146237e+000,-6.31461290896167e-001

5.50216727255895e+004,-1.15694116313872e+000,-6.40276242145690e-001

5.57897466540159e+004,-1.15693975635861e+000,-6.49214248929095e-001

5.65685424949235e+004,-1.15693831004161e+000,-6.58277029181724e-001

5.73582099206328e+004,-1.15693682307698e+000,-6.67466324826283e-001

5.81589006928121e+004,-1.15693529432264e+000,-6.76783902108873e-001

5.89707686916437e+004,-1.15693372260465e+000,-6.86231551937479e-001

5.97939699453972e+004,-1.15693210671596e+000,-6.95811090227735e-001

6.06286626604156e+004,-1.15693044541574e+000,-7.05524358250945e-001

6.14750072515201e+004,-1.15692873742821e+000,-7.15373222990029e-001

6.23331663728396e+004,-1.15692698144193e+000,-7.25359577497154e-001

6.32033049490698e+004,-1.15692517610848e+000,-7.35485341258941e-001

6.40855902071694e+004,-1.15692332004173e+000,-7.45752460565905e-001

6.49801917084985e+004,-1.15692141181662e+000,-7.56162908885594e-001

6.58872813814055e+004,-1.15691944996810e+000,-7.66718687244246e-001

6.68070335542691e+004,-1.15691743298987e+000,-7.77421824611361e-001

6.77396249890018e+004,-1.15691535933352e+000,-7.88274378288830e-001

6.86852349150199e+004,-1.15691322740713e+000,-7.99278434308668e-001

6.96440450636895e+004,-1.15691103557419e+000,-8.10436107832928e-001

7.06162397032520e+004,-1.15690878215217e+000,-8.21749543562259e-001

7.16020056742374e+004,-1.15690646541129e+000,-8.33220916148584e-001

7.26015324253724e+004,-1.15690408357339e+000,-8.44852430611612e-001

7.36150120499896e+004,-1.15690163481034e+000,-8.56646322766261e-001

7.46426393229441e+004,-1.15689911724278e+000,-8.68604859650771e-001

7.56846117380472e+004,-1.15689652893862e+000,-8.80730339964566e-001

7.67411295460207e+004,-1.15689386791146e+000,-8.93025094510341e-001

7.78123957929823e+004,-1.15689113211935e+000,-9.05491486642442e-001

7.88986163594682e+004,-1.15688831946305e+000,-9.18131912722365e-001

7.99999999999995e+004,-1.15688542778436e+000,-9.30948802580275e-001

8.11167583832018e+004,-1.15688245486463e+000,-9.43944619982466e-001

8.22491061324848e+004,-1.15687939842305e+000,-9.57121863105715e-001

8.33972608672892e+004,-1.15687625611472e+000,-9.70483065019713e-001

8.45614432449099e+004,-1.15687302552921e+000,-9.84030794172766e-001

8.57418770029029e+004,-1.15686970418826e+000,-9.97767654888818e-001

8.69387890020841e+004,-1.15686628954447e+000,-1.01169628786648e+000

8.81524092701283e+004,-1.15686277897869e+000,-1.02581937069118e+000

8.93829710457770e+004,-1.15685916979870e+000,-1.04013961834690e+000

9.06307108236633e+004,-1.15685545923658e+000,-1.05465978374282e+000

9.18958683997622e+004,-1.15685164444701e+000,-1.06938265824145e+000

9.31786869174758e+004,-1.15684772250490e+000,-1.08431107219761e+000

9.44794129143618e+004,-1.15684369040317e+000,-1.09944789550336e+000

9.57982963695136e+004,-1.15683954505065e+000,-1.11479603814100e+000

9.71355907516031e+004,-1.15683528326939e+000,-1.13035845074439e+000

9.84915530675926e+004,-1.15683090179263e+000,-1.14613812516691e+000

9.98664439121282e+004,-1.15682639726195e+000,-1.16213809505917e+000

1.01260527517622e+005,-1.15682176622516e+000,-1.17836143645233e+000

1.02674071805032e+005,-1.15681700513304e+000,-1.19481126835316e+000

1.04107348435354e+005,-1.15681211033740e+000,-1.21149075334310e+000

1.05560632861831e+005,-1.15680707808769e+000,-1.22840309818987e+000

1.07034204382888e+005,-1.15680190452848e+000,-1.24555155446539e+000

1.08528346195813e+005,-1.15679658569649e+000,-1.26293941917175e+000

1.10043345451179e+005,-1.15679111751746e+000,-1.28057003537877e+000

1.11579493308032e+005,-1.15678549580318e+000,-1.29844679286838e+000

1.13137084989847e+005,-1.15677971624832e+000,-1.31657312878753e+000

1.14716419841265e+005,-1.15677377442715e+000,-1.33495252831251e+000

1.16317801385624e+005,-1.15676766579007e+000,-1.35358852532121e+000

1.17941537383287e+005,-1.15676138566047e+000,-1.37248470307397e+000

1.19587939890794e+005,-1.15675492923076e+000,-1.39164469490728e+000

1.21257325320831e+005,-1.15674829155917e+000,-1.41107218493297e+000

1.22950014503040e+005,-1.15674146756574e+000,-1.43077090875050e+000

1.24666332745679e+005,-1.15673445202850e+000,-1.45074465416802e+000

1.26406609898139e+005,-1.15672723957979e+000,-1.47099726193295e+000

1.28171180414339e+005,-1.15671982470176e+000,-1.49153262647547e+000

1.29960383416997e+005,-1.15671220172264e+000,-1.51235469665877e+000

1.31774562762811e+005,-1.15670436481226e+000,-1.53346747654246e+000

1.33614067108538e+005,-1.15669630797758e+000,-1.55487502615706e+000

1.35479249978003e+005,-1.15668802505841e+000,-1.57658146228688e+000

1.37370469830040e+005,-1.15667950972259e+000,-1.59859095926658e+000

1.39288090127379e+005,-1.15667075546125e+000,-1.62090774978800e+000

1.41232479406504e+005,-1.15666175558399e+000,-1.64353612571765e+000

1.43204011348474e+005,-1.15665250321387e+000,-1.66648043892667e+000

1.45203064850745e+005,-1.15664299128210e+000,-1.68974510213317e+000

1.47230024099979e+005,-1.15663321252286e+000,-1.71333458975445e+000

1.49285278645888e+005,-1.15662315946784e+000,-1.73725343877290e+000

1.51369223476094e+005,-1.15661282444069e+000,-1.76150624961377e+000

1.53482259092041e+005,-1.15660219955103e+000,-1.78609768703580e+000

1.55624791585964e+005,-1.15659127668892e+000,-1.81103248103281e+000

1.57797232718936e+005,-1.15658004751852e+000,-1.83631542775031e+000

1.59999999999999e+005,-1.15656850347197e+000,-1.86195139041333e+000

1.62233516766403e+005,-1.15655663574296e+000,-1.88794530026870e+000

1.64498212264969e+005,-1.15654443528016e+000,-1.91430215753971e+000

1.66794521734578e+005,-1.15653189278047e+000,-1.94102703239498e+000

1.69122886489819e+005,-1.15651899868227e+000,-1.96812506592997e+000

1.71483754005805e+005,-1.15650574315792e+000,-1.99560147116505e+000

1.73877578004168e+005,-1.15649211610680e+000,-2.02346153405424e+000

1.76304818540256e+005,-1.15647810714772e+000,-2.05171061451052e+000

1.78765942091554e+005,-1.15646370561112e+000,-2.08035414744615e+000

1.81261421647326e+005,-1.15644890053127e+000,-2.10939764382550e+000

1.83791736799524e+005,-1.15643368063802e+000,-2.13884669173558e+000

1.86357373834951e+005,-1.15641803434865e+000,-2.16870695746946e+000

1.88958825828723e+005,-1.15640194975921e+000,-2.19898418662610e+000

1.91596592739027e+005,-1.15638541463555e+000,-2.22968420522743e+000

1.94271181503206e+005,-1.15636841640464e+000,-2.26081292084817e+000

1.96983106135185e+005,-1.15635094214513e+000,-2.29237632376379e+000

1.99732887824256e+005,-1.15633297857775e+000,-2.32438048811532e+000

2.02521055035243e+005,-1.15631451205563e+000,-2.35683157308922e+000

2.05348143610063e+005,-1.15629552855440e+000,-2.38973582411541e+000

2.08214696870707e+005,-1.15627601366165e+000,-2.42309957408134e+000

2.11121265723661e+005,-1.15625595256665e+000,-2.45692924456435e+000

2.14068408765776e+005,-1.15623533004924e+000,-2.49123134708178e+000

2.17056692391625e+005,-1.15621413046890e+000,-2.52601248435757e+000

2.20086690902357e+005,-1.15619233775324e+000,-2.56127935160862e+000

2.23158986616063e+005,-1.15616993538638e+000,-2.59703873784885e+000

2.26274169979693e+005,-1.15614690639673e+000,-2.63329752721220e+000

2.29432839682530e+005,-1.15612323334497e+000,-2.67006270029388e+000

2.32635602771247e+005,-1.15609889831099e+000,-2.70734133551258e+000

2.35883074766574e+005,-1.15607388288130e+000,-2.74514061048987e+000

2.39175879781588e+005,-1.15604816813533e+000,-2.78346780345243e+000

2.42514650641661e+005,-1.15602173463211e+000,-2.82233029465068e+000

2.45900029006080e+005,-1.15599456239593e+000,-2.86173556780208e+000

2.49332665491357e+005,-1.15596663090221e+000,-2.90169121155144e+000

2.52813219796278e+005,-1.15593791906242e+000,-2.94220492095517e+000

2.56342360828676e+005,-1.15590840520936e+000,-2.98328449898460e+000

2.59920766833993e+005,-1.15587806708116e+000,-3.02493785805337e+000

2.63549125525621e+005,-1.15584688180567e+000,-3.06717302156452e+000

2.67228134217075e+005,-1.15581482588404e+000,-3.10999812548161e+000

2.70958499956006e+005,-1.15578187517384e+000,-3.15342141992216e+000

2.74740939660078e+005,-1.15574800487203e+000,-3.19745127077382e+000

2.78576180254757e+005,-1.15571318949717e+000,-3.24209616133410e+000

2.82464958813007e+005,-1.15567740287146e+000,-3.28736469397468e+000

2.86408022696948e+005,-1.15564061810219e+000,-3.33326559182756e+000

2.90406129701488e+005,-1.15560280756268e+000,-3.37980770049919e+000

2.94460048199957e+005,-1.15556394287275e+000,-3.42699998980647e+000

2.98570557291775e+005,-1.15552399487889e+000,-3.47485155553907e+000

3.02738446952187e+005,-1.15548293363364e+000,-3.52337162124793e+000

3.06964518184081e+005,-1.15544072837459e+000,-3.57256954005933e+000

3.11249583171928e+005,-1.15539734750302e+000,-3.62245479651478e+000

3.15594465437872e+005,-1.15535275856155e+000,-3.67303700843907e+000

3.19999999999997e+005,-1.15530692821173e+000,-3.72432592883466e+000

3.24467033532806e+005,-1.15525982221086e+000,-3.77633144780341e+000

3.28996424529938e+005,-1.15521140538814e+000,-3.82906359449791e+000

3.33589043469155e+005,-1.15516164162033e+000,-3.88253253909962e+000

3.38245772979638e+005,-1.15511049380686e+000,-3.93674859482710e+000

3.42967508011610e+005,-1.15505792384417e+000,-3.99172221997332e+000

3.47755156008335e+005,-1.15500389259964e+000,-4.04746401997248e+000

3.52609637080511e+005,-1.15494835988462e+000,-4.10398474949790e+000

3.57531884183106e+005,-1.15489128442697e+000,-4.16129531459041e+000

3.62522843294651e+005,-1.15483262384288e+000,-4.21940677481738e+000

3.67583473599047e+005,-1.15477233460802e+000,-4.27833034546461e+000

3.72714747669902e+005,-1.15471037202794e+000,-4.33807739975987e+000

3.77917651657445e+005,-1.15464669020775e+000,-4.39865947112887e+000

3.83193185478053e+005,-1.15458124202112e+000,-4.46008825548554e+000

3.88542363006410e+005,-1.15451397907846e+000,-4.52237561355494e+000

3.93966212270369e+005,-1.15444485169445e+000,-4.58553357323099e+000

3.99465775648511e+005,-1.15437380885458e+000,-4.64957433196945e+000

4.05042110070485e+005,-1.15430079818093e+000,-4.71451025921567e+000

4.10696287220124e+005,-1.15422576589736e+000,-4.78035389886850e+000

4.16429393741414e+005,-1.15414865679369e+000,-4.84711797178034e+000

4.22242531447321e+005,-1.15406941418874e+000,-4.91481537829550e+000

4.28136817531551e+005,-1.15398797989303e+000,-4.98345920082452e+000

4.34113384783250e+005,-1.15390429417013e+000,-5.05306270645790e+000

4.40173381804713e+005,-1.15381829569744e+000,-5.12363934961811e+000

4.46317973232124e+005,-1.15372992152560e+000,-5.19520277475181e+000

4.52548339959385e+005,-1.15363910703734e+000,-5.26776681906075e+000

4.58865679365059e+005,-1.15354578590506e+000,-5.34134551527515e+000

4.65271205542494e+005,-1.15344989004760e+000,-5.41595309446671e+000

4.71766149533147e+005,-1.15335134958582e+000,-5.49160398890506e+000

4.78351759563174e+005,-1.15325009279706e+000,-5.56831283495589e+000

4.85029301283321e+005,-1.15314604606886e+000,-5.64609447602284e+000

4.91800058012158e+005,-1.15303913385107e+000,-5.72496396553345e+000

4.98665330982714e+005,-1.15292927860725e+000,-5.80493656996969e+000

5.05626439592555e+005,-1.15281640076455e+000,-5.88602777194418e+000

5.12684721657352e+005,-1.15270041866265e+000,-5.96825327332230e+000

5.19841533667984e+005,-1.15258124850144e+000,-6.05162899839143e+000

5.27098251051240e+005,-1.15245880428712e+000,-6.13617109707768e+000

5.34456268434150e+005,-1.15233299777752e+000,-6.22189594821160e+000

5.41916999912011e+005,-1.15220373842569e+000,-6.30882016284219e+000

