Freq.,VOut,OutRef

1.00000000000000e+004,-2.18946467920667e+001,-2.53749311523979e-001

1.01395947979003e+004,-2.18946476436979e+001,-2.57291507130277e-001

1.02811382665607e+004,-2.18946485192715e+001,-2.60883149400943e-001

1.04246576084112e+004,-2.18946494194604e+001,-2.64524928563839e-001

1.05701804056138e+004,-2.18946503449565e+001,-2.68217544479996e-001

1.07177346253629e+004,-2.18946512964713e+001,-2.71961706778717e-001

1.08673486252606e+004,-2.18946522747365e+001,-2.75758134993578e-001

1.10190511587661e+004,-2.18946532805039e+001,-2.79607558704203e-001

1.11728713807222e+004,-2.18946543145467e+001,-2.83510717670426e-001

1.13288388529580e+004,-2.18946553776598e+001,-2.87468361978785e-001

1.14869835499703e+004,-2.18946564706605e+001,-2.91481252186569e-001

1.16473358646846e+004,-2.18946575943890e+001,-2.95550159464689e-001

1.18099266142953e+004,-2.18946587497090e+001,-2.99675865749438e-001

1.19747870461893e+004,-2.18946599375089e+001,-3.03859163889988e-001

1.21419488439505e+004,-2.18946611587016e+001,-3.08100857802371e-001

1.23114441334492e+004,-2.18946624142258e+001,-3.12401762623545e-001

1.24833054890161e+004,-2.18946637050467e+001,-3.16762704867320e-001

1.26575659397028e+004,-2.18946650321568e+001,-3.21184522582857e-001

1.28342589756290e+004,-2.18946663965759e+001,-3.25668065518539e-001

1.30134185544193e+004,-2.18946677993531e+001,-3.30214195280115e-001

1.31950791077289e+004,-2.18946692415667e+001,-3.34823785501274e-001

1.33792755478611e+004,-2.18946707243251e+001,-3.39497722008400e-001

1.35660432744767e+004,-2.18946722487685e+001,-3.44236902990351e-001

1.37554181813974e+004,-2.18946738160686e+001,-3.49042239173885e-001

1.39474366635040e+004,-2.18946754274300e+001,-3.53914653996168e-001

1.41421356237309e+004,-2.18946770840917e+001,-3.58855083781895e-001

1.43395524801583e+004,-2.18946787873270e+001,-3.63864477924813e-001

1.45397251732031e+004,-2.18946805384450e+001,-3.68943799069636e-001

1.47426921729110e+004,-2.18946823387921e+001,-3.74094023294918e-001

1.49484924863494e+004,-2.18946841897520e+001,-3.79316140303334e-001

1.51571656651040e+004,-2.18946860927476e+001,-3.84611153609764e-001

1.53687518128801e+004,-2.18946880492417e+001,-3.89980080734936e-001

1.55832915932100e+004,-2.18946900607383e+001,-3.95423953399513e-001

1.58008262372675e+004,-2.18946921287835e+001,-4.00943817725136e-001

1.60213975517924e+004,-2.18946942549671e+001,-4.06540734431387e-001

1.62450479271247e+004,-2.18946964409233e+001,-4.12215779043154e-001

1.64718203453514e+004,-2.18946986883326e+001,-4.17970042093330e-001

1.67017583885674e+004,-2.18947009989223e+001,-4.23804629336011e-001

1.69349062472505e+004,-2.18947033744687e+001,-4.29720661955893e-001

1.71713087287550e+004,-2.18947058167976e+001,-4.35719276786080e-001

1.74110112659224e+004,-2.18947083277866e+001,-4.41801626522519e-001

1.76540599258131e+004,-2.18947109093656e+001,-4.47968879950576e-001

1.79005014185594e+004,-2.18947135635191e+001,-4.54222222163108e-001

1.81503831063432e+004,-2.18947162922870e+001,-4.60562854794966e-001

1.84037530124975e+004,-2.18947190977671e+001,-4.66991996247349e-001

1.86606598307361e+004,-2.18947219821155e+001,-4.73510881925534e-001

1.89211529345119e+004,-2.18947249475496e+001,-4.80120764473577e-001

1.91852823865052e+004,-2.18947279963486e+001,-4.86822914018092e-001

1.94530989482457e+004,-2.18947311308559e+001,-4.93618618407587e-001

1.97246540898671e+004,-2.18947343534807e+001,-5.00509183463818e-001

1.99999999999999e+004,-2.18947376667003e+001,-5.07495933229103e-001

2.02791895958005e+004,-2.18947410730611e+001,-5.14580210222507e-001

2.05622765331213e+004,-2.18947445751815e+001,-5.21763375696356e-001

2.08493152168224e+004,-2.18947481757532e+001,-5.29046809898003e-001

2.11403608112276e+004,-2.18947518775436e+001,-5.36431912335363e-001

2.14354692507258e+004,-2.18947556833980e+001,-5.43920102043531e-001

2.17346972505211e+004,-2.18947595962417e+001,-5.51512817858170e-001

2.20381023175322e+004,-2.18947636190820e+001,-5.59211518691446e-001

2.23457427614443e+004,-2.18947677550109e+001,-5.67017683812634e-001

2.26576777059159e+004,-2.18947720072073e+001,-5.74932813130523e-001

2.29739670999406e+004,-2.18947763789393e+001,-5.82958427482323e-001

2.32946717293690e+004,-2.18947808735670e+001,-5.91096068924274e-001

2.36198532285905e+004,-2.18947854945448e+001,-5.99347301028488e-001

2.39495740923785e+004,-2.18947902454244e+001,-6.07713709182171e-001

2.42838976879009e+004,-2.18947951298571e+001,-6.16196900891378e-001

2.46228882668982e+004,-2.18948001515968e+001,-6.24798506091489e-001

2.49666109780322e+004,-2.18948053145031e+001,-6.33520177455641e-001

2.53151318794055e+004,-2.18948106225439e+001,-6.42363590716002e-001

2.56685179512580e+004,-2.18948160797986e+001,-6.51330444981688e-001

2.60268371088386e+004,-2.18948216904614e+001,-6.60422463066489e-001

2.63901582154578e+004,-2.18948274588442e+001,-6.69641391818677e-001

2.67585510957221e+004,-2.18948333893802e+001,-6.78989002455758e-001

2.71320865489533e+004,-2.18948394866270e+001,-6.88467090903743e-001

2.75108363627948e+004,-2.18948457552705e+001,-6.98077478141606e-001

2.78948733270080e+004,-2.18948522001281e+001,-7.07822010550513e-001

2.82842712474618e+004,-2.18948588261526e+001,-7.17702560266924e-001

2.86791049603164e+004,-2.18948656384361e+001,-7.27721025542575e-001

2.90794503464061e+004,-2.18948726422136e+001,-7.37879331106721e-001

2.94853843458219e+004,-2.18948798428673e+001,-7.48179428536274e-001

2.98969849726987e+004,-2.18948872459306e+001,-7.58623296628726e-001

3.03143313302078e+004,-2.18948948570925e+001,-7.69212941781137e-001

3.07375036257601e+004,-2.18949026822017e+001,-7.79950398375330e-001

3.11665831864199e+004,-2.18949107272712e+001,-7.90837729166408e-001

3.16016524745350e+004,-2.18949189984830e+001,-8.01877025679730e-001

3.20427951035848e+004,-2.18949275021930e+001,-8.13070408608014e-001

3.24900958542493e+004,-2.18949362449353e+001,-8.24420028220904e-001

3.29436406907028e+004,-2.18949452334279e+001,-8.35928064774195e-001

3.34035167771346e+004,-2.18949544745772e+001,-8.47596728929101e-001

3.38698124945009e+004,-2.18949639754840e+001,-8.59428262173652e-001

3.43426174575100e+004,-2.18949737434485e+001,-8.71424937251863e-001

3.48220225318448e+004,-2.18949837859757e+001,-8.83589058600499e-001

3.53081198516260e+004,-2.18949941107818e+001,-8.95922962787064e-001

3.58010028371187e+004,-2.18950047257995e+001,-9.08429018960283e-001

3.63007662126863e+004,-2.18950156391845e+001,-9.21109629299781e-001

3.68075060249948e+004,-2.18950268593215e+001,-9.33967229477663e-001

3.73213196614721e+004,-2.18950383948308e+001,-9.47004289123580e-001

3.78423058690237e+004,-2.18950502545748e+001,-9.60223312297913e-001

3.83705647730104e+004,-2.18950624476649e+001,-9.73626837968622e-001

3.89061978964912e+004,-2.18950749834683e+001,-9.87217440498457e-001

3.94493081797342e+004,-2.18950878716153e+001,-1.00099773013535e+000

3.99999999999998e+004,-2.18951011220069e+001,-1.01497035351335e+000

4.05583791916010e+004,-2.18951147448219e+001,-1.02913799415537e+000

4.11245530662425e+004,-2.18951287505251e+001,-1.04350337298881e+000

4.16986304336447e+004,-2.18951431498752e+001,-1.05806924886290e+000

4.22807216224550e+004,-2.18951579539330e+001,-1.07283841907713e+000

4.28709385014515e+004,-2.18951731740700e+001,-1.08781371991400e+000

4.34693945010421e+004,-2.18951888219769e+001,-1.10299802718232e+000

4.40762046350642e+004,-2.18952049096729e+001,-1.11839425676361e+000

4.46914855228886e+004,-2.18952214495143e+001,-1.13400536517107e+000

4.53153554118317e+004,-2.18952384542048e+001,-1.14983435011109e+000

4.59479341998812e+004,-2.18952559368044e+001,-1.16588425105752e+000

4.65893434587380e+004,-2.18952739107401e+001,-1.18215814983018e+000

4.72397064571810e+004,-2.18952923898158e+001,-1.19865917118064e+000

4.78991481847569e+004,-2.18953113882228e+001,-1.21539048339222e+000

4.85677953758016e+004,-2.18953309205508e+001,-1.23235529887926e+000

4.92457765337964e+004,-2.18953510017993e+001,-1.24955687480161e+000

4.99332219560642e+004,-2.18953716473887e+001,-1.26699851368526e+000

5.06302637588109e+004,-2.18953928731721e+001,-1.28468356404978e+000

5.13370359025159e+004,-2.18954146954478e+001,-1.30261542104717e+000

5.20536742176771e+004,-2.18954371309716e+001,-1.32079752710729e+000

5.27803164309155e+004,-2.18954601969694e+001,-1.33923337259313e+000

5.35171021914442e+004,-2.18954839111506e+001,-1.35792649646540e+000

5.42641730979066e+004,-2.18955082917215e+001,-1.37688048695430e+000

5.50216727255895e+004,-2.18955333573996e+001,-1.39609898224297e+000

5.57897466540159e+004,-2.18955591274273e+001,-1.41558567115831e+000

5.65685424949235e+004,-2.18955856215870e+001,-1.43534429387194e+000

5.73582099206328e+004,-2.18956128602164e+001,-1.45537864261059e+000

5.81589006928121e+004,-2.18956408642235e+001,-1.47569256237671e+000

5.89707686916437e+004,-2.18956696551030e+001,-1.49628995167789e+000

5.97939699453972e+004,-2.18956992549524e+001,-1.51717476326640e+000

6.06286626604156e+004,-2.18957296864895e+001,-1.53835100488899e+000

6.14750072515201e+004,-2.18957609730688e+001,-1.55982274004794e+000

6.23331663728396e+004,-2.18957931387003e+001,-1.58159408876906e+000

6.32033049490698e+004,-2.18958262080669e+001,-1.60366922838503e+000

6.40855902071694e+004,-2.18958602065442e+001,-1.62605239432387e+000

6.49801917084985e+004,-2.18958951602191e+001,-1.64874788091271e+000

6.58872813814055e+004,-2.18959310959098e+001,-1.67176004219030e+000

6.68070335542691e+004,-2.18959680411870e+001,-1.69509329272853e+000

6.77396249890018e+004,-2.18960060243937e+001,-1.71875210847039e+000

6.86852349150199e+004,-2.18960450746679e+001,-1.74274102757256e+000

6.96440450636895e+004,-2.18960852219642e+001,-1.76706465126508e+000

7.06162397032520e+004,-2.18961264970768e+001,-1.79172764471899e+000

7.16020056742374e+004,-2.18961689316631e+001,-1.81673473792655e+000

7.26015324253724e+004,-2.18962125582675e+001,-1.84209072659379e+000

7.36150120499896e+004,-2.18962574103463e+001,-1.86780047304448e+000

7.46426393229441e+004,-2.18963035222935e+001,-1.89386890713593e+000

7.56846117380472e+004,-2.18963509294665e+001,-1.92030102718772e+000

7.67411295460207e+004,-2.18963996682131e+001,-1.94710190092212e+000

7.78123957929823e+004,-2.18964497758995e+001,-1.97427666641701e+000

7.88986163594682e+004,-2.18965012909381e+001,-2.00183053307262e+000

7.99999999999995e+004,-2.18965542528175e+001,-2.02976878258867e+000

8.11167583832018e+004,-2.18966087021316e+001,-2.05809676995762e+000

8.22491061324848e+004,-2.18966646806113e+001,-2.08681992446764e+000

8.33972608672892e+004,-2.18967222311554e+001,-2.11594375072160e+000

8.45614432449099e+004,-2.18967813978638e+001,-2.14547382966796e+000

8.57418770029029e+004,-2.18968422260707e+001,-2.17541581964600e+000

8.69387890020841e+004,-2.18969047623789e+001,-2.20577545744368e+000

8.81524092701283e+004,-2.18969690546953e+001,-2.23655855937107e+000

8.93829710457770e+004,-2.18970351522671e+001,-2.26777102234561e+000

9.06307108236633e+004,-2.18971031057194e+001,-2.29941882499342e+000

9.18958683997622e+004,-2.18971729670930e+001,-2.33150802876470e+000

9.31786869174758e+004,-2.18972447898843e+001,-2.36404477906199e+000

9.44794129143618e+004,-2.18973186290855e+001,-2.39703530638540e+000

9.57982963695136e+004,-2.18973945412265e+001,-2.43048592749073e+000

9.71355907516031e+004,-2.18974725844171e+001,-2.46440304656371e+000

9.84915530675926e+004,-2.18975528183916e+001,-2.49879315640919e+000

9.98664439121282e+004,-2.18976353045534e+001,-2.53366283965475e+000

1.01260527517622e+005,-2.18977201060217e+001,-2.56901876997112e+000

1.02674071805032e+005,-2.18978072876786e+001,-2.60486771330706e+000

1.04107348435354e+005,-2.18978969162188e+001,-2.64121652914042e+000

1.05560632861831e+005,-2.18979890601994e+001,-2.67807217174558e+000

1.07034204382888e+005,-2.18980837900915e+001,-2.71544169147597e+000

1.08528346195813e+005,-2.18981811783335e+001,-2.75333223606389e+000

1.10043345451179e+005,-2.18982812993856e+001,-2.79175105193533e+000

1.11579493308032e+005,-2.18983842297855e+001,-2.83070548554394e+000

1.13137084989847e+005,-2.18984900482065e+001,-2.87020298471758e+000

1.14716419841265e+005,-2.18985988355160e+001,-2.91025110002659e+000

1.16317801385624e+005,-2.18987106748364e+001,-2.95085748616478e+000

1.17941537383287e+005,-2.18988256516078e+001,-2.99202990335067e+000

1.19587939890794e+005,-2.18989438536517e+001,-3.03377621874355e+000

1.21257325320831e+005,-2.18990653712367e+001,-3.07610440788028e+000

1.22950014503040e+005,-2.18991902971465e+001,-3.11902255612542e+000

1.24666332745679e+005,-2.18993187267489e+001,-3.16253886014275e+000

1.26406609898139e+005,-2.18994507580674e+001,-3.20666162938382e+000

1.28171180414339e+005,-2.18995864918542e+001,-3.25139928759292e+000

1.29960383416997e+005,-2.18997260316656e+001,-3.29676037433224e+000

1.31774562762811e+005,-2.18998694839389e+001,-3.34275354652481e+000

1.33614067108538e+005,-2.19000169580722e+001,-3.38938758001475e+000

1.35479249978003e+005,-2.19001685665055e+001,-3.43667137114877e+000

1.37370469830040e+005,-2.19003244248043e+001,-3.48461393837290e+000

1.39288090127379e+005,-2.19004846517456e+001,-3.53322442385156e+000

1.41232479406504e+005,-2.19006493694064e+001,-3.58251209510315e+000

1.43204011348474e+005,-2.19008187032535e+001,-3.63248634665613e+000

1.45203064850745e+005,-2.19009927822371e+001,-3.68315670172375e+000

1.47230024099979e+005,-2.19011717388863e+001,-3.73453281389811e+000

1.49285278645888e+005,-2.19013557094065e+001,-3.78662446886417e+000

1.51369223476094e+005,-2.19015448337806e+001,-3.83944158613336e+000

1.53482259092041e+005,-2.19017392558721e+001,-3.89299422079539e+000

1.55624791585964e+005,-2.19019391235310e+001,-3.94729256529227e+000

1.57797232718936e+005,-2.19021445887030e+001,-4.00234695121044e+000

1.59999999999999e+005,-2.19023558075408e+001,-4.05816785109297e+000

1.62233516766403e+005,-2.19025729405192e+001,-4.11476588027268e+000

1.64498212264969e+005,-2.19027961525524e+001,-4.17215179872456e+000

1.66794521734578e+005,-2.19030256131151e+001,-4.23033651293874e+000

1.69122886489819e+005,-2.19032614963665e+001,-4.28933107781310e+000

1.71483754005805e+005,-2.19035039812775e+001,-4.34914669856777e+000

1.73877578004168e+005,-2.19037532517611e+001,-4.40979473267697e+000

1.76304818540256e+005,-2.19040094968066e+001,-4.47128669182465e+000

1.78765942091554e+005,-2.19042729106171e+001,-4.53363424387811e+000

1.81261421647326e+005,-2.19045436927506e+001,-4.59684921488241e+000

1.83791736799524e+005,-2.19048220482643e+001,-4.66094359107664e+000

1.86357373834951e+005,-2.19051081878639e+001,-4.72592952092812e+000

1.88958825828723e+005,-2.19054023280551e+001,-4.79181931718931e+000

1.91596592739027e+005,-2.19057046913004e+001,-4.85862545897362e+000

1.94271181503206e+005,-2.19060155061793e+001,-4.92636059385190e+000

1.96983106135185e+005,-2.19063350075526e+001,-4.99503753997008e+000

1.99732887824256e+005,-2.19066634367310e+001,-5.06466928818522e+000

2.02521055035243e+005,-2.19070010416483e+001,-5.13526900422353e+000

2.05348143610063e+005,-2.19073480770383e+001,-5.20685003085726e+000

2.08214696870707e+005,-2.19077048046171e+001,-5.27942589010192e+000

2.11121265723661e+005,-2.19080714932695e+001,-5.35301028543387e+000

2.14068408765776e+005,-2.19084484192396e+001,-5.42761710402677e+000

2.17056692391625e+005,-2.19088358663278e+001,-5.50326041900810e+000

2.20086690902357e+005,-2.19092341260909e+001,-5.57995449173455e+000

2.23158986616063e+005,-2.19096434980484e+001,-5.65771377408813e+000

2.26274169979693e+005,-2.19100642898937e+001,-5.73655291078918e+000

2.29432839682530e+005,-2.19104968177103e+001,-5.81648674173000e+000

2.32635602771247e+005,-2.19109414061935e+001,-5.89753030432649e+000

2.35883074766574e+005,-2.19113983888778e+001,-5.97969883588747e+000

2.39175879781588e+005,-2.19118681083699e+001,-6.06300777600331e+000

2.42514650641661e+005,-2.19123509165867e+001,-6.14747276895176e+000

2.45900029006080e+005,-2.19128471750002e+001,-6.23310966612072e+000

2.49332665491357e+005,-2.19133572548877e+001,-6.31993452844963e+000

2.52813219796278e+005,-2.19138815375882e+001,-6.40796362888612e+000

2.56342360828676e+005,-2.19144204147651e+001,-6.49721345485980e+000

2.59920766833993e+005,-2.19149742886751e+001,-6.58770071077245e+000

2.63549125525621e+005,-2.19155435724437e+001,-6.67944232050361e+000

2.67228134217075e+005,-2.19161286903474e+001,-6.77245542993015e+000

2.70958499956006e+005,-2.19167300781020e+001,-6.86675740946283e+000

2.74740939660078e+005,-2.19173481831585e+001,-6.96236585659493e+000

2.78576180254757e+005,-2.19179834650059e+001,-7.05929859846530e+000

2.82464958813007e+005,-2.19186363954799e+001,-7.15757369443539e+000

2.86408022696948e+005,-2.19193074590811e+001,-7.25720943867747e+000

2.90406129701488e+005,-2.19199971532981e+001,-7.35822436277501e+000

2.94460048199957e+005,-2.19207059889401e+001,-7.46063723833524e+000

2.98570557291775e+005,-2.19214344904757e+001,-7.56446707961110e+000

3.02738446952187e+005,-2.19221831963805e+001,-7.66973314613417e+000

3.06964518184081e+005,-2.19229526594920e+001,-7.77645494535536e+000

3.11249583171928e+005,-2.19237434473728e+001,-7.88465223529581e+000

3.15594465437872e+005,-2.19245561426817e+001,-7.99434502720360e+000

3.19999999999997e+005,-2.19253913435538e+001,-8.10555358821781e+000

3.24467033532806e+005,-2.19262496639881e+001,-8.21829844403924e+000

3.28996424529938e+005,-2.19271317342445e+001,-8.33260038160488e+000

3.33589043469155e+005,-2.19280382012491e+001,-8.44848045176661e+000

3.38245772979638e+005,-2.19289697290084e+001,-8.56595997197370e+000

3.42967508011610e+005,-2.19299269990329e+001,-8.68506052895641e+000

3.47755156008335e+005,-2.19309107107690e+001,-8.80580398141075e+000

3.52609637080511e+005,-2.19319215820412e+001,-8.92821246268346e+000

3.57531884183106e+005,-2.19329603495032e+001,-9.05230838345503e+000

3.62522843294651e+005,-2.19340277690980e+001,-9.17811443442076e+000

3.67583473599047e+005,-2.19351246165289e+001,-9.30565358896815e+000

3.72714747669902e+005,-2.19362516877392e+001,-9.43494910584880e+000

3.77917651657445e+005,-2.19374097994026e+001,-9.56602453184429e+000

3.83193185478053e+005,-2.19385997894232e+001,-9.69890370442481e+000

3.88542363006410e+005,-2.19398225174459e+001,-9.83361075439832e+000

3.93966212270369e+005,-2.19410788653770e+001,-9.97017010854944e+000

3.99465775648511e+005,-2.19423697379158e+001,-1.01086064922666e+001

4.05042110070485e+005,-2.19436960630958e+001,-1.02489449321554e+001

4.10696287220124e+005,-2.19450587928375e+001,-1.03912107586371e+001

4.16429393741414e+005,-2.19464589035117e+001,-1.05354296085310e+001

4.22242531447321e+005,-2.19478973965135e+001,-1.06816274276176e+001

4.28136817531551e+005,-2.19493752988481e+001,-1.08298304731826e+001

4.34113384783250e+005,-2.19508936637269e+001,-1.09800653165386e+001

4.40173381804713e+005,-2.19524535711755e+001,-1.11323588455238e+001

4.46317973232124e+005,-2.19540561286529e+001,-1.12867382669746e+001

4.52548339959385e+005,-2.19557024716824e+001,-1.14432311091711e+001

4.58865679365059e+005,-2.19573937644941e+001,-1.16018652242539e+001

4.65271205542494e+005,-2.19591312006787e+001,-1.17626687906086e+001

4.71766149533147e+005,-2.19609160038539e+001,-1.19256703152174e+001

4.78351759563174e+005,-2.19627494283422e+001,-1.20908986359753e+001

4.85029301283321e+005,-2.19646327598612e+001,-1.22583829239677e+001

4.91800058012158e+005,-2.19665673162255e+001,-1.24281526857097e+001

4.98665330982714e+005,-2.19685544480613e+001,-1.26002377653405e+001

5.05626439592555e+005,-2.19705955395333e+001,-1.27746683467757e+001

5.12684721657352e+005,-2.19726920090838e+001,-1.29514749558107e+001

5.19841533667984e+005,-2.19748453101846e+001,-1.31306884621746e+001

5.27098251051240e+005,-2.19770569321013e+001,-1.33123400815327e+001

5.34456268434150e+005,-2.19793284006705e+001,-1.34964613774327e+001

5.41916999912011e+005,-2.19816612790895e+001,-1.36830842631937e+001

