Freq.,VOut,OutRef

1.00000000000000e+004,-2.30496630553586e+001,-4.46134072828263e-002

1.01395947979003e+004,-2.30496630949779e+001,-4.52361865502832e-002

1.02811382665607e+004,-2.30496631357109e+001,-4.58676594636759e-002

1.04246576084112e+004,-2.30496631775891e+001,-4.65079473795436e-002

1.05701804056138e+004,-2.30496632206446e+001,-4.71571733495816e-002

1.07177346253629e+004,-2.30496632649105e+001,-4.78154621439710e-002

1.08673486252606e+004,-2.30496633104209e+001,-4.84829402718113e-002

1.10190511587661e+004,-2.30496633572106e+001,-4.91597360121819e-002

1.11728713807222e+004,-2.30496634053159e+001,-4.98459794300250e-002

1.13288388529580e+004,-2.30496634547734e+001,-5.05418024106135e-002

1.14869835499703e+004,-2.30496635056214e+001,-5.12473386773712e-002

1.16473358646846e+004,-2.30496635578990e+001,-5.19627238191295e-002

1.18099266142953e+004,-2.30496636116461e+001,-5.26880953221696e-002

1.19747870461893e+004,-2.30496636669040e+001,-5.34235925888296e-002

1.21419488439505e+004,-2.30496637237157e+001,-5.41693569644763e-002

1.23114441334492e+004,-2.30496637821244e+001,-5.49255317731110e-002

1.24833054890161e+004,-2.30496638421748e+001,-5.56922623379011e-002

1.26575659397028e+004,-2.30496639039136e+001,-5.64696960070854e-002

1.28342589756290e+004,-2.30496639673880e+001,-5.72579821883493e-002

1.30134185544193e+004,-2.30496640326468e+001,-5.80572723753363e-002

1.31950791077289e+004,-2.30496640997403e+001,-5.88677201758155e-002

1.33792755478611e+004,-2.30496641687199e+001,-5.96894813411299e-002

1.35660432744767e+004,-2.30496642396388e+001,-6.05227137969332e-002

1.37554181813974e+004,-2.30496643125512e+001,-6.13675776750804e-002

1.39474366635040e+004,-2.30496643875132e+001,-6.22242353410893e-002

1.41421356237309e+004,-2.30496644645827e+001,-6.30928514256356e-002

1.43395524801583e+004,-2.30496645438189e+001,-6.39735928582794e-002

1.45397251732031e+004,-2.30496646252824e+001,-6.48666289018689e-002

1.47426921729110e+004,-2.30496647090362e+001,-6.57721311762969e-002

1.49484924863494e+004,-2.30496647951443e+001,-6.66902737027544e-002

1.51571656651040e+004,-2.30496648836731e+001,-6.76212329264995e-002

1.53687518128801e+004,-2.30496649746906e+001,-6.85651877595986e-002

1.55832915932100e+004,-2.30496650682668e+001,-6.95223196083219e-002

1.58008262372675e+004,-2.30496651644736e+001,-7.04928124139545e-002

1.60213975517924e+004,-2.30496652633848e+001,-7.14768526840069e-002

1.62450479271247e+004,-2.30496653650768e+001,-7.24746295274505e-002

1.64718203453514e+004,-2.30496654696274e+001,-7.34863346967835e-002

1.67017583885674e+004,-2.30496655771169e+001,-7.45121626192798e-002

1.69349062472505e+004,-2.30496656876283e+001,-7.55523104339517e-002

1.71713087287550e+004,-2.30496658012462e+001,-7.66069780355663e-002

1.74110112659224e+004,-2.30496659180581e+001,-7.76763681049372e-002

1.76540599258131e+004,-2.30496660381538e+001,-7.87606861548701e-002

1.79005014185594e+004,-2.30496661616254e+001,-7.98601405670585e-002

1.81503831063432e+004,-2.30496662885679e+001,-8.09749426301763e-002

1.84037530124975e+004,-2.30496664190788e+001,-8.21053065822189e-002

1.86606598307361e+004,-2.30496665532586e+001,-8.32514496515276e-002

1.89211529345119e+004,-2.30496666912103e+001,-8.44135920989964e-002

1.91852823865052e+004,-2.30496668330400e+001,-8.55919572595660e-002

1.94530989482457e+004,-2.30496669788564e+001,-8.67867715881977e-002

1.97246540898671e+004,-2.30496671287719e+001,-8.79982646953738e-002

1.99999999999999e+004,-2.30496672829018e+001,-8.92266693996281e-002

2.02791895958005e+004,-2.30496674413641e+001,-9.04722217715310e-002

2.05622765331213e+004,-2.30496676042808e+001,-9.17351611715452e-002

2.08493152168224e+004,-2.30496677717772e+001,-9.30157303046598e-002

2.11403608112276e+004,-2.30496679439819e+001,-9.43141752623909e-002

2.14354692507258e+004,-2.30496681210273e+001,-9.56307455703759e-002

2.17346972505211e+004,-2.30496683030494e+001,-9.69656942385318e-002

2.20381023175322e+004,-2.30496684901879e+001,-9.83192778079324e-002

2.23457427614443e+004,-2.30496686825869e+001,-9.96917563991302e-002

2.26576777059159e+004,-2.30496688803942e+001,-1.01083393763455e-001

2.29739670999406e+004,-2.30496690837617e+001,-1.02494457335069e-001

2.32946717293690e+004,-2.30496692928458e+001,-1.03925218279080e-001

2.36198532285905e+004,-2.30496695078069e+001,-1.05375951547609e-001

2.39495740923785e+004,-2.30496697288103e+001,-1.06846935927693e-001

2.42838976879009e+004,-2.30496699560261e+001,-1.08338454097930e-001

2.46228882668982e+004,-2.30496701896286e+001,-1.09850792683573e-001

2.49666109780322e+004,-2.30496704297971e+001,-1.11384242311237e-001

2.53151318794055e+004,-2.30496706767164e+001,-1.12939097660422e-001

2.56685179512580e+004,-2.30496709305762e+001,-1.14515657526488e-001

2.60268371088386e+004,-2.30496711915716e+001,-1.16114224872257e-001

2.63901582154578e+004,-2.30496714599030e+001,-1.17735106891754e-001

2.67585510957221e+004,-2.30496717357765e+001,-1.19378615065403e-001

2.71320865489533e+004,-2.30496720194043e+001,-1.21045065219894e-001

2.75108363627948e+004,-2.30496723110039e+001,-1.22734777591627e-001

2.78948733270080e+004,-2.30496726107997e+001,-1.24448076884146e-001

2.82842712474618e+004,-2.30496729190220e+001,-1.26185292333233e-001

2.86791049603164e+004,-2.30496732359072e+001,-1.27946757772806e-001

2.90794503464061e+004,-2.30496735616991e+001,-1.29732811690658e-001

2.94853843458219e+004,-2.30496738966480e+001,-1.31543797300627e-001

2.98969849726987e+004,-2.30496742410108e+001,-1.33380062609643e-001

3.03143313302078e+004,-2.30496745950524e+001,-1.35241960476146e-001

3.07375036257601e+004,-2.30496749590447e+001,-1.37129848686637e-001

3.11665831864199e+004,-2.30496753332670e+001,-1.39044090020128e-001

3.16016524745350e+004,-2.30496757180071e+001,-1.40985052315885e-001

3.20427951035848e+004,-2.30496761135603e+001,-1.42953108550453e-001

3.24900958542493e+004,-2.30496765202305e+001,-1.44948636902890e-001

3.29436406907028e+004,-2.30496769383301e+001,-1.46972020830410e-001

3.34035167771346e+004,-2.30496773681800e+001,-1.49023649141455e-001

3.38698124945009e+004,-2.30496778101106e+001,-1.51103916070304e-001

3.43426174575100e+004,-2.30496782644609e+001,-1.53213221354054e-001

3.48220225318448e+004,-2.30496787315802e+001,-1.55351970304787e-001

3.53081198516260e+004,-2.30496792118271e+001,-1.57520573894091e-001

3.58010028371187e+004,-2.30496797055702e+001,-1.59719448826595e-001

3.63007662126863e+004,-2.30496802131888e+001,-1.61949017621888e-001

3.68075060249948e+004,-2.30496807350729e+001,-1.64209708694274e-001

3.73213196614721e+004,-2.30496812716229e+001,-1.66501956440050e-001

3.78423058690237e+004,-2.30496818232508e+001,-1.68826201313697e-001

3.83705647730104e+004,-2.30496823903801e+001,-1.71182889916414e-001

3.89061978964912e+004,-2.30496829734463e+001,-1.73572475082384e-001

3.94493081797342e+004,-2.30496835728971e+001,-1.75995415961314e-001

3.99999999999998e+004,-2.30496841891928e+001,-1.78452178112086e-001

4.05583791916010e+004,-2.30496848228060e+001,-1.80943233591075e-001

4.11245530662425e+004,-2.30496854742237e+001,-1.83469061036297e-001

4.16986304336447e+004,-2.30496861439454e+001,-1.86030145769223e-001

4.22807216224550e+004,-2.30496868324855e+001,-1.88626979879167e-001

4.28709385014515e+004,-2.30496875403724e+001,-1.91260062323351e-001

4.34693945010421e+004,-2.30496882681492e+001,-1.93929899019834e-001

4.40762046350642e+004,-2.30496890163748e+001,-1.96637002944525e-001

4.46914855228886e+004,-2.30496897856231e+001,-1.99381894231601e-001

4.53153554118317e+004,-2.30496905764845e+001,-2.02165100270694e-001

4.59479341998812e+004,-2.30496913895660e+001,-2.04987155809690e-001

4.65893434587380e+004,-2.30496922254913e+001,-2.07848603057669e-001

4.72397064571810e+004,-2.30496930849019e+001,-2.10749991786245e-001

4.78991481847569e+004,-2.30496939684570e+001,-2.13691879438287e-001

4.85677953758016e+004,-2.30496948768347e+001,-2.16674831231439e-001

4.92457765337964e+004,-2.30496958107316e+001,-2.19699420270519e-001

4.99332219560642e+004,-2.30496967708641e+001,-2.22766227653087e-001

5.06302637588109e+004,-2.30496977579688e+001,-2.25875842583632e-001

5.13370359025159e+004,-2.30496987728029e+001,-2.29028862484585e-001

5.20536742176771e+004,-2.30496998161444e+001,-2.32225893114288e-001

5.27803164309155e+004,-2.30497008887936e+001,-2.35467548678291e-001

5.35171021914442e+004,-2.30497019915731e+001,-2.38754451949883e-001

5.42641730979066e+004,-2.30497031253285e+001,-2.42087234388379e-001

5.50216727255895e+004,-2.30497042909289e+001,-2.45466536263110e-001

5.57897466540159e+004,-2.30497054892681e+001,-2.48893006770733e-001

5.65685424949235e+004,-2.30497067212648e+001,-2.52367304162483e-001

5.73582099206328e+004,-2.30497079878632e+001,-2.55890095872665e-001

5.81589006928121e+004,-2.30497092900343e+001,-2.59462058640401e-001

5.89707686916437e+004,-2.30497106287761e+001,-2.63083878645275e-001

5.97939699453972e+004,-2.30497120051144e+001,-2.66756251635428e-001

6.06286626604156e+004,-2.30497134201041e+001,-2.70479883061220e-001

6.14750072515201e+004,-2.30497148748293e+001,-2.74255488210343e-001

6.23331663728396e+004,-2.30497163704045e+001,-2.78083792345183e-001

6.32033049490698e+004,-2.30497179079755e+001,-2.81965530840787e-001

6.40855902071694e+004,-2.30497194887201e+001,-2.85901449326148e-001

6.49801917084985e+004,-2.30497211138490e+001,-2.89892303827286e-001

6.58872813814055e+004,-2.30497227846067e+001,-2.93938860911358e-001

6.68070335542691e+004,-2.30497245022728e+001,-2.98041897832555e-001

6.77396249890018e+004,-2.30497262681623e+001,-3.02202202682057e-001

6.86852349150199e+004,-2.30497280836273e+001,-3.06420574537159e-001

6.96440450636895e+004,-2.30497299500575e+001,-3.10697823615808e-001

7.06162397032520e+004,-2.30497318688814e+001,-3.15034771431259e-001

7.16020056742374e+004,-2.30497338415676e+001,-3.19432250947177e-001

7.26015324253724e+004,-2.30497358696257e+001,-3.23891106738370e-001

7.36150120499896e+004,-2.30497379546073e+001,-3.28412195153204e-001

7.46426393229441e+004,-2.30497400981076e+001,-3.32996384474255e-001

7.56846117380472e+004,-2.30497423017661e+001,-3.37644555086836e-001

7.67411295460207e+004,-2.30497445672683e+001,-3.42357599645735e-001

7.78123957929823e+004,-2.30497468963463e+001,-3.47136423247451e-001

7.88986163594682e+004,-2.30497492907813e+001,-3.51981943599044e-001

7.99999999999995e+004,-2.30497517524035e+001,-3.56895091197394e-001

8.11167583832018e+004,-2.30497542830946e+001,-3.61876809505979e-001

8.22491061324848e+004,-2.30497568847884e+001,-3.66928055132872e-001

8.33972608672892e+004,-2.30497595594731e+001,-3.72049798014913e-001

8.45614432449099e+004,-2.30497623091920e+001,-3.77243021602140e-001

8.57418770029029e+004,-2.30497651360454e+001,-3.82508723045906e-001

8.69387890020841e+004,-2.30497680421921e+001,-3.87847913388817e-001

8.81524092701283e+004,-2.30497710298511e+001,-3.93261617757331e-001

8.93829710457770e+004,-2.30497741013033e+001,-3.98750875555412e-001

9.06307108236633e+004,-2.30497772588931e+001,-4.04316740665539e-001

9.18958683997622e+004,-2.30497805050300e+001,-4.09960281648090e-001

9.31786869174758e+004,-2.30497838421906e+001,-4.15682581944291e-001

9.44794129143618e+004,-2.30497872729204e+001,-4.21484740083191e-001

9.57982963695136e+004,-2.30497907998358e+001,-4.27367869891348e-001

9.71355907516031e+004,-2.30497944256260e+001,-4.33333100702222e-001

9.84915530675926e+004,-2.30497981530548e+001,-4.39381577573665e-001

9.98664439121282e+004,-2.30498019849627e+001,-4.45514461506079e-001

1.01260527517622e+005,-2.30498059242696e+001,-4.51732929659353e-001

1.02674071805032e+005,-2.30498099739757e+001,-4.58038175581686e-001

1.04107348435354e+005,-2.30498141371653e+001,-4.64431409431766e-001

1.05560632861831e+005,-2.30498184170079e+001,-4.70913858211898e-001

1.07034204382888e+005,-2.30498228167607e+001,-4.77486765999697e-001

1.08528346195813e+005,-2.30498273397718e+001,-4.84151394183979e-001

1.10043345451179e+005,-2.30498319894815e+001,-4.90909021705175e-001

1.11579493308032e+005,-2.30498367694259e+001,-4.97760945296962e-001

1.13137084989847e+005,-2.30498416832389e+001,-5.04708479732363e-001

1.14716419841265e+005,-2.30498467346549e+001,-5.11752958073777e-001

1.16317801385624e+005,-2.30498519275117e+001,-5.18895731925053e-001

1.17941537383287e+005,-2.30498572657533e+001,-5.26138171686861e-001

1.19587939890794e+005,-2.30498627534328e+001,-5.33481666818167e-001

1.21257325320831e+005,-2.30498683947151e+001,-5.40927626097005e-001

1.22950014503040e+005,-2.30498741938805e+001,-5.48477477888029e-001

1.24666332745679e+005,-2.30498801553273e+001,-5.56132670413041e-001

1.26406609898139e+005,-2.30498862835750e+001,-5.63894672024411e-001

1.28171180414339e+005,-2.30498925832681e+001,-5.71764971482781e-001

1.29960383416997e+005,-2.30498990591789e+001,-5.79745078238081e-001

1.31774562762811e+005,-2.30499057162113e+001,-5.87836522714114e-001

1.33614067108538e+005,-2.30499125594042e+001,-5.96040856598699e-001

1.35479249978003e+005,-2.30499195939352e+001,-6.04359653135097e-001

1.37370469830040e+005,-2.30499268251244e+001,-6.12794507418782e-001

1.39288090127379e+005,-2.30499342584380e+001,-6.21347036699823e-001

1.41232479406504e+005,-2.30499418994924e+001,-6.30018880684356e-001

1.43204011348474e+005,-2.30499497540583e+001,-6.38811701846365e-001

1.45203064850745e+005,-2.30499578280646e+001,-6.47727185738001e-001

1.47230024099979e+005,-2.30499661276028e+001,-6.56767041309231e-001

1.49285278645888e+005,-2.30499746589316e+001,-6.65933001226061e-001

1.51369223476094e+005,-2.30499834284804e+001,-6.75226822198705e-001

1.53482259092041e+005,-2.30499924428551e+001,-6.84650285310258e-001

1.55624791585964e+005,-2.30500017088421e+001,-6.94205196349318e-001

1.57797232718936e+005,-2.30500112334129e+001,-7.03893386152690e-001

1.59999999999999e+005,-2.30500210237298e+001,-7.13716710943695e-001

1.62233516766403e+005,-2.30500310871498e+001,-7.23677052684263e-001

1.64498212264969e+005,-2.30500414312310e+001,-7.33776319423641e-001

1.66794521734578e+005,-2.30500520637370e+001,-7.44016445657145e-001

1.69122886489819e+005,-2.30500629926427e+001,-7.54399392687489e-001

1.71483754005805e+005,-2.30500742261397e+001,-7.64927148991112e-001

1.73877578004168e+005,-2.30500857726420e+001,-7.75601730589507e-001

1.76304818540256e+005,-2.30500976407921e+001,-7.86425181424364e-001

1.78765942091554e+005,-2.30501098394665e+001,-7.97399573740643e-001

1.81261421647326e+005,-2.30501223777822e+001,-8.08527008469549e-001

1.83791736799524e+005,-2.30501352651027e+001,-8.19809615622690e-001

1.86357373834951e+005,-2.30501485110445e+001,-8.31249554686099e-001

1.88958825828723e+005,-2.30501621254838e+001,-8.42849015022741e-001

1.91596592739027e+005,-2.30501761185630e+001,-8.54610216277786e-001

1.94271181503206e+005,-2.30501905006975e+001,-8.66535408792247e-001

1.96983106135185e+005,-2.30502052825830e+001,-8.78626874018731e-001

1.99732887824256e+005,-2.30502204752026e+001,-8.90886924944659e-001

2.02521055035243e+005,-2.30502360898339e+001,-9.03317906520031e-001

2.05348143610063e+005,-2.30502521380570e+001,-9.15922196091788e-001

2.08214696870707e+005,-2.30502686317620e+001,-9.28702203841419e-001

2.11121265723661e+005,-2.30502855831564e+001,-9.41660373232474e-001

2.14068408765776e+005,-2.30503030047739e+001,-9.54799181458565e-001

2.17056692391625e+005,-2.30503209094822e+001,-9.68121139901339e-001

2.20086690902357e+005,-2.30503393104916e+001,-9.81628794593286e-001

2.23158986616063e+005,-2.30503582213632e+001,-9.95324726684230e-001

2.26274169979693e+005,-2.30503776560185e+001,-1.00921155291646e+000

2.29432839682530e+005,-2.30503976287475e+001,-1.02329192610595e+000

2.32635602771247e+005,-2.30504181542183e+001,-1.03756853562765e+000

2.35883074766574e+005,-2.30504392474867e+001,-1.05204410790894e+000

2.39175879781588e+005,-2.30504609240050e+001,-1.06672140692813e+000

2.42514650641661e+005,-2.30504831996329e+001,-1.08160323472033e+000

2.45900029006080e+005,-2.30505060906464e+001,-1.09669243188818e+000

2.49332665491357e+005,-2.30505296137485e+001,-1.11199187812276e+000

2.52813219796278e+005,-2.30505537860798e+001,-1.12750449272487e+000

2.56342360828676e+005,-2.30505786252285e+001,-1.14323323514003e+000

2.59920766833993e+005,-2.30506041492420e+001,-1.15918110549449e+000

2.63549125525621e+005,-2.30506303766370e+001,-1.17535114514156e+000

2.67228134217075e+005,-2.30506573264118e+001,-1.19174643721362e+000

2.70958499956006e+005,-2.30506850180567e+001,-1.20837010718087e+000

2.74740939660078e+005,-2.30507134715669e+001,-1.22522532341707e+000

2.78576180254757e+005,-2.30507427074532e+001,-1.24231529777447e+000

2.82464958813007e+005,-2.30507727467550e+001,-1.25964328616264e+000

2.86408022696948e+005,-2.30508036110525e+001,-1.27721258913756e+000

2.90406129701488e+005,-2.30508353224791e+001,-1.29502655249604e+000

2.94460048199957e+005,-2.30508679037345e+001,-1.31308856787974e+000

2.98570557291775e+005,-2.30509013780975e+001,-1.33140207338495e+000

3.02738446952187e+005,-2.30509357694397e+001,-1.34997055418110e+000

3.06964518184081e+005,-2.30509711022386e+001,-1.36879754313664e+000

3.11249583171928e+005,-2.30510074015917e+001,-1.38788662145375e+000

3.15594465437872e+005,-2.30510446932306e+001,-1.40724141930937e+000

3.19999999999997e+005,-2.30510830035348e+001,-1.42686561650610e+000

3.24467033532806e+005,-2.30511223595466e+001,-1.44676294313143e+000

3.28996424529938e+005,-2.30511627889860e+001,-1.46693718022218e+000

3.33589043469155e+005,-2.30512043202649e+001,-1.48739216044353e+000

3.38245772979638e+005,-2.30512469825034e+001,-1.50813176876907e+000

3.42967508011610e+005,-2.30512908055442e+001,-1.52915994317690e+000

3.47755156008335e+005,-2.30513358199693e+001,-1.55048067534891e+000

3.52609637080511e+005,-2.30513820571151e+001,-1.57209801138299e+000

3.57531884183106e+005,-2.30514295490890e+001,-1.59401605251204e+000

3.62522843294651e+005,-2.30514783287857e+001,-1.61623895583344e+000

3.67583473599047e+005,-2.30515284299042e+001,-1.63877093504689e+000

3.72714747669902e+005,-2.30515798869643e+001,-1.66161626120419e+000

3.77917651657445e+005,-2.30516327353239e+001,-1.68477926346500e+000

3.83193185478053e+005,-2.30516870111964e+001,-1.70826432986713e+000

3.88542363006410e+005,-2.30517427516684e+001,-1.73207590810231e+000

3.93966212270369e+005,-2.30517999947173e+001,-1.75621850630615e+000

3.99465775648511e+005,-2.30518587792301e+001,-1.78069669385603e+000

4.05042110070485e+005,-2.30519191450208e+001,-1.80551510218050e+000

4.10696287220124e+005,-2.30519811328500e+001,-1.83067842557969e+000

4.16429393741414e+005,-2.30520447844428e+001,-1.85619142205763e+000

4.22242531447321e+005,-2.30521101425087e+001,-1.88205891416290e+000

4.28136817531551e+005,-2.30521772507604e+001,-1.90828578984460e+000

4.34113384783250e+005,-2.30522461539338e+001,-1.93487700331768e+000

4.40173381804713e+005,-2.30523168978074e+001,-1.96183757593993e+000

4.46317973232124e+005,-2.30523895292227e+001,-1.98917259710355e+000

4.52548339959385e+005,-2.30524640961046e+001,-2.01688722513668e+000

4.58865679365059e+005,-2.30525406474819e+001,-2.04498668821871e+000

4.65271205542494e+005,-2.30526192335077e+001,-2.07347628531057e+000

4.71766149533147e+005,-2.30526999054814e+001,-2.10236138709326e+000

4.78351759563174e+005,-2.30527827158697e+001,-2.13164743692573e+000

4.85029301283321e+005,-2.30528677183280e+001,-2.16133995181299e+000

4.91800058012158e+005,-2.30529549677230e+001,-2.19144452339033e+000

4.98665330982714e+005,-2.30530445201543e+001,-2.22196681892060e+000

5.05626439592555e+005,-2.30531364329776e+001,-2.25291258230823e+000

5.12684721657352e+005,-2.30532307648272e+001,-2.28428763512682e+000

5.19841533667984e+005,-2.30533275756396e+001,-2.31609787766316e+000

5.27098251051240e+005,-2.30534269266767e+001,-2.34834928997740e+000

5.34456268434150e+005,-2.30535288805501e+001,-2.38104793298010e+000

5.41916999912011e+005,-2.30536335012453e+001,-2.41419994952430e+000

