Freq.,VOut,OutRef

1.00000000000000e+004,-2.65435190521999e+001,-3.61832292248149e-002

1.01395947979003e+004,-2.65435191098046e+001,-3.66883265269450e-002

1.02811382665607e+004,-2.65435191690283e+001,-3.72004746529715e-002

1.04246576084112e+004,-2.65435192299169e+001,-3.77197720229909e-002

1.05701804056138e+004,-2.65435192925176e+001,-3.82463184304409e-002

1.07177346253629e+004,-2.65435193568781e+001,-3.87802150675624e-002

1.08673486252606e+004,-2.65435194230477e+001,-3.93215645377604e-002

1.10190511587661e+004,-2.65435194910773e+001,-3.98704708739598e-002

1.11728713807222e+004,-2.65435195610195e+001,-4.04270395601529e-002

1.13288388529580e+004,-2.65435196329279e+001,-4.09913775563482e-002

1.14869835499703e+004,-2.65435197068577e+001,-4.15635933140889e-002

1.16473358646846e+004,-2.65435197828662e+001,-4.21437967957927e-002

1.18099266142953e+004,-2.65435198610108e+001,-4.27320995064284e-002

1.19747870461893e+004,-2.65435199413526e+001,-4.33286144972684e-002

1.21419488439505e+004,-2.65435200239527e+001,-4.39334564056497e-002

1.23114441334492e+004,-2.65435201088750e+001,-4.45467414630161e-002

1.24833054890161e+004,-2.65435201961844e+001,-4.51685875290296e-002

1.26575659397028e+004,-2.65435202859484e+001,-4.57991141024906e-002

1.28342589756290e+004,-2.65435203782359e+001,-4.64384423530309e-002

1.30134185544193e+004,-2.65435204731172e+001,-4.70866951457259e-002

1.31950791077289e+004,-2.65435205706662e+001,-4.77439970490536e-002

1.33792755478611e+004,-2.65435206709570e+001,-4.84104743844190e-002

1.35660432744767e+004,-2.65435207740672e+001,-4.90862552240057e-002

1.37554181813974e+004,-2.65435208800760e+001,-4.97714694342416e-002

1.39474366635040e+004,-2.65435209890648e+001,-5.04662486927604e-002

1.41421356237309e+004,-2.65435211011175e+001,-5.11707265129782e-002

1.43395524801583e+004,-2.65435212163198e+001,-5.18850382768678e-002

1.45397251732031e+004,-2.65435213347604e+001,-5.26093212514261e-002

1.47426921729110e+004,-2.65435214565308e+001,-5.33437146178488e-002

1.49484924863494e+004,-2.65435215817239e+001,-5.40883595065966e-002

1.51571656651040e+004,-2.65435217104364e+001,-5.48433990112752e-002

1.53687518128801e+004,-2.65435218427669e+001,-5.56089782263216e-002

1.55832915932100e+004,-2.65435219788173e+001,-5.63852442688660e-002

1.58008262372675e+004,-2.65435221186920e+001,-5.71723463124355e-002

1.60213975517924e+004,-2.65435222624987e+001,-5.79704356084629e-002

1.62450479271247e+004,-2.65435224103476e+001,-5.87796655226701e-002

1.64718203453514e+004,-2.65435225623523e+001,-5.96001915603094e-002

1.67017583885674e+004,-2.65435227186301e+001,-6.04321713940812e-002

1.69349062472505e+004,-2.65435228793006e+001,-6.12757649015984e-002

1.71713087287550e+004,-2.65435230444875e+001,-6.21311341881565e-002

1.74110112659224e+004,-2.65435232143175e+001,-6.29984436240369e-002

1.76540599258131e+004,-2.65435233889213e+001,-6.38778598717186e-002

1.79005014185594e+004,-2.65435235684332e+001,-6.47695519186111e-002

1.81503831063432e+004,-2.65435237529909e+001,-6.56736911136332e-002

1.84037530124975e+004,-2.65435239427361e+001,-6.65904511953917e-002

1.86606598307361e+004,-2.65435241378147e+001,-6.75200083253837e-002

1.89211529345119e+004,-2.65435243383766e+001,-6.84625411260404e-002

1.91852823865052e+004,-2.65435245445761e+001,-6.94182307089283e-002

1.94530989482457e+004,-2.65435247565714e+001,-7.03872607178753e-002

1.97246540898671e+004,-2.65435249745252e+001,-7.13698173570842e-002

1.99999999999999e+004,-2.65435251986054e+001,-7.23660894263020e-002

2.02791895958005e+004,-2.65435254289837e+001,-7.33762683651910e-002

2.05622765331213e+004,-2.65435256658374e+001,-7.44005482810795e-002

2.08493152168224e+004,-2.65435259093484e+001,-7.54391259904915e-002

2.11403608112276e+004,-2.65435261597035e+001,-7.64922010583960e-002

2.14354692507258e+004,-2.65435264170956e+001,-7.75599758298540e-002

2.17346972505211e+004,-2.65435266817217e+001,-7.86426554813038e-002

2.20381023175322e+004,-2.65435269537858e+001,-7.97404480419091e-002

2.23457427614443e+004,-2.65435272334962e+001,-8.08535644538352e-002

2.26576777059159e+004,-2.65435275210683e+001,-8.19822185932812e-002

2.29739670999406e+004,-2.65435278167227e+001,-8.31266273282714e-002

2.32946717293690e+004,-2.65435281206866e+001,-8.42870105475683e-002

2.36198532285905e+004,-2.65435284331934e+001,-8.54635912112776e-002

2.39495740923785e+004,-2.65435287544832e+001,-8.66565953880054e-002

2.42838976879009e+004,-2.65435290848027e+001,-8.78662523015358e-002

2.46228882668982e+004,-2.65435294244056e+001,-8.90927943742364e-002

2.49666109780322e+004,-2.65435297735527e+001,-9.03364572710772e-002

2.53151318794055e+004,-2.65435301325121e+001,-9.15974799442750e-002

2.56685179512580e+004,-2.65435305015598e+001,-9.28761046787512e-002

2.60268371088386e+004,-2.65435308809787e+001,-9.41725771436872e-002

2.63901582154578e+004,-2.65435312710604e+001,-9.54871464314298e-002

2.67585510957221e+004,-2.65435316721044e+001,-9.68200651104623e-002

2.71320865489533e+004,-2.65435320844188e+001,-9.81715892734644e-002

2.75108363627948e+004,-2.65435325083198e+001,-9.95419785860455e-002

2.78948733270080e+004,-2.65435329441333e+001,-1.00931496333829e-001

2.82842712474618e+004,-2.65435333921937e+001,-1.02340409477789e-001

2.86791049603164e+004,-2.65435338528451e+001,-1.03768988700969e-001

2.90794503464061e+004,-2.65435343264410e+001,-1.05217508464210e-001

2.94853843458219e+004,-2.65435348133450e+001,-1.06686247055934e-001

2.98969849726987e+004,-2.65435353139310e+001,-1.08175486645027e-001

3.03143313302078e+004,-2.65435358285831e+001,-1.09685513337008e-001

3.07375036257601e+004,-2.65435363576966e+001,-1.11216617228243e-001

3.11665831864199e+004,-2.65435369016774e+001,-1.12769092461454e-001

3.16016524745350e+004,-2.65435374609431e+001,-1.14343237281430e-001

3.20427951035848e+004,-2.65435380359229e+001,-1.15939354092292e-001

3.24900958542493e+004,-2.65435386270581e+001,-1.17557749517157e-001

3.29436406907028e+004,-2.65435392348022e+001,-1.19198734454138e-001

3.34035167771346e+004,-2.65435398596218e+001,-1.20862624135915e-001

3.38698124945009e+004,-2.65435405019962e+001,-1.22549738194390e-001

3.43426174575100e+004,-2.65435411624185e+001,-1.24260400714784e-001

3.48220225318448e+004,-2.65435418413951e+001,-1.25994940306081e-001

3.53081198516260e+004,-2.65435425394472e+001,-1.27753690156107e-001

3.58010028371187e+004,-2.65435432571102e+001,-1.29536988099521e-001

3.63007662126863e+004,-2.65435439949347e+001,-1.31345176682524e-001

3.68075060249948e+004,-2.65435447534864e+001,-1.33178603227057e-001

3.73213196614721e+004,-2.65435455333477e+001,-1.35037619894998e-001

3.78423058690237e+004,-2.65435463351162e+001,-1.36922583762794e-001

3.83705647730104e+004,-2.65435471594070e+001,-1.38833856881647e-001

3.89061978964912e+004,-2.65435480068525e+001,-1.40771806350227e-001

3.94493081797342e+004,-2.65435488781021e+001,-1.42736804387331e-001

3.99999999999998e+004,-2.65435497738240e+001,-1.44729228398448e-001

4.05583791916010e+004,-2.65435506947052e+001,-1.46749461049773e-001

4.11245530662425e+004,-2.65435516414514e+001,-1.48797890342671e-001

4.16986304336447e+004,-2.65435526147887e+001,-1.50874909684067e-001

4.22807216224550e+004,-2.65435536154628e+001,-1.52980917968964e-001

4.28709385014515e+004,-2.65435546442411e+001,-1.55116319645958e-001

4.34693945010421e+004,-2.65435557019117e+001,-1.57281524806093e-001

4.40762046350642e+004,-2.65435567892855e+001,-1.59476949249536e-001

4.46914855228886e+004,-2.65435579071957e+001,-1.61703014574151e-001

4.53153554118317e+004,-2.65435590564986e+001,-1.63960148253733e-001

4.59479341998812e+004,-2.65435602380747e+001,-1.66248783716543e-001

4.65893434587380e+004,-2.65435614528295e+001,-1.68569360428705e-001

4.72397064571810e+004,-2.65435627016934e+001,-1.70922323980100e-001

4.78991481847569e+004,-2.65435639856227e+001,-1.73308126171384e-001

4.85677953758016e+004,-2.65435653056009e+001,-1.75727225092439e-001

4.92457765337964e+004,-2.65435666626387e+001,-1.78180085217148e-001

4.99332219560642e+004,-2.65435680577751e+001,-1.80667177489655e-001

5.06302637588109e+004,-2.65435694920782e+001,-1.83188979411187e-001

5.13370359025159e+004,-2.65435709666461e+001,-1.85745975135036e-001

5.20536742176771e+004,-2.65435724826072e+001,-1.88338655557847e-001

5.27803164309155e+004,-2.65435740411217e+001,-1.90967518410607e-001

5.35171021914442e+004,-2.65435756433823e+001,-1.93633068355872e-001

5.42641730979066e+004,-2.65435772906149e+001,-1.96335817083379e-001

5.50216727255895e+004,-2.65435789840797e+001,-1.99076283405319e-001

5.57897466540159e+004,-2.65435807250717e+001,-2.01854993361250e-001

5.65685424949235e+004,-2.65435825149228e+001,-2.04672480307017e-001

5.73582099206328e+004,-2.65435843550013e+001,-2.07529285028585e-001

5.81589006928121e+004,-2.65435862467143e+001,-2.10425955834798e-001

5.89707686916437e+004,-2.65435881915078e+001,-2.13363048668045e-001

5.97939699453972e+004,-2.65435901908683e+001,-2.16341127206063e-001

6.06286626604156e+004,-2.65435922463235e+001,-2.19360762971091e-001

6.14750072515201e+004,-2.65435943594443e+001,-2.22422535436079e-001

6.23331663728396e+004,-2.65435965318447e+001,-2.25527032137566e-001

6.32033049490698e+004,-2.65435987651841e+001,-2.28674848784158e-001

6.40855902071694e+004,-2.65436010611680e+001,-2.31866589372024e-001

6.49801917084985e+004,-2.65436034215494e+001,-2.35102866296943e-001

6.58872813814055e+004,-2.65436058481301e+001,-2.38384300471622e-001

6.68070335542691e+004,-2.65436083427624e+001,-2.41711521442854e-001

6.77396249890018e+004,-2.65436109073495e+001,-2.45085167511872e-001

6.86852349150199e+004,-2.65436135438480e+001,-2.48505885853488e-001

6.96440450636895e+004,-2.65436162542691e+001,-2.51974332637731e-001

7.06162397032520e+004,-2.65436190406796e+001,-2.55491173155962e-001

7.16020056742374e+004,-2.65436219052037e+001,-2.59057081946767e-001

7.26015324253724e+004,-2.65436248500250e+001,-2.62672742919852e-001

7.36150120499896e+004,-2.65436278773876e+001,-2.66338849489285e-001

7.46426393229441e+004,-2.65436309895976e+001,-2.70056104702124e-001

7.56846117380472e+004,-2.65436341890258e+001,-2.73825221370433e-001

7.67411295460207e+004,-2.65436374781081e+001,-2.77646922207433e-001

7.78123957929823e+004,-2.65436408593486e+001,-2.81521939961739e-001

7.88986163594682e+004,-2.65436443353204e+001,-2.85451017556944e-001

7.99999999999995e+004,-2.65436479086683e+001,-2.89434908228632e-001

8.11167583832018e+004,-2.65436515821099e+001,-2.93474375670969e-001

8.22491061324848e+004,-2.65436553584387e+001,-2.97570194174139e-001

8.33972608672892e+004,-2.65436592405250e+001,-3.01723148774378e-001

8.45614432449099e+004,-2.65436632313190e+001,-3.05934035398525e-001

8.57418770029029e+004,-2.65436673338523e+001,-3.10203661014423e-001

8.69387890020841e+004,-2.65436715512403e+001,-3.14532843782853e-001

8.81524092701283e+004,-2.65436758866846e+001,-3.18922413207996e-001

8.93829710457770e+004,-2.65436803434752e+001,-3.23373210297057e-001

9.06307108236633e+004,-2.65436849249931e+001,-3.27886087712449e-001

9.18958683997622e+004,-2.65436896347124e+001,-3.32461909935171e-001

9.31786869174758e+004,-2.65436944762032e+001,-3.37101553423779e-001

9.44794129143618e+004,-2.65436994531339e+001,-3.41805906779548e-001

9.57982963695136e+004,-2.65437045692742e+001,-3.46575870910377e-001

9.71355907516031e+004,-2.65437098284974e+001,-3.51412359199528e-001

9.84915530675926e+004,-2.65437152347836e+001,-3.56316297676752e-001

9.98664439121282e+004,-2.65437207922221e+001,-3.61288625188319e-001

1.01260527517622e+005,-2.65437265050151e+001,-3.66330293571251e-001

1.02674071805032e+005,-2.65437323774798e+001,-3.71442267833068e-001

1.04107348435354e+005,-2.65437384140521e+001,-3.76625526327902e-001

1.05560632861831e+005,-2.65437446192897e+001,-3.81881060937506e-001

1.07034204382888e+005,-2.65437509978752e+001,-3.87209877256293e-001

1.08528346195813e+005,-2.65437575546195e+001,-3.92612994777653e-001

1.10043345451179e+005,-2.65437642944650e+001,-3.98091447080547e-001

1.11579493308032e+005,-2.65437712224899e+001,-4.03646282019201e-001

1.13137084989847e+005,-2.65437783439104e+001,-4.09278561920683e-001

1.14716419841265e+005,-2.65437856640861e+001,-4.14989363774802e-001

1.16317801385624e+005,-2.65437931885223e+001,-4.20779779436500e-001

1.17941537383287e+005,-2.65438009228744e+001,-4.26650915823779e-001

1.19587939890794e+005,-2.65438088729524e+001,-4.32603895121139e-001

1.21257325320831e+005,-2.65438170447238e+001,-4.38639854986914e-001

1.22950014503040e+005,-2.65438254443189e+001,-4.44759948758830e-001

1.24666332745679e+005,-2.65438340780346e+001,-4.50965345664603e-001

1.26406609898139e+005,-2.65438429523383e+001,-4.57257231038369e-001

1.28171180414339e+005,-2.65438520738732e+001,-4.63636806534043e-001

1.29960383416997e+005,-2.65438614494625e+001,-4.70105290342873e-001

1.31774562762811e+005,-2.65438710861136e+001,-4.76663917418746e-001

1.33614067108538e+005,-2.65438809910237e+001,-4.83313939698486e-001

1.35479249978003e+005,-2.65438911715846e+001,-4.90056626328742e-001

1.37370469830040e+005,-2.65439016353869e+001,-4.96893263898269e-001

1.39288090127379e+005,-2.65439123902261e+001,-5.03825156667147e-001

1.41232479406504e+005,-2.65439234441074e+001,-5.10853626804458e-001

1.43204011348474e+005,-2.65439348052511e+001,-5.17980014622754e-001

1.45203064850745e+005,-2.65439464820980e+001,-5.25205678823797e-001

1.47230024099979e+005,-2.65439584833155e+001,-5.32531996735518e-001

1.49285278645888e+005,-2.65439708178027e+001,-5.39960364565312e-001

1.51369223476094e+005,-2.65439834946967e+001,-5.47492197645090e-001

1.53482259092041e+005,-2.65439965233785e+001,-5.55128930684334e-001

1.55624791585964e+005,-2.65440099134792e+001,-5.62872018027321e-001

1.57797232718936e+005,-2.65440236748862e+001,-5.70722933907621e-001

1.59999999999999e+005,-2.65440378177493e+001,-5.78683172714916e-001

1.62233516766403e+005,-2.65440523524882e+001,-5.86754249253950e-001

1.64498212264969e+005,-2.65440672897979e+001,-5.94937699014586e-001

1.66794521734578e+005,-2.65440826406565e+001,-6.03235078442243e-001

1.69122886489819e+005,-2.65440984163319e+001,-6.11647965210170e-001

1.71483754005805e+005,-2.65441146283887e+001,-6.20177958497267e-001

1.73877578004168e+005,-2.65441312886956e+001,-6.28826679267526e-001

1.76304818540256e+005,-2.65441484094328e+001,-6.37595770551941e-001

1.78765942091554e+005,-2.65441660030997e+001,-6.46486897736103e-001

1.81261421647326e+005,-2.65441840825221e+001,-6.55501748848215e-001

1.83791736799524e+005,-2.65442026608607e+001,-6.64642034852743e-001

1.86357373834951e+005,-2.65442217516186e+001,-6.73909489943340e-001

1.88958825828723e+005,-2.65442413686497e+001,-6.83305871844699e-001

1.91596592739027e+005,-2.65442615261668e+001,-6.92832962114369e-001

1.94271181503206e+005,-2.65442822387500e+001,-7.02492566445661e-001

1.96983106135185e+005,-2.65443035213557e+001,-7.12286514979290e-001

1.99732887824256e+005,-2.65443253893249e+001,-7.22216662612513e-001

2.02521055035243e+005,-2.65443478583922e+001,-7.32284889317141e-001

2.05348143610063e+005,-2.65443709446948e+001,-7.42493100456283e-001

2.08214696870707e+005,-2.65443946647819e+001,-7.52843227106722e-001

2.11121265723661e+005,-2.65444190356238e+001,-7.63337226384417e-001

2.14068408765776e+005,-2.65444440746215e+001,-7.73977081772767e-001

2.17056692391625e+005,-2.65444697996161e+001,-7.84764803456057e-001

2.20086690902357e+005,-2.65444962288990e+001,-7.95702428652211e-001

2.23158986616063e+005,-2.65445233812214e+001,-8.06792021954194e-001

2.26274169979693e+005,-2.65445512758042e+001,-8.18035675672267e-001

2.29432839682530e+005,-2.65445799323488e+001,-8.29435510177464e-001

2.32635602771247e+005,-2.65446093710469e+001,-8.40993674253182e-001

2.35883074766574e+005,-2.65446396125910e+001,-8.52712345446537e-001

2.39175879781588e+005,-2.65446706781850e+001,-8.64593730425919e-001

2.42514650641661e+005,-2.65447025895548e+001,-8.76640065339436e-001

2.45900029006080e+005,-2.65447353689593e+001,-8.88853616178076e-001

2.49332665491357e+005,-2.65447690392011e+001,-9.01236679144213e-001

2.52813219796278e+005,-2.65448036236374e+001,-9.13791581020175e-001

2.56342360828676e+005,-2.65448391461912e+001,-9.26520679542806e-001

2.59920766833993e+005,-2.65448756313626e+001,-9.39426363781308e-001

2.63549125525621e+005,-2.65449131042396e+001,-9.52511054519083e-001

2.67228134217075e+005,-2.65449515905103e+001,-9.65777204636087e-001

2.70958499956006e+005,-2.65449911164731e+001,-9.79227299500334e-001

2.74740939660078e+005,-2.65450317090491e+001,-9.92863857359199e-001

2.78576180254757e+005,-2.65450733957931e+001,-1.00668942973336e+000

2.82464958813007e+005,-2.65451162049053e+001,-1.02070660181976e+000

2.86408022696948e+005,-2.65451601652428e+001,-1.03491799289325e+000

2.90406129701488e+005,-2.65452053063310e+001,-1.04932625671376e+000

2.94460048199957e+005,-2.65452516583755e+001,-1.06393408193824e+000

2.98570557291775e+005,-2.65452992522730e+001,-1.07874419253660e+000

3.02738446952187e+005,-2.65453481196234e+001,-1.09375934820849e+000

3.06964518184081e+005,-2.65453982927412e+001,-1.10898234480833e+000

3.11249583171928e+005,-2.65454498046663e+001,-1.12441601477284e+000

3.15594465437872e+005,-2.65455026891758e+001,-1.14006322755072e+000

3.19999999999997e+005,-2.65455569807952e+001,-1.15592689003869e+000

3.24467033532806e+005,-2.65456127148093e+001,-1.17200994702227e+000

3.28996424529938e+005,-2.65456699272731e+001,-1.18831538161925e+000

3.33589043469155e+005,-2.65457286550228e+001,-1.20484621572789e+000

3.38245772979638e+005,-2.65457889356863e+001,-1.22160551048108e+000

3.42967508011610e+005,-2.65458508076934e+001,-1.23859636670283e+000

3.47755156008335e+005,-2.65459143102865e+001,-1.25582192537133e+000

3.52609637080511e+005,-2.65459794835300e+001,-1.27328536808650e+000

3.57531884183106e+005,-2.65460463683204e+001,-1.29098991754176e+000

3.62522843294651e+005,-2.65461150063951e+001,-1.30893883800167e+000

3.67583473599047e+005,-2.65461854403422e+001,-1.32713543578471e+000

3.72714747669902e+005,-2.65462577136085e+001,-1.34558305975054e+000

3.77917651657445e+005,-2.65463318705084e+001,-1.36428510179478e+000

3.83193185478053e+005,-2.65464079562312e+001,-1.38324499734763e+000

3.88542363006410e+005,-2.65464860168491e+001,-1.40246622587934e+000

3.93966212270369e+005,-2.65465660993241e+001,-1.42195231141155e+000

3.99465775648511e+005,-2.65466482515141e+001,-1.44170682303590e+000

4.05042110070485e+005,-2.65467325221794e+001,-1.46173337543806e+000

4.10696287220124e+005,-2.65468189609878e+001,-1.48203562942908e+000

4.16429393741414e+005,-2.65469076185197e+001,-1.50261729248451e+000

4.22242531447321e+005,-2.65469985462719e+001,-1.52348211928989e+000

4.28136817531551e+005,-2.65470917966616e+001,-1.54463391229557e+000

4.34113384783250e+005,-2.65471874230289e+001,-1.56607652227816e+000

4.40173381804713e+005,-2.65472854796392e+001,-1.58781384891079e+000

4.46317973232124e+005,-2.65473860216844e+001,-1.60984984134334e+000

4.52548339959385e+005,-2.65474891052836e+001,-1.63218849879020e+000

4.58865679365059e+005,-2.65475947874831e+001,-1.65483387112908e+000

4.65271205542494e+005,-2.65477031262548e+001,-1.67779005951014e+000

4.71766149533147e+005,-2.65478141804949e+001,-1.70106121697341e+000

4.78351759563174e+005,-2.65479280100207e+001,-1.72465154908033e+000

4.85029301283321e+005,-2.65480446755672e+001,-1.74856531455505e+000

4.91800058012158e+005,-2.65481642387819e+001,-1.77280682593920e+000

4.98665330982714e+005,-2.65482867622195e+001,-1.79738045025687e+000

5.05626439592555e+005,-2.65484123093353e+001,-1.82229060969709e+000

5.12684721657352e+005,-2.65485409444773e+001,-1.84754178230632e+000

5.19841533667984e+005,-2.65486727328776e+001,-1.87313850269716e+000

5.27098251051240e+005,-2.65488077406429e+001,-1.89908536277397e+000

5.34456268434150e+005,-2.65489460347432e+001,-1.92538701247219e+000

5.41916999912011e+005,-2.65490876830006e+001,-1.95204816051537e+000

