Freq.,VOut,OutRef

1.00000000000000e+004,-1.43886700570691e+001,-1.28659073553908e-001

1.01395947979003e+004,-1.43886701893304e+001,-1.30455083431259e-001

1.02811382665607e+004,-1.43886703253097e+001,-1.32276164509290e-001

1.04246576084112e+004,-1.43886704651118e+001,-1.34122666759951e-001

1.05701804056138e+004,-1.43886706088440e+001,-1.35994945043742e-001

1.07177346253629e+004,-1.43886707566169e+001,-1.37893359172441e-001

1.08673486252606e+004,-1.43886709085439e+001,-1.39818273981522e-001

1.10190511587661e+004,-1.43886710647419e+001,-1.41770059398099e-001

1.11728713807222e+004,-1.43886712253310e+001,-1.43749090513253e-001

1.13288388529580e+004,-1.43886713904344e+001,-1.45755747654645e-001

1.14869835499703e+004,-1.43886715601794e+001,-1.47790416456412e-001

1.16473358646846e+004,-1.43886717346961e+001,-1.49853487938566e-001

1.18099266142953e+004,-1.43886719141188e+001,-1.51945358576838e-001

1.19747870461893e+004,-1.43886720985855e+001,-1.54066430381213e-001

1.21419488439505e+004,-1.43886722882378e+001,-1.56217110975372e-001

1.23114441334492e+004,-1.43886724832214e+001,-1.58397813670587e-001

1.24833054890161e+004,-1.43886726836864e+001,-1.60608957547532e-001

1.26575659397028e+004,-1.43886728897867e+001,-1.62850967536792e-001

1.28342589756290e+004,-1.43886731016808e+001,-1.65124274500573e-001

1.30134185544193e+004,-1.43886733195316e+001,-1.67429315314278e-001

1.31950791077289e+004,-1.43886735435064e+001,-1.69766532952731e-001

1.33792755478611e+004,-1.43886737737774e+001,-1.72136376572255e-001

1.35660432744767e+004,-1.43886740105215e+001,-1.74539301599591e-001

1.37554181813974e+004,-1.43886742539209e+001,-1.76975769816674e-001

1.39474366635040e+004,-1.43886745041623e+001,-1.79446249454917e-001

1.41421356237309e+004,-1.43886747614382e+001,-1.81951215276963e-001

1.43395524801583e+004,-1.43886750259466e+001,-1.84491148672962e-001

1.45397251732031e+004,-1.43886752978903e+001,-1.87066537755637e-001

1.47426921729110e+004,-1.43886755774785e+001,-1.89677877446936e-001

1.49484924863494e+004,-1.43886758649262e+001,-1.92325669577714e-001

1.51571656651040e+004,-1.43886761604540e+001,-1.95010422984807e-001

1.53687518128801e+004,-1.43886764642893e+001,-1.97732653605205e-001

1.55832915932100e+004,-1.43886767766656e+001,-2.00492884577507e-001

1.58008262372675e+004,-1.43886770978226e+001,-2.03291646344765e-001

1.60213975517924e+004,-1.43886774280075e+001,-2.06129476749110e-001

1.62450479271247e+004,-1.43886777674739e+001,-2.09006921143350e-001

1.64718203453514e+004,-1.43886781164826e+001,-2.11924532490897e-001

1.67017583885674e+004,-1.43886784753017e+001,-2.14882871473436e-001

1.69349062472505e+004,-1.43886788442073e+001,-2.17882506595907e-001

1.71713087287550e+004,-1.43886792234825e+001,-2.20924014301334e-001

1.74110112659224e+004,-1.43886796134189e+001,-2.24007979076432e-001

1.76540599258131e+004,-1.43886800143161e+001,-2.27134993565730e-001

1.79005014185594e+004,-1.43886804264823e+001,-2.30305658685424e-001

1.81503831063432e+004,-1.43886808502339e+001,-2.33520583739564e-001

1.84037530124975e+004,-1.43886812858967e+001,-2.36780386535908e-001

1.86606598307361e+004,-1.43886817338055e+001,-2.40085693502625e-001

1.89211529345119e+004,-1.43886821943043e+001,-2.43437139814963e-001

1.91852823865052e+004,-1.43886826677470e+001,-2.46835369509360e-001

1.94530989482457e+004,-1.43886831544974e+001,-2.50281035612224e-001

1.97246540898671e+004,-1.43886836549294e+001,-2.53774800264930e-001

1.99999999999999e+004,-1.43886841694275e+001,-2.57317334848751e-001

2.02791895958005e+004,-1.43886846983869e+001,-2.60909320115833e-001

2.05622765331213e+004,-1.43886852422143e+001,-2.64551446316756e-001

2.08493152168224e+004,-1.43886858013271e+001,-2.68244413339518e-001

2.11403608112276e+004,-1.43886863761550e+001,-2.71988930836420e-001

2.14354692507258e+004,-1.43886869671397e+001,-2.75785718364733e-001

2.17346972505211e+004,-1.43886875747352e+001,-2.79635505524005e-001

2.20381023175322e+004,-1.43886881994081e+001,-2.83539032096575e-001

2.23457427614443e+004,-1.43886888416384e+001,-2.87497048187004e-001

2.26576777059159e+004,-1.43886895019194e+001,-2.91510314369739e-001

2.29739670999406e+004,-1.43886901807582e+001,-2.95579601833003e-001

2.32946717293690e+004,-1.43886908786764e+001,-2.99705692527475e-001

2.36198532285905e+004,-1.43886915962101e+001,-3.03889379314681e-001

2.39495740923785e+004,-1.43886923339102e+001,-3.08131466123347e-001

2.42838976879009e+004,-1.43886930923436e+001,-3.12432768098260e-001

2.46228882668982e+004,-1.43886938720927e+001,-3.16794111761244e-001

2.49666109780322e+004,-1.43886946737564e+001,-3.21216335167482e-001

2.53151318794055e+004,-1.43886954979502e+001,-3.25700288067636e-001

2.56685179512580e+004,-1.43886963453074e+001,-3.30246832068184e-001

2.60268371088386e+004,-1.43886972164785e+001,-3.34856840801124e-001

2.63901582154578e+004,-1.43886981121326e+001,-3.39531200088573e-001

2.67585510957221e+004,-1.43886990329577e+001,-3.44270808112125e-001

2.71320865489533e+004,-1.43886999796607e+001,-3.49076575588152e-001

2.75108363627948e+004,-1.43887009529685e+001,-3.53949425941115e-001

2.78948733270080e+004,-1.43887019536286e+001,-3.58890295479093e-001

2.82842712474618e+004,-1.43887029824093e+001,-3.63900133576186e-001

2.86791049603164e+004,-1.43887040401005e+001,-3.68979902853168e-001

2.90794503464061e+004,-1.43887051275143e+001,-3.74130579361362e-001

2.94853843458219e+004,-1.43887062454855e+001,-3.79353152772316e-001

2.98969849726987e+004,-1.43887073948725e+001,-3.84648626564970e-001

3.03143313302078e+004,-1.43887085765577e+001,-3.90018018219506e-001

3.07375036257601e+004,-1.43887097914481e+001,-3.95462359413861e-001

3.11665831864199e+004,-1.43887110404762e+001,-4.00982696218882e-001

3.16016524745350e+004,-1.43887123246011e+001,-4.06580089299100e-001

3.20427951035848e+004,-1.43887136448082e+001,-4.12255614119095e-001

3.24900958542493e+004,-1.43887150021109e+001,-4.18010361147289e-001

3.29436406907028e+004,-1.43887163975508e+001,-4.23845436064775e-001

3.34035167771346e+004,-1.43887178321990e+001,-4.29761959979404e-001

3.38698124945009e+004,-1.43887193071565e+001,-4.35761069636870e-001

3.43426174575100e+004,-1.43887208235550e+001,-4.41843917645001e-001

3.48220225318448e+004,-1.43887223825583e+001,-4.48011672687632e-001

3.53081198516260e+004,-1.43887239853624e+001,-4.54265519753557e-001

3.58010028371187e+004,-1.43887256331973e+001,-4.60606660361425e-001

3.63007662126863e+004,-1.43887273273272e+001,-4.67036312790086e-001

3.68075060249948e+004,-1.43887290690519e+001,-4.73555712313077e-001

3.73213196614721e+004,-1.43887308597074e+001,-4.80166111434754e-001

3.78423058690237e+004,-1.43887327006673e+001,-4.86868780130444e-001

3.83705647730104e+004,-1.43887345933438e+001,-4.93665006088940e-001

3.89061978964912e+004,-1.43887365391886e+001,-5.00556094960698e-001

3.94493081797342e+004,-1.43887385396939e+001,-5.07543370606231e-001

3.99999999999998e+004,-1.43887405963940e+001,-5.14628175351119e-001

4.05583791916010e+004,-1.43887427108661e+001,-5.21811870242131e-001

4.11245530662425e+004,-1.43887448847314e+001,-5.29095835308787e-001

4.16986304336447e+004,-1.43887471196568e+001,-5.36481469826161e-001

4.22807216224550e+004,-1.43887494173557e+001,-5.43970192584734e-001

4.28709385014515e+004,-1.43887517795897e+001,-5.51563442159709e-001

4.34693945010421e+004,-1.43887542081695e+001,-5.59262677189121e-001

4.40762046350642e+004,-1.43887567049565e+001,-5.67069376650022e-001

4.46914855228886e+004,-1.43887592718645e+001,-5.74985040144041e-001

4.53153554118317e+004,-1.43887619108605e+001,-5.83011188183471e-001

4.59479341998812e+004,-1.43887646239668e+001,-5.91149362481690e-001

4.65893434587380e+004,-1.43887674132624e+001,-5.99401126247333e-001

4.72397064571810e+004,-1.43887702808842e+001,-6.07768064486410e-001

4.78991481847569e+004,-1.43887732290291e+001,-6.16251784302406e-001

4.85677953758016e+004,-1.43887762599554e+001,-6.24853915204616e-001

4.92457765337964e+004,-1.43887793759846e+001,-6.33576109420662e-001

4.99332219560642e+004,-1.43887825795030e+001,-6.42420042210060e-001

5.06302637588109e+004,-1.43887858729639e+001,-6.51387412187659e-001

5.13370359025159e+004,-1.43887892588889e+001,-6.60479941644625e-001

5.20536742176771e+004,-1.43887927398705e+001,-6.69699376880561e-001

5.27803164309155e+004,-1.43887963185732e+001,-6.79047488536567e-001

5.35171021914442e+004,-1.43887999977362e+001,-6.88526071931516e-001

5.42641730979066e+004,-1.43888037801754e+001,-6.98136947407460e-001

5.50216727255895e+004,-1.43888076687852e+001,-7.07881960675529e-001

5.57897466540159e+004,-1.43888116665408e+001,-7.17762983169598e-001

5.65685424949235e+004,-1.43888157765006e+001,-7.27781912403096e-001

5.73582099206328e+004,-1.43888200018084e+001,-7.37940672330252e-001

5.81589006928121e+004,-1.43888243456958e+001,-7.48241213714278e-001

5.89707686916437e+004,-1.43888288114845e+001,-7.58685514500070e-001

5.97939699453972e+004,-1.43888334025890e+001,-7.69275580190147e-001

6.06286626604156e+004,-1.43888381225193e+001,-7.80013444226636e-001

6.14750072515201e+004,-1.43888429748827e+001,-7.90901168382298e-001

6.23331663728396e+004,-1.43888479633877e+001,-8.01940843149425e-001

6.32033049490698e+004,-1.43888530918461e+001,-8.13134588140794e-001

6.40855902071694e+004,-1.43888583641756e+001,-8.24484552493726e-001

6.49801917084985e+004,-1.43888637844036e+001,-8.35992915276878e-001

6.58872813814055e+004,-1.43888693566694e+001,-8.47661885908949e-001

6.68070335542691e+004,-1.43888750852278e+001,-8.59493704576027e-001

6.77396249890018e+004,-1.43888809744521e+001,-8.71490642659650e-001

6.86852349150199e+004,-1.43888870288369e+001,-8.83655003170309e-001

6.96440450636895e+004,-1.43888932530027e+001,-8.95989121181721e-001

7.06162397032520e+004,-1.43888996516980e+001,-9.08495364279198e-001

7.16020056742374e+004,-1.43889062298037e+001,-9.21176133007045e-001

7.26015324253724e+004,-1.43889129923363e+001,-9.34033861326618e-001

7.36150120499896e+004,-1.43889199444518e+001,-9.47071017077257e-001

7.46426393229441e+004,-1.43889270914495e+001,-9.60290102446573e-001

7.56846117380472e+004,-1.43889344387760e+001,-9.73693654444025e-001

7.67411295460207e+004,-1.43889419920293e+001,-9.87284245384995e-001

7.78123957929823e+004,-1.43889497569626e+001,-1.00106448337601e+000

7.88986163594682e+004,-1.43889577394890e+001,-1.01503701281161e+000

7.99999999999995e+004,-1.43889659456855e+001,-1.02920451487543e+000

8.11167583832018e+004,-1.43889743817979e+001,-1.04356970804841e+000

8.22491061324848e+004,-1.43889830542450e+001,-1.05813534862371e+000

8.33972608672892e+004,-1.43889919696236e+001,-1.07290423122889e+000

8.45614432449099e+004,-1.43890011347131e+001,-1.08787918935573e+000

8.57418770029029e+004,-1.43890105564809e+001,-1.10306309589602e+000

8.69387890020841e+004,-1.43890202420871e+001,-1.11845886368534e+000

8.81524092701283e+004,-1.43890301988900e+001,-1.13406944605351e+000

8.93829710457770e+004,-1.43890404344514e+001,-1.14989783738369e+000

9.06307108236633e+004,-1.43890509565421e+001,-1.16594707367785e+000

9.18958683997622e+004,-1.43890617731477e+001,-1.18222023313002e+000

9.31786869174758e+004,-1.43890728924743e+001,-1.19872043670766e+000

9.44794129143618e+004,-1.43890843229545e+001,-1.21545084874006e+000

9.57982963695136e+004,-1.43890960732538e+001,-1.23241467751563e+000

9.71355907516031e+004,-1.43891081522762e+001,-1.24961517588768e+000

9.84915530675926e+004,-1.43891205691716e+001,-1.26705564188434e+000

9.98664439121282e+004,-1.43891333333415e+001,-1.28473941933295e+000

1.01260527517622e+005,-1.43891464544466e+001,-1.30266989848709e+000

1.02674071805032e+005,-1.43891599424131e+001,-1.32085051666540e+000

1.04107348435354e+005,-1.43891738074402e+001,-1.33928475889717e+000

1.05560632861831e+005,-1.43891880600077e+001,-1.35797615857683e+000

1.07034204382888e+005,-1.43892027108827e+001,-1.37692829812913e+000

1.08528346195813e+005,-1.43892177711280e+001,-1.39614480967880e+000

1.10043345451179e+005,-1.43892332521099e+001,-1.41562937573341e+000

1.11579493308032e+005,-1.43892491655059e+001,-1.43538572987354e+000

1.13137084989847e+005,-1.43892655233136e+001,-1.45541765745001e+000

1.14716419841265e+005,-1.43892823378589e+001,-1.47572899629476e+000

1.16317801385624e+005,-1.43892996218045e+001,-1.49632363743759e+000

1.17941537383287e+005,-1.43893173881592e+001,-1.51720552583225e+000

1.19587939890794e+005,-1.43893356502871e+001,-1.53837866109483e+000

1.21257325320831e+005,-1.43893544219167e+001,-1.55984709824873e+000

1.22950014503040e+005,-1.43893737171507e+001,-1.58161494848176e+000

1.24666332745679e+005,-1.43893935504757e+001,-1.60368637991101e+000

1.26406609898139e+005,-1.43894139367725e+001,-1.62606561835961e+000

1.28171180414339e+005,-1.43894348913267e+001,-1.64875694814218e+000

1.29960383416997e+005,-1.43894564298384e+001,-1.67176471286050e+000

1.31774562762811e+005,-1.43894785684342e+001,-1.69509331621125e+000

1.33614067108538e+005,-1.43895013236772e+001,-1.71874722280220e+000

1.35479249978003e+005,-1.43895247125793e+001,-1.74273095897903e+000

1.37370469830040e+005,-1.43895487526123e+001,-1.76704911366424e+000

1.39288090127379e+005,-1.43895734617201e+001,-1.79170633920576e+000

1.41232479406504e+005,-1.43895988583306e+001,-1.81670735223607e+000

1.43204011348474e+005,-1.43896249613685e+001,-1.84205693454414e+000

1.45203064850745e+005,-1.43896517902680e+001,-1.86775993395518e+000

1.47230024099979e+005,-1.43896793649856e+001,-1.89382126522618e+000

1.49285278645888e+005,-1.43897077060140e+001,-1.92024591094849e+000

1.51369223476094e+005,-1.43897368343951e+001,-1.94703892246404e+000

1.53482259092041e+005,-1.43897667717346e+001,-1.97420542079263e+000

1.55624791585964e+005,-1.43897975402160e+001,-2.00175059757206e+000

1.57797232718936e+005,-1.43898291626151e+001,-2.02967971600745e+000

1.59999999999999e+005,-1.43898616623153e+001,-2.05799811183566e+000

1.62233516766403e+005,-1.43898950633224e+001,-2.08671119429933e+000

1.64498212264969e+005,-1.43899293902806e+001,-2.11582444713400e+000

1.66794521734578e+005,-1.43899646684883e+001,-2.14534342956756e+000

1.69122886489819e+005,-1.43900009239141e+001,-2.17527377733293e+000

1.71483754005805e+005,-1.43900381832137e+001,-2.20562120369099e+000

1.73877578004168e+005,-1.43900764737471e+001,-2.23639150046869e+000

1.76304818540256e+005,-1.43901158235951e+001,-2.26759053910865e+000

1.78765942091554e+005,-1.43901562615779e+001,-2.29922427173185e+000

1.81261421647326e+005,-1.43901978172723e+001,-2.33129873221294e+000

1.83791736799524e+005,-1.43902405210307e+001,-2.36382003726995e+000

1.86357373834951e+005,-1.43902844039994e+001,-2.39679438756614e+000

1.88958825828723e+005,-1.43903294981381e+001,-2.43022806882520e+000

1.91596592739027e+005,-1.43903758362388e+001,-2.46412745296123e+000

1.94271181503206e+005,-1.43904234519464e+001,-2.49849899922036e+000

1.96983106135185e+005,-1.43904723797782e+001,-2.53334925533873e+000

1.99732887824256e+005,-1.43905226551448e+001,-2.56868485871165e+000

2.02521055035243e+005,-1.43905743143711e+001,-2.60451253757840e+000

2.05348143610063e+005,-1.43906273947173e+001,-2.64083911222150e+000

2.08214696870707e+005,-1.43906819344010e+001,-2.67767149617923e+000

2.11121265723661e+005,-1.43907379726191e+001,-2.71501669747200e+000

2.14068408765776e+005,-1.43907955495698e+001,-2.75288181984634e+000

2.17056692391625e+005,-1.43908547064763e+001,-2.79127406402888e+000

2.20086690902357e+005,-1.43909154856089e+001,-2.83020072899985e+000

2.23158986616063e+005,-1.43909779303091e+001,-2.86966921327807e+000

2.26274169979693e+005,-1.43910420850137e+001,-2.90968701622232e+000

2.29432839682530e+005,-1.43911079952784e+001,-2.95026173934902e+000

2.32635602771247e+005,-1.43911757078025e+001,-2.99140108766250e+000

2.35883074766574e+005,-1.43912452704542e+001,-3.03311287100315e+000

2.39175879781588e+005,-1.43913167322955e+001,-3.07540500541085e+000

2.42514650641661e+005,-1.43913901436077e+001,-3.11828551450273e+000

2.45900029006080e+005,-1.43914655559174e+001,-3.16176253086818e+000

2.49332665491357e+005,-1.43915430220227e+001,-3.20584429747966e+000

2.52813219796278e+005,-1.43916225960195e+001,-3.25053916911989e+000

2.56342360828676e+005,-1.43917043333284e+001,-3.29585561382452e+000

2.59920766833993e+005,-1.43917882907216e+001,-3.34180221434227e+000

2.63549125525621e+005,-1.43918745263504e+001,-3.38838766961093e+000

2.67228134217075e+005,-1.43919630997722e+001,-3.43562079625170e+000

2.70958499956006e+005,-1.43920540719789e+001,-3.48351053007843e+000

2.74740939660078e+005,-1.43921475054242e+001,-3.53206592762614e+000

2.78576180254757e+005,-1.43922434640522e+001,-3.58129616769509e+000

2.82464958813007e+005,-1.43923420133253e+001,-3.63121055291400e+000

2.86408022696948e+005,-1.43924432202530e+001,-3.68181851132024e+000

2.90406129701488e+005,-1.43925471534200e+001,-3.73312959795780e+000

2.94460048199957e+005,-1.43926538830154e+001,-3.78515349649399e+000

2.98570557291775e+005,-1.43927634808607e+001,-3.83790002085435e+000

3.02738446952187e+005,-1.43928760204392e+001,-3.89137911687637e+000

3.06964518184081e+005,-1.43929915769244e+001,-3.94560086398150e+000

3.11249583171928e+005,-1.43931102272086e+001,-4.00057547686714e+000

3.15594465437872e+005,-1.43932320499319e+001,-4.05631330721743e+000

3.19999999999997e+005,-1.43933571255106e+001,-4.11282484543362e+000

3.24467033532806e+005,-1.43934855361658e+001,-4.17012072238573e+000

3.28996424529938e+005,-1.43936173659511e+001,-4.22821171118222e+000

3.33589043469155e+005,-1.43937527007817e+001,-4.28710872896204e+000

3.38245772979638e+005,-1.43938916284611e+001,-4.34682283870719e+000

3.42967508011610e+005,-1.43940342387096e+001,-4.40736525107661e+000

3.47755156008335e+005,-1.43941806231906e+001,-4.46874732626099e+000

3.52609637080511e+005,-1.43943308755382e+001,-4.53098057586105e+000

3.57531884183106e+005,-1.43944850913831e+001,-4.59407666478657e+000

3.62522843294651e+005,-1.43946433683786e+001,-4.65804741318027e+000

3.67583473599047e+005,-1.43948058062257e+001,-4.72290479836356e+000

3.72714747669902e+005,-1.43949725066983e+001,-4.78866095680669e+000

3.77917651657445e+005,-1.43951435736672e+001,-4.85532818612368e+000

3.83193185478053e+005,-1.43953191131229e+001,-4.92291894709152e+000

3.88542363006410e+005,-1.43954992331991e+001,-4.99144586569556e+000

3.93966212270369e+005,-1.43956840441939e+001,-5.06092173520023e+000

3.99465775648511e+005,-1.43958736585909e+001,-5.13135951824790e+000

4.05042110070485e+005,-1.43960681910792e+001,-5.20277234898336e+000

4.10696287220124e+005,-1.43962677585723e+001,-5.27517353520848e+000

4.16429393741414e+005,-1.43964724802260e+001,-5.34857656056390e+000

4.22242531447321e+005,-1.43966824774553e+001,-5.42299508674235e+000

4.28136817531551e+005,-1.43968978739498e+001,-5.49844295573074e+000

4.34113384783250e+005,-1.43971187956880e+001,-5.57493419208536e+000

4.40173381804713e+005,-1.43973453709503e+001,-5.65248300523821e+000

4.46317973232124e+005,-1.43975777303306e+001,-5.73110379183770e+000

4.52548339959385e+005,-1.43978160067466e+001,-5.81081113812270e+000

4.58865679365059e+005,-1.43980603354482e+001,-5.89161982233365e+000

4.65271205542494e+005,-1.43983108540247e+001,-5.97354481715844e+000

4.71766149533147e+005,-1.43985677024101e+001,-6.05660129221775e+000

4.78351759563174e+005,-1.43988310228874e+001,-6.14080461658842e+000

4.85029301283321e+005,-1.43991009600899e+001,-6.22617036136741e+000

4.91800058012158e+005,-1.43993776610021e+001,-6.31271430227842e+000

4.98665330982714e+005,-1.43996612749581e+001,-6.40045242232001e+000

5.05626439592555e+005,-1.43999519536381e+001,-6.48940091445959e+000

5.12684721657352e+005,-1.44002498510632e+001,-6.57957618437360e+000

5.19841533667984e+005,-1.44005551235885e+001,-6.67099485323448e+000

5.27098251051240e+005,-1.44008679298938e+001,-6.76367376054827e+000

5.34456268434150e+005,-1.44011884309730e+001,-6.85762996704302e+000

5.41916999912011e+005,-1.44015167901210e+001,-6.95288075760919e+000

