Freq.,VOut,OutRef

1.00000000000000e+004,-1.46751115877248e+001,-7.67310354643382e-002

1.01395947979003e+004,-1.46751116579143e+001,-7.78021585968371e-002

1.02811382665607e+004,-1.46751117300771e+001,-7.88882339561416e-002

1.04246576084112e+004,-1.46751118042686e+001,-7.99894702646666e-002

1.05701804056138e+004,-1.46751118805457e+001,-8.11060791581112e-002

1.07177346253629e+004,-1.46751119589671e+001,-8.22382752242391e-002

1.08673486252606e+004,-1.46751120395929e+001,-8.33862760487708e-002

1.10190511587661e+004,-1.46751121224855e+001,-8.45503022512161e-002

1.11728713807222e+004,-1.46751122077084e+001,-8.57305775329451e-002

1.13288388529580e+004,-1.46751122953270e+001,-8.69273287187059e-002

1.14869835499703e+004,-1.46751123854085e+001,-8.81407857988256e-002

1.16473358646846e+004,-1.46751124780226e+001,-8.93711819711189e-002

1.18099266142953e+004,-1.46751125732401e+001,-9.06187536922753e-002

1.19747870461893e+004,-1.46751126711343e+001,-9.18837407178301e-002

1.21419488439505e+004,-1.46751127717804e+001,-9.31663861495634e-002

1.23114441334492e+004,-1.46751128752560e+001,-9.44669364827253e-002

1.24833054890161e+004,-1.46751129816403e+001,-9.57856416553489e-002

1.26575659397028e+004,-1.46751130910152e+001,-9.71227550903929e-002

1.28342589756290e+004,-1.46751132034648e+001,-9.84785337514841e-002

1.30134185544193e+004,-1.46751133190754e+001,-9.98532381874611e-002

1.31950791077289e+004,-1.46751134379361e+001,-1.01247132583619e-001

1.33792755478611e+004,-1.46751135601380e+001,-1.02660484813606e-001

1.35660432744767e+004,-1.46751136857749e+001,-1.04093566491772e-001

1.37554181813974e+004,-1.46751138149438e+001,-1.05546653018877e-001

1.39474366635040e+004,-1.46751139477438e+001,-1.07020023643588e-001

1.41421356237309e+004,-1.46751140842767e+001,-1.08513961513037e-001

1.43395524801583e+004,-1.46751142246476e+001,-1.10028753723178e-001

1.45397251732031e+004,-1.46751143689644e+001,-1.11564691380173e-001

1.47426921729110e+004,-1.46751145173379e+001,-1.13122069651601e-001

1.49484924863494e+004,-1.46751146698825e+001,-1.14701187824312e-001

1.51571656651040e+004,-1.46751148267149e+001,-1.16302349365619e-001

1.53687518128801e+004,-1.46751149879560e+001,-1.17925861975585e-001

1.55832915932100e+004,-1.46751151537295e+001,-1.19572037651618e-001

1.58008262372675e+004,-1.46751153241629e+001,-1.21241192742584e-001

1.60213975517924e+004,-1.46751154993870e+001,-1.22933648016958e-001

1.62450479271247e+004,-1.46751156795367e+001,-1.24649728716121e-001

1.64718203453514e+004,-1.46751158647504e+001,-1.26389764622859e-001

1.67017583885674e+004,-1.46751160551703e+001,-1.28154090125058e-001

1.69349062472505e+004,-1.46751162509426e+001,-1.29943044274383e-001

1.71713087287550e+004,-1.46751164522180e+001,-1.31756970856206e-001

1.74110112659224e+004,-1.46751166591510e+001,-1.33596218454987e-001

1.76540599258131e+004,-1.46751168719005e+001,-1.35461140519480e-001

1.79005014185594e+004,-1.46751170906303e+001,-1.37352095430442e-001

1.81503831063432e+004,-1.46751173155082e+001,-1.39269446572679e-001

1.84037530124975e+004,-1.46751175467072e+001,-1.41213562401632e-001

1.86606598307361e+004,-1.46751177844045e+001,-1.43184816516971e-001

1.89211529345119e+004,-1.46751180287832e+001,-1.45183587729836e-001

1.91852823865052e+004,-1.46751182800309e+001,-1.47210260140052e-001

1.94530989482457e+004,-1.46751185383406e+001,-1.49265223207689e-001

1.97246540898671e+004,-1.46751188039107e+001,-1.51348871829715e-001

1.99999999999999e+004,-1.46751190769451e+001,-1.53461606413696e-001

2.02791895958005e+004,-1.46751193576539e+001,-1.55603832953577e-001

2.05622765331213e+004,-1.46751196462526e+001,-1.57775963112049e-001

2.08493152168224e+004,-1.46751199429630e+001,-1.59978414295679e-001

2.11403608112276e+004,-1.46751202480127e+001,-1.62211609738480e-001

2.14354692507258e+004,-1.46751205616364e+001,-1.64475978578516e-001

2.17346972505211e+004,-1.46751208840748e+001,-1.66771955944771e-001

2.20381023175322e+004,-1.46751212155757e+001,-1.69099983037994e-001

2.23457427614443e+004,-1.46751215563936e+001,-1.71460507216521e-001

2.26576777059159e+004,-1.46751219067905e+001,-1.73853982081667e-001

2.29739670999406e+004,-1.46751222670354e+001,-1.76280867565905e-001

2.32946717293690e+004,-1.46751226374050e+001,-1.78741630019043e-001

2.36198532285905e+004,-1.46751230181838e+001,-1.81236742299788e-001

2.39495740923785e+004,-1.46751234096642e+001,-1.83766683866356e-001

2.42838976879009e+004,-1.46751238121469e+001,-1.86331940866932e-001

2.46228882668982e+004,-1.46751242259409e+001,-1.88933006234389e-001

2.49666109780322e+004,-1.46751246513642e+001,-1.91570379779025e-001

2.53151318794055e+004,-1.46751250887433e+001,-1.94244568288940e-001

2.56685179512580e+004,-1.46751255384143e+001,-1.96956085621201e-001

2.60268371088386e+004,-1.46751260007222e+001,-1.99705452805984e-001

2.63901582154578e+004,-1.46751264760223e+001,-2.02493198141792e-001

2.67585510957221e+004,-1.46751269646792e+001,-2.05319857302233e-001

2.71320865489533e+004,-1.46751274670685e+001,-2.08185973431823e-001

2.75108363627948e+004,-1.46751279835757e+001,-2.11092097258003e-001

2.78948733270080e+004,-1.46751285145974e+001,-2.14038787190275e-001

2.82842712474618e+004,-1.46751290605413e+001,-2.17026609431644e-001

2.86791049603164e+004,-1.46751296218266e+001,-2.20056138084262e-001

2.90794503464061e+004,-1.46751301988841e+001,-2.23127955262222e-001

2.94853843458219e+004,-1.46751307921569e+001,-2.26242651200933e-001

2.98969849726987e+004,-1.46751314021003e+001,-2.29400824372631e-001

3.03143313302078e+004,-1.46751320291825e+001,-2.32603081598196e-001

3.07375036257601e+004,-1.46751326738848e+001,-2.35850038167639e-001

3.11665831864199e+004,-1.46751333367019e+001,-2.39142317953607e-001

3.16016524745350e+004,-1.46751340181430e+001,-2.42480553532804e-001

3.20427951035848e+004,-1.46751347187305e+001,-2.45865386311420e-001

3.24900958542493e+004,-1.46751354390024e+001,-2.49297466639328e-001

3.29436406907028e+004,-1.46751361795113e+001,-2.52777453943797e-001

3.34035167771346e+004,-1.46751369408253e+001,-2.56306016851082e-001

3.38698124945009e+004,-1.46751377235286e+001,-2.59883833314224e-001

3.43426174575100e+004,-1.46751385282221e+001,-2.63511590744628e-001

3.48220225318448e+004,-1.46751393555228e+001,-2.67189986145310e-001

3.53081198516260e+004,-1.46751402060653e+001,-2.70919726241907e-001

3.58010028371187e+004,-1.46751410805025e+001,-2.74701527617715e-001

3.63007662126863e+004,-1.46751419795047e+001,-2.78536116854898e-001

3.68075060249948e+004,-1.46751429037619e+001,-2.82424230668289e-001

3.73213196614721e+004,-1.46751438539826e+001,-2.86366616052080e-001

3.78423058690237e+004,-1.46751448308959e+001,-2.90364030418949e-001

3.83705647730104e+004,-1.46751458352506e+001,-2.94417241747265e-001

3.89061978964912e+004,-1.46751468678172e+001,-2.98527028727050e-001

3.94493081797342e+004,-1.46751479293872e+001,-3.02694180909959e-001

3.99999999999998e+004,-1.46751490207747e+001,-3.06919498860376e-001

4.05583791916010e+004,-1.46751501428163e+001,-3.11203794308669e-001

4.11245530662425e+004,-1.46751512963725e+001,-3.15547890305066e-001

4.16986304336447e+004,-1.46751524823270e+001,-3.19952621382509e-001

4.22807216224550e+004,-1.46751537015891e+001,-3.24418833709653e-001

4.28709385014515e+004,-1.46751549550934e+001,-3.28947385256275e-001

4.34693945010421e+004,-1.46751562438002e+001,-3.33539145958812e-001

4.40762046350642e+004,-1.46751575686973e+001,-3.38194997883701e-001

4.46914855228886e+004,-1.46751589307996e+001,-3.42915835399854e-001

4.53153554118317e+004,-1.46751603311509e+001,-3.47702565345756e-001

4.59479341998812e+004,-1.46751617708238e+001,-3.52556107206931e-001

4.65893434587380e+004,-1.46751632509211e+001,-3.57477393288306e-001

4.72397064571810e+004,-1.46751647725763e+001,-3.62467368896659e-001

4.78991481847569e+004,-1.46751663369550e+001,-3.67526992515400e-001

4.85677953758016e+004,-1.46751679452550e+001,-3.72657235995747e-001

4.92457765337964e+004,-1.46751695987075e+001,-3.77859084736873e-001

4.99332219560642e+004,-1.46751712985786e+001,-3.83133537875129e-001

5.06302637588109e+004,-1.46751730461695e+001,-3.88481608476394e-001

5.13370359025159e+004,-1.46751748428177e+001,-3.93904323729216e-001

5.20536742176771e+004,-1.46751766898982e+001,-3.99402725141421e-001

5.27803164309155e+004,-1.46751785888244e+001,-4.04977868739508e-001

5.35171021914442e+004,-1.46751805410492e+001,-4.10630825267846e-001

5.42641730979066e+004,-1.46751825480660e+001,-4.16362680397739e-001

5.50216727255895e+004,-1.46751846114099e+001,-4.22174534930025e-001

5.57897466540159e+004,-1.46751867326590e+001,-4.28067505008823e-001

5.65685424949235e+004,-1.46751889134353e+001,-4.34042722332815e-001

5.73582099206328e+004,-1.46751911554061e+001,-4.40101334373167e-001

5.81589006928121e+004,-1.46751934602854e+001,-4.46244504589127e-001

5.89707686916437e+004,-1.46751958298347e+001,-4.52473412653644e-001

5.97939699453972e+004,-1.46751982658648e+001,-4.58789254677717e-001

6.06286626604156e+004,-1.46752007702369e+001,-4.65193243436959e-001

6.14750072515201e+004,-1.46752033448644e+001,-4.71686608603081e-001

6.23331663728396e+004,-1.46752059917136e+001,-4.78270596980459e-001

6.32033049490698e+004,-1.46752087128059e+001,-4.84946472742121e-001

6.40855902071694e+004,-1.46752115102187e+001,-4.91715517671901e-001

6.49801917084985e+004,-1.46752143860876e+001,-4.98579031405912e-001

6.58872813814055e+004,-1.46752173426074e+001,-5.05538331684991e-001

6.68070335542691e+004,-1.46752203820341e+001,-5.12594754600302e-001

6.77396249890018e+004,-1.46752235066867e+001,-5.19749654851413e-001

6.86852349150199e+004,-1.46752267189482e+001,-5.27004406004025e-001

6.96440450636895e+004,-1.46752300212682e+001,-5.34360400749169e-001

7.06162397032520e+004,-1.46752334161644e+001,-5.41819051170562e-001

7.16020056742374e+004,-1.46752369062243e+001,-5.49381789011603e-001

7.26015324253724e+004,-1.46752404941077e+001,-5.57050065948204e-001

7.36150120499896e+004,-1.46752441825477e+001,-5.64825353865534e-001

7.46426393229441e+004,-1.46752479743537e+001,-5.72709145136284e-001

7.56846117380472e+004,-1.46752518724131e+001,-5.80702952905537e-001

7.67411295460207e+004,-1.46752558796929e+001,-5.88808311378057e-001

7.78123957929823e+004,-1.46752599992431e+001,-5.97026776108573e-001

7.88986163594682e+004,-1.46752642341977e+001,-6.05359924298226e-001

7.99999999999995e+004,-1.46752685877778e+001,-6.13809355092380e-001

8.11167583832018e+004,-1.46752730632938e+001,-6.22376689886434e-001

8.22491061324848e+004,-1.46752776641476e+001,-6.31063572630622e-001

8.33972608672892e+004,-1.46752823938352e+001,-6.39871670143480e-001

8.45614432449099e+004,-1.46752872559498e+001,-6.48802672426019e-001

8.57418770029029e+004,-1.46752922541831e+001,-6.57858292984476e-001

8.69387890020841e+004,-1.46752973923298e+001,-6.67040269151424e-001

8.81524092701283e+004,-1.46753026742887e+001,-6.76350362417113e-001

8.93829710457770e+004,-1.46753081040667e+001,-6.85790358761430e-001

9.06307108236633e+004,-1.46753136857811e+001,-6.95362068992563e-001

9.18958683997622e+004,-1.46753194236628e+001,-7.05067329087719e-001

9.31786869174758e+004,-1.46753253220594e+001,-7.14908000541888e-001

9.44794129143618e+004,-1.46753313854383e+001,-7.24885970718407e-001

9.57982963695136e+004,-1.46753376183899e+001,-7.35003153204396e-001

9.71355907516031e+004,-1.46753440256309e+001,-7.45261488173484e-001

9.84915530675926e+004,-1.46753506120078e+001,-7.55662942750601e-001

9.98664439121282e+004,-1.46753573825004e+001,-7.66209511382671e-001

1.01260527517622e+005,-1.46753643422251e+001,-7.76903216215242e-001

1.02674071805032e+005,-1.46753714964390e+001,-7.87746107471729e-001

1.04107348435354e+005,-1.46753788505434e+001,-7.98740263840070e-001

1.05560632861831e+005,-1.46753864100876e+001,-8.09887792864032e-001

1.07034204382888e+005,-1.46753941807730e+001,-8.21190831338077e-001

1.08528346195813e+005,-1.46754021684569e+001,-8.32651545710116e-001

1.10043345451179e+005,-1.46754103791571e+001,-8.44272132487989e-001

1.11579493308032e+005,-1.46754188190560e+001,-8.56054818648866e-001

1.13137084989847e+005,-1.46754274945045e+001,-8.68001862061617e-001

1.14716419841265e+005,-1.46754364120271e+001,-8.80115551905367e-001

1.16317801385624e+005,-1.46754455783260e+001,-8.92398209100743e-001

1.17941537383287e+005,-1.46754550002862e+001,-9.04852186743579e-001

1.19587939890794e+005,-1.46754646849802e+001,-9.17479870543080e-001

1.21257325320831e+005,-1.46754746396725e+001,-9.30283679271097e-001

1.22950014503040e+005,-1.46754848718253e+001,-9.43266065209382e-001

1.24666332745679e+005,-1.46754953891032e+001,-9.56429514611539e-001

1.26406609898139e+005,-1.46755061993788e+001,-9.69776548162096e-001

1.28171180414339e+005,-1.46755173107376e+001,-9.83309721450128e-001

1.29960383416997e+005,-1.46755287314845e+001,-9.97031625440866e-001

1.31774562762811e+005,-1.46755404701483e+001,-1.01094488696104e+000

1.33614067108538e+005,-1.46755525354883e+001,-1.02505216918423e+000

1.35479249978003e+005,-1.46755649365002e+001,-1.03935617212690e+000

1.37370469830040e+005,-1.46755776824218e+001,-1.05385963314787e+000

1.39288090127379e+005,-1.46755907827397e+001,-1.06856532745656e+000

1.41232479406504e+005,-1.46756042471950e+001,-1.08347606862637e+000

1.43204011348474e+005,-1.46756180857907e+001,-1.09859470911382e+000

1.45203064850745e+005,-1.46756323087976e+001,-1.11392414078733e+000

1.47230024099979e+005,-1.46756469267615e+001,-1.12946729546059e+000

1.49285278645888e+005,-1.46756619505100e+001,-1.14522714543135e+000

1.51369223476094e+005,-1.46756773911597e+001,-1.16120670403074e+000

1.53482259092041e+005,-1.46756932601234e+001,-1.17740902617693e+000

1.55624791585964e+005,-1.46757095691177e+001,-1.19383720893718e+000

1.57797232718936e+005,-1.46757263301704e+001,-1.21049439209401e+000

1.59999999999999e+005,-1.46757435556281e+001,-1.22738375872451e+000

1.62233516766403e+005,-1.46757612581646e+001,-1.24450853578049e+000

1.64498212264969e+005,-1.46757794507887e+001,-1.26187199467839e+000

1.66794521734578e+005,-1.46757981468523e+001,-1.27947745190050e+000

1.69122886489819e+005,-1.46758173600589e+001,-1.29732826959549e+000

1.71483754005805e+005,-1.46758371044726e+001,-1.31542785619379e+000

1.73877578004168e+005,-1.46758573945262e+001,-1.33377966702815e+000

1.76304818540256e+005,-1.46758782450304e+001,-1.35238720495977e+000

1.78765942091554e+005,-1.46758996711832e+001,-1.37125402101552e+000

1.81261421647326e+005,-1.46759216885787e+001,-1.39038371503073e+000

1.83791736799524e+005,-1.46759443132169e+001,-1.40977993630102e+000

1.86357373834951e+005,-1.46759675615131e+001,-1.42944638424244e+000

1.88958825828723e+005,-1.46759914503079e+001,-1.44938680905746e+000

1.91596592739027e+005,-1.46760159968770e+001,-1.46960501241285e+000

1.94271181503206e+005,-1.46760412189416e+001,-1.49010484812158e+000

1.96983106135185e+005,-1.46760671346784e+001,-1.51089022283661e+000

1.99732887824256e+005,-1.46760937627303e+001,-1.53196509675138e+000

2.02521055035243e+005,-1.46761211222172e+001,-1.55333348430750e+000

2.05348143610063e+005,-1.46761492327467e+001,-1.57499945491449e+000

2.08214696870707e+005,-1.46761781144249e+001,-1.59696713367577e+000

2.11121265723661e+005,-1.46762077878684e+001,-1.61924070212178e+000

2.14068408765776e+005,-1.46762382742146e+001,-1.64182439895647e+000

2.17056692391625e+005,-1.46762695951339e+001,-1.66472252080847e+000

2.20086690902357e+005,-1.46763017728414e+001,-1.68793942299255e+000

2.23158986616063e+005,-1.46763348301085e+001,-1.71147952028142e+000

2.26274169979693e+005,-1.46763687902751e+001,-1.73534728768462e+000

2.29432839682530e+005,-1.46764036772614e+001,-1.75954726123847e+000

2.32635602771247e+005,-1.46764395155808e+001,-1.78408403880356e+000

2.35883074766574e+005,-1.46764763303520e+001,-1.80896228087255e+000

2.39175879781588e+005,-1.46765141473113e+001,-1.83418671138834e+000

2.42514650641661e+005,-1.46765529928262e+001,-1.85976211856918e+000

2.45900029006080e+005,-1.46765928939071e+001,-1.88569335574696e+000

2.49332665491357e+005,-1.46766338782212e+001,-1.91198534221194e+000

2.52813219796278e+005,-1.46766759741050e+001,-1.93864306406988e+000

2.56342360828676e+005,-1.46767192105777e+001,-1.96567157510659e+000

2.59920766833993e+005,-1.46767636173545e+001,-1.99307599766552e+000

2.63549125525621e+005,-1.46768092248597e+001,-2.02086152353314e+000

2.67228134217075e+005,-1.46768560642402e+001,-2.04903341483554e+000

2.70958499956006e+005,-1.46769041673790e+001,-2.07759700494566e+000

2.74740939660078e+005,-1.46769535669088e+001,-2.10655769939898e+000

2.78576180254757e+005,-1.46770042962251e+001,-2.13592097682407e+000

2.82464958813007e+005,-1.46770563895003e+001,-2.16569238987876e+000

2.86408022696948e+005,-1.46771098816969e+001,-2.19587756620127e+000

2.90406129701488e+005,-1.46771648085811e+001,-2.22648220936963e+000

2.94460048199957e+005,-1.46772212067360e+001,-2.25751209987427e+000

2.98570557291775e+005,-1.46772791135760e+001,-2.28897309609914e+000

3.02738446952187e+005,-1.46773385673588e+001,-2.32087113531838e+000

3.06964518184081e+005,-1.46773996071999e+001,-2.35321223470032e+000

3.11249583171928e+005,-1.46774622730851e+001,-2.38600249232473e+000

3.15594465437872e+005,-1.46775266058838e+001,-2.41924808821355e+000

3.19999999999997e+005,-1.46775926473617e+001,-2.45295528537215e+000

3.24467033532806e+005,-1.46776604401938e+001,-2.48713043084143e+000

3.28996424529938e+005,-1.46777300279766e+001,-2.52177995676558e+000

3.33589043469155e+005,-1.46778014552406e+001,-2.55691038147047e+000

3.38245772979638e+005,-1.46778747674622e+001,-2.59252831055453e+000

3.42967508011610e+005,-1.46779500110755e+001,-2.62864043799427e+000

3.47755156008335e+005,-1.46780272334836e+001,-2.66525354726157e+000

3.52609637080511e+005,-1.46781064830700e+001,-2.70237451245530e+000

3.57531884183106e+005,-1.46781878092087e+001,-2.74001029944720e+000

3.62522843294651e+005,-1.46782712622750e+001,-2.77816796704049e+000

3.67583473599047e+005,-1.46783568936551e+001,-2.81685466814429e+000

3.72714747669902e+005,-1.46784447557553e+001,-2.85607765096152e+000

3.77917651657445e+005,-1.46785349020113e+001,-2.89584426019269e+000

3.83193185478053e+005,-1.46786273868960e+001,-2.93616193825468e+000

3.88542363006410e+005,-1.46787222659271e+001,-2.97703822651544e+000

3.93966212270369e+005,-1.46788195956748e+001,-3.01848076654358e+000

3.99465775648511e+005,-1.46789194337674e+001,-3.06049730137729e+000

4.05042110070485e+005,-1.46790218388975e+001,-3.10309567680620e+000

4.10696287220124e+005,-1.46791268708264e+001,-3.14628384267423e+000

4.16429393741414e+005,-1.46792345903888e+001,-3.19006985419811e+000

4.22242531447321e+005,-1.46793450594956e+001,-3.23446187330481e+000

4.28136817531551e+005,-1.46794583411365e+001,-3.27946816998755e+000

4.34113384783250e+005,-1.46795744993815e+001,-3.32509712368178e+000

4.40173381804713e+005,-1.46796935993811e+001,-3.37135722466096e+000

4.46317973232124e+005,-1.46798157073662e+001,-3.41825707545160e+000

4.52548339959385e+005,-1.46799408906464e+001,-3.46580539227147e+000

4.58865679365059e+005,-1.46800692176074e+001,-3.51401100648769e+000

4.65271205542494e+005,-1.46802007577073e+001,-3.56288286609963e+000

4.71766149533147e+005,-1.46803355814714e+001,-3.61243003724249e+000

4.78351759563174e+005,-1.46804737604866e+001,-3.66266170571622e+000

4.85029301283321e+005,-1.46806153673938e+001,-3.71358717853986e+000

4.91800058012158e+005,-1.46807604758791e+001,-3.76521588553025e+000

4.98665330982714e+005,-1.46809091606643e+001,-3.81755738090825e+000

5.05626439592555e+005,-1.46810614974954e+001,-3.87062134493070e+000

5.12684721657352e+005,-1.46812175631302e+001,-3.92441758555357e+000

5.19841533667984e+005,-1.46813774353244e+001,-3.97895604012127e+000

5.27098251051240e+005,-1.46815411928159e+001,-4.03424677708928e+000

5.34456268434150e+005,-1.46817089153086e+001,-4.09029999777557e+000

5.41916999912011e+005,-1.46818806834540e+001,-4.14712603814566e+000

