Freq.,VOut,OutRef

1.00000000000000e+004,-3.91940961675711e+001,-2.46732846111682e-001

1.01395947979003e+004,-3.91940971662129e+001,-2.50177093220538e-001

1.02811382665607e+004,-3.91940981929300e+001,-2.53669419586082e-001

1.04246576084112e+004,-3.91940992485115e+001,-2.57210496344386e-001

1.05701804056138e+004,-3.91941003337690e+001,-2.60801003996374e-001

1.07177346253629e+004,-3.91941014495366e+001,-2.64441632542939e-001

1.08673486252606e+004,-3.91941025966720e+001,-2.68133081614451e-001

1.10190511587661e+004,-3.91941037760572e+001,-2.71876060606273e-001

1.11728713807222e+004,-3.91941049885989e+001,-2.75671288815804e-001

1.13288388529580e+004,-3.91941062352290e+001,-2.79519495581430e-001

1.14869835499703e+004,-3.91941075169059e+001,-2.83421420418761e-001

1.16473358646846e+004,-3.91941088346148e+001,-2.87377813166459e-001

1.18099266142953e+004,-3.91941101893687e+001,-2.91389434129230e-001

1.19747870461893e+004,-3.91941115822092e+001,-2.95457054221908e-001

1.21419488439505e+004,-3.91941130142066e+001,-2.99581455121713e-001

1.23114441334492e+004,-3.91941144864621e+001,-3.03763429412939e-001

1.24833054890161e+004,-3.91941160001073e+001,-3.08003780744226e-001

1.26575659397028e+004,-3.91941175563058e+001,-3.12303323980283e-001

1.28342589756290e+004,-3.91941191562537e+001,-3.16662885358330e-001

1.30134185544193e+004,-3.91941208011811e+001,-3.21083302647936e-001

1.31950791077289e+004,-3.91941224923525e+001,-3.25565425309779e-001

1.33792755478611e+004,-3.91941242310677e+001,-3.30110114662239e-001

1.35660432744767e+004,-3.91941260186634e+001,-3.34718244044210e-001

1.37554181813974e+004,-3.91941278565138e+001,-3.39390698981868e-001

1.39474366635040e+004,-3.91941297460316e+001,-3.44128377361977e-001

1.41421356237309e+004,-3.91941316886691e+001,-3.48932189602812e-001

1.43395524801583e+004,-3.91941336859200e+001,-3.53803058826685e-001

1.45397251732031e+004,-3.91941357393192e+001,-3.58741921041438e-001

1.47426921729110e+004,-3.91941378504453e+001,-3.63749725316867e-001

1.49484924863494e+004,-3.91941400209210e+001,-3.68827433967668e-001

1.51571656651040e+004,-3.91941422524150e+001,-3.73976022738862e-001

1.53687518128801e+004,-3.91941445466425e+001,-3.79196480993585e-001

1.55832915932100e+004,-3.91941469053669e+001,-3.84489811901317e-001

1.58008262372675e+004,-3.91941493304014e+001,-3.89857032631927e-001

1.60213975517924e+004,-3.91941518236101e+001,-3.95299174550547e-001

1.62450479271247e+004,-3.91941543869094e+001,-4.00817283415080e-001

1.64718203453514e+004,-3.91941570222697e+001,-4.06412419577024e-001

1.67017583885674e+004,-3.91941597317168e+001,-4.12085658185683e-001

1.69349062472505e+004,-3.91941625173334e+001,-4.17838089394035e-001

1.71713087287550e+004,-3.91941653812605e+001,-4.23670818568641e-001

1.74110112659224e+004,-3.91941683256997e+001,-4.29584966499694e-001

1.76540599258131e+004,-3.91941713529141e+001,-4.35581669620729e-001

1.79005014185594e+004,-3.91941744652308e+001,-4.41662080219445e-001

1.81503831063432e+004,-3.91941776650420e+001,-4.47827366666675e-001

1.84037530124975e+004,-3.91941809548071e+001,-4.54078713635053e-001

1.86606598307361e+004,-3.91941843370550e+001,-4.60417322329189e-001

1.89211529345119e+004,-3.91941878143854e+001,-4.66844410714612e-001

1.91852823865052e+004,-3.91941913894710e+001,-4.73361213752374e-001

1.94530989482457e+004,-3.91941950650599e+001,-4.79968983635908e-001

1.97246540898671e+004,-3.91941988439771e+001,-4.86668990031461e-001

1.99999999999999e+004,-3.91942027291274e+001,-4.93462520320122e-001

2.02791895958005e+004,-3.91942067234967e+001,-5.00350879848033e-001

2.05622765331213e+004,-3.91942108301557e+001,-5.07335392171565e-001

2.08493152168224e+004,-3.91942150522603e+001,-5.14417399318270e-001

2.11403608112276e+004,-3.91942193930559e+001,-5.21598262037719e-001

2.14354692507258e+004,-3.91942238558788e+001,-5.28879360066698e-001

2.17346972505211e+004,-3.91942284441593e+001,-5.36262092391004e-001

2.20381023175322e+004,-3.91942331614239e+001,-5.43747877515943e-001

2.23457427614443e+004,-3.91942380112981e+001,-5.51338153738047e-001

2.26576777059159e+004,-3.91942429975096e+001,-5.59034379419182e-001

2.29739670999406e+004,-3.91942481238907e+001,-5.66838033268342e-001

2.32946717293690e+004,-3.91942533943814e+001,-5.74750614623571e-001

2.36198532285905e+004,-3.91942588130325e+001,-5.82773643740100e-001

2.39495740923785e+004,-3.91942643840085e+001,-5.90908662081821e-001

2.42838976879009e+004,-3.91942701115911e+001,-5.99157232617227e-001

2.46228882668982e+004,-3.91942760001824e+001,-6.07520940117071e-001

2.49666109780322e+004,-3.91942820543078e+001,-6.16001391461280e-001

2.53151318794055e+004,-3.91942882786203e+001,-6.24600215943565e-001

2.56685179512580e+004,-3.91942946779035e+001,-6.33319065586418e-001

2.60268371088386e+004,-3.91943012570754e+001,-6.42159615455393e-001

2.63901582154578e+004,-3.91943080211924e+001,-6.51123563981648e-001

2.67585510957221e+004,-3.91943149754527e+001,-6.60212633287194e-001

2.71320865489533e+004,-3.91943221252006e+001,-6.69428569514837e-001

2.75108363627948e+004,-3.91943294759309e+001,-6.78773143160321e-001

2.78948733270080e+004,-3.91943370332925e+001,-6.88248149415715e-001

2.82842712474618e+004,-3.91943448030932e+001,-6.97855408509505e-001

2.86791049603164e+004,-3.91943527913037e+001,-7.07596766057335e-001

2.90794503464061e+004,-3.91943610040629e+001,-7.17474093414193e-001

2.94853843458219e+004,-3.91943694476819e+001,-7.27489288033659e-001

2.98969849726987e+004,-3.91943781286491e+001,-7.37644273830659e-001

3.03143313302078e+004,-3.91943870536356e+001,-7.47941001548565e-001

3.07375036257601e+004,-3.91943962294995e+001,-7.58381449135634e-001

3.11665831864199e+004,-3.91944056632916e+001,-7.68967622120884e-001

3.16016524745350e+004,-3.91944153622613e+001,-7.79701553998479e-001

3.20427951035848e+004,-3.91944253338611e+001,-7.90585306616604e-001

3.24900958542493e+004,-3.91944355857531e+001,-8.01620970573961e-001

3.29436406907028e+004,-3.91944461258147e+001,-8.12810665616222e-001

3.34035167771346e+004,-3.91944569621447e+001,-8.24156541043967e-001

3.38698124945009e+004,-3.91944681030691e+001,-8.35660776123483e-001

3.43426174575100e+004,-3.91944795571482e+001,-8.47325580502276e-001

3.48220225318448e+004,-3.91944913331825e+001,-8.59153194632664e-001

3.53081198516260e+004,-3.91945034402199e+001,-8.71145890198648e-001

3.58010028371187e+004,-3.91945158875622e+001,-8.83305970552285e-001

3.63007662126863e+004,-3.91945286847729e+001,-8.95635771151980e-001

3.68075060249948e+004,-3.91945418416837e+001,-9.08137660009035e-001

3.73213196614721e+004,-3.91945553684029e+001,-9.20814038140576e-001

3.78423058690237e+004,-3.91945692753224e+001,-9.33667340027794e-001

3.83705647730104e+004,-3.91945835731261e+001,-9.46700034080870e-001

3.89061978964912e+004,-3.91945982727978e+001,-9.59914623110839e-001

3.94493081797342e+004,-3.91946133856304e+001,-9.73313644805229e-001

3.99999999999998e+004,-3.91946289232332e+001,-9.86899672215698e-001

4.05583791916010e+004,-3.91946448975420e+001,-1.00067531424697e+000

4.11245530662425e+004,-3.91946613208277e+001,-1.01464321615375e+000

4.16986304336447e+004,-3.91946782057057e+001,-1.02880606004821e+000

4.22807216224550e+004,-3.91946955651459e+001,-1.04316656540858e+000

4.28709385014515e+004,-3.91947134124822e+001,-1.05772748959876e+000

4.34693945010421e+004,-3.91947317614232e+001,-1.07249162839434e+000

4.40762046350642e+004,-3.91947506260620e+001,-1.08746181651593e+000

4.46914855228886e+004,-3.91947700208879e+001,-1.10264092816666e+000

4.53153554118317e+004,-3.91947899607966e+001,-1.11803187758218e+000

4.59479341998812e+004,-3.91948104611023e+001,-1.13363761958556e+000

4.65893434587380e+004,-3.91948315375490e+001,-1.14946115014796e+000

4.72397064571810e+004,-3.91948532063229e+001,-1.16550550696128e+000

4.78991481847569e+004,-3.91948754840644e+001,-1.18177377001376e+000

4.85677953758016e+004,-3.91948983878812e+001,-1.19826906217825e+000

4.92457765337964e+004,-3.91949219353610e+001,-1.21499454980405e+000

4.99332219560642e+004,-3.91949461445855e+001,-1.23195344332065e+000

5.06302637588109e+004,-3.91949710341437e+001,-1.24914899784681e+000

5.13370359025159e+004,-3.91949966231464e+001,-1.26658451380922e+000

5.20536742176771e+004,-3.91950229312409e+001,-1.28426333756962e+000

5.27803164309155e+004,-3.91950499786256e+001,-1.30218886206063e+000

5.35171021914442e+004,-3.91950777860662e+001,-1.32036452742841e+000

5.42641730979066e+004,-3.91951063749107e+001,-1.33879382168680e+000

5.50216727255895e+004,-3.91951357671062e+001,-1.35748028137902e+000

5.57897466540159e+004,-3.91951659852159e+001,-1.37642749224724e+000

5.65685424949235e+004,-3.91951970524359e+001,-1.39563908991219e+000

5.73582099206328e+004,-3.91952289926130e+001,-1.41511876056294e+000

5.81589006928121e+004,-3.91952618302631e+001,-1.43487024165550e+000

5.89707686916437e+004,-3.91952955905900e+001,-1.45489732261765e+000

5.97939699453972e+004,-3.91953302995041e+001,-1.47520384556963e+000

6.06286626604156e+004,-3.91953659836429e+001,-1.49579370604798e+000

6.14750072515201e+004,-3.91954026703909e+001,-1.51667085374367e+000

6.23331663728396e+004,-3.91954403879008e+001,-1.53783929324786e+000

6.32033049490698e+004,-3.91954791651144e+001,-1.55930308480894e+000

6.40855902071694e+004,-3.91955190317856e+001,-1.58106634509792e+000

6.49801917084985e+004,-3.91955600185022e+001,-1.60313324798682e+000

6.58872813814055e+004,-3.91956021567097e+001,-1.62550802533445e+000

6.68070335542691e+004,-3.91956454787354e+001,-1.64819496778508e+000

6.77396249890018e+004,-3.91956900178125e+001,-1.67119842557689e+000

6.86852349150199e+004,-3.91957358081061e+001,-1.69452280936033e+000

6.96440450636895e+004,-3.91957828847388e+001,-1.71817259102856e+000

7.06162397032520e+004,-3.91958312838174e+001,-1.74215230455894e+000

7.16020056742374e+004,-3.91958810424608e+001,-1.76646654686433e+000

7.26015324253724e+004,-3.91959321988279e+001,-1.79111997865812e+000

7.36150120499896e+004,-3.91959847921469e+001,-1.81611732532713e+000

7.46426393229441e+004,-3.91960388627447e+001,-1.84146337782049e+000

7.56846117380472e+004,-3.91960944520785e+001,-1.86716299354523e+000

7.67411295460207e+004,-3.91961516027661e+001,-1.89322109727859e+000

7.78123957929823e+004,-3.91962103586194e+001,-1.91964268208861e+000

7.88986163594682e+004,-3.91962707646770e+001,-1.94643281026904e+000

7.99999999999995e+004,-3.91963328672390e+001,-1.97359661428429e+000

8.11167583832018e+004,-3.91963967139013e+001,-2.00113929773051e+000

8.22491061324848e+004,-3.91964623535928e+001,-2.02906613630374e+000

8.33972608672892e+004,-3.91965298366119e+001,-2.05738247878609e+000

8.45614432449099e+004,-3.91965992146646e+001,-2.08609374804190e+000

8.57418770029029e+004,-3.91966705409041e+001,-2.11520544202582e+000

8.69387890020841e+004,-3.91967438699710e+001,-2.14472313480700e+000

8.81524092701283e+004,-3.91968192580344e+001,-2.17465247760469e+000

8.93829710457770e+004,-3.91968967628350e+001,-2.20499919983637e+000

9.06307108236633e+004,-3.91969764437285e+001,-2.23576911018100e+000

9.18958683997622e+004,-3.91970583617302e+001,-2.26696809765558e+000

9.31786869174758e+004,-3.91971425795620e+001,-2.29860213270460e+000

9.44794129143618e+004,-3.91972291616993e+001,-2.33067726830399e+000

9.57982963695136e+004,-3.91973181744197e+001,-2.36319964107864e+000

9.71355907516031e+004,-3.91974096858533e+001,-2.39617547243574e+000

9.84915530675926e+004,-3.91975037660342e+001,-2.42961106971024e+000

9.98664439121282e+004,-3.91976004869532e+001,-2.46351282732502e+000

1.01260527517622e+005,-3.91976999226122e+001,-2.49788722796819e+000

1.02674071805032e+005,-3.91978021490800e+001,-2.53274084378152e+000

1.04107348435354e+005,-3.91979072445497e+001,-2.56808033756689e+000

1.05560632861831e+005,-3.91980152893975e+001,-2.60391246400499e+000

1.07034204382888e+005,-3.91981263662435e+001,-2.64024407089149e+000

1.08528346195813e+005,-3.91982405600134e+001,-2.67708210038739e+000

1.10043345451179e+005,-3.91983579580029e+001,-2.71443359028413e+000

1.11579493308032e+005,-3.91984786499429e+001,-2.75230567528597e+000

1.13137084989847e+005,-3.91986027280672e+001,-2.79070558830652e+000

1.14716419841265e+005,-3.91987302871814e+001,-2.82964066178159e+000

1.16317801385624e+005,-3.91988614247346e+001,-2.86911832899773e+000

1.17941537383287e+005,-3.91989962408917e+001,-2.90914612543758e+000

1.19587939890794e+005,-3.91991348386091e+001,-2.94973169014089e+000

1.21257325320831e+005,-3.91992773237115e+001,-2.99088276708071e+000

1.22950014503040e+005,-3.91994238049709e+001,-3.03260720655816e+000

1.24666332745679e+005,-3.91995743941884e+001,-3.07491296661195e+000

1.26406609898139e+005,-3.91997292062770e+001,-3.11780811444572e+000

1.28171180414339e+005,-3.91998883593483e+001,-3.16130082787043e+000

1.29960383416997e+005,-3.92000519747996e+001,-3.20539939676618e+000

1.31774562762811e+005,-3.92002201774051e+001,-3.25011222455858e+000

1.33614067108538e+005,-3.92003930954082e+001,-3.29544782971278e+000

1.35479249978003e+005,-3.92005708606175e+001,-3.34141484724548e+000

1.37370469830040e+005,-3.92007536085043e+001,-3.38802203025375e+000

1.39288090127379e+005,-3.92009414783034e+001,-3.43527825146001e+000

1.41232479406504e+005,-3.92011346131162e+001,-3.48319250477669e+000

1.43204011348474e+005,-3.92013331600168e+001,-3.53177390688551e+000

1.45203064850745e+005,-3.92015372701611e+001,-3.58103169883723e+000

1.47230024099979e+005,-3.92017470988982e+001,-3.63097524766631e+000

1.49285278645888e+005,-3.92019628058854e+001,-3.68161404802510e+000

1.51369223476094e+005,-3.92021845552060e+001,-3.73295772383513e+000

1.53482259092041e+005,-3.92024125154901e+001,-3.78501602995570e+000

1.55624791585964e+005,-3.92026468600387e+001,-3.83779885387059e+000

1.57797232718936e+005,-3.92028877669516e+001,-3.89131621739296e+000

1.59999999999999e+005,-3.92031354192575e+001,-3.94557827838756e+000

1.62233516766403e+005,-3.92033900050487e+001,-4.00059533251046e+000

1.64498212264969e+005,-3.92036517176188e+001,-4.05637781496791e+000

1.66794521734578e+005,-3.92039207556040e+001,-4.11293630229192e+000

1.69122886489819e+005,-3.92041973231286e+001,-4.17028151413309e+000

1.71483754005805e+005,-3.92044816299532e+001,-4.22842431507401e+000

1.73877578004168e+005,-3.92047738916282e+001,-4.28737571645628e+000

1.76304818540256e+005,-3.92050743296502e+001,-4.34714687822954e+000

1.78765942091554e+005,-3.92053831716233e+001,-4.40774911081500e+000

1.81261421647326e+005,-3.92057006514234e+001,-4.46919387698796e+000

1.83791736799524e+005,-3.92060270093685e+001,-4.53149279377803e+000

1.86357373834951e+005,-3.92063624923917e+001,-4.59465763438547e+000

1.88958825828723e+005,-3.92067073542197e+001,-4.65870033011730e+000

1.91596592739027e+005,-3.92070618555555e+001,-4.72363297233742e+000

1.94271181503206e+005,-3.92074262642661e+001,-4.78946781443679e+000

1.96983106135185e+005,-3.92078008555744e+001,-4.85621727381838e+000

1.99732887824256e+005,-3.92081859122570e+001,-4.92389393390052e+000

2.02521055035243e+005,-3.92085817248455e+001,-4.99251054613536e+000

2.05348143610063e+005,-3.92089885918351e+001,-5.06208003204515e+000

2.08214696870707e+005,-3.92094068198962e+001,-5.13261548527329e+000

2.11121265723661e+005,-3.92098367240927e+001,-5.20413017365284e+000

2.14068408765776e+005,-3.92102786281060e+001,-5.27663754128905e+000

2.17056692391625e+005,-3.92107328644634e+001,-5.35015121065890e+000

2.20086690902357e+005,-3.92111997747732e+001,-5.42468498472492e+000

2.23158986616063e+005,-3.92116797099658e+001,-5.50025284906363e+000

2.26274169979693e+005,-3.92121730305398e+001,-5.57686897400963e+000

2.29432839682530e+005,-3.92126801068154e+001,-5.65454771681216e+000

2.32635602771247e+005,-3.92132013191930e+001,-5.73330362380714e+000

2.35883074766574e+005,-3.92137370584191e+001,-5.81315143260139e+000

2.39175879781588e+005,-3.92142877258581e+001,-5.89410607427035e+000

2.42514650641661e+005,-3.92148537337706e+001,-5.97618267556803e+000

2.45900029006080e+005,-3.92154355055997e+001,-6.05939656114926e+000

2.49332665491357e+005,-3.92160334762625e+001,-6.14376325580338e+000

2.52813219796278e+005,-3.92166480924499e+001,-6.22929848669872e+000

2.56342360828676e+005,-3.92172798129334e+001,-6.31601818563784e+000

2.59920766833993e+005,-3.92179291088786e+001,-6.40393849132281e+000

2.63549125525621e+005,-3.92185964641673e+001,-6.49307575162852e+000

2.67228134217075e+005,-3.92192823757262e+001,-6.58344652588657e+000

2.70958499956006e+005,-3.92199873538641e+001,-6.67506758717536e+000

2.74740939660078e+005,-3.92207119226166e+001,-6.76795592461827e+000

2.78576180254757e+005,-3.92214566200990e+001,-6.86212874568835e+000

2.82464958813007e+005,-3.92222219988678e+001,-6.95760347851809e+000

2.86408022696948e+005,-3.92230086262898e+001,-7.05439777421490e+000

2.90406129701488e+005,-3.92238170849208e+001,-7.15252950918007e+000

2.94460048199957e+005,-3.92246479728919e+001,-7.25201678743117e+000

2.98570557291775e+005,-3.92255019043054e+001,-7.35287794292651e+000

3.02738446952187e+005,-3.92263795096393e+001,-7.45513154189141e+000

3.06964518184081e+005,-3.92272814361615e+001,-7.55879638514433e+000

3.11249583171928e+005,-3.92282083483523e+001,-7.66389151042221e+000

3.15594465437872e+005,-3.92291609283374e+001,-7.77043619470461e+000

3.19999999999997e+005,-3.92301398763299e+001,-7.87844995653445e+000

3.24467033532806e+005,-3.92311459110822e+001,-7.98795255833480e+000

3.28996424529938e+005,-3.92321797703481e+001,-8.09896400872079e+000

3.33589043469155e+005,-3.92332422113544e+001,-8.21150456480504e+000

3.38245772979638e+005,-3.92343340112832e+001,-8.32559473449441e+000

3.42967508011610e+005,-3.92354559677645e+001,-8.44125527877929e+000

3.47755156008335e+005,-3.92366088993792e+001,-8.55850721401132e+000

3.52609637080511e+005,-3.92377936461730e+001,-8.67737181416948e+000

3.57531884183106e+005,-3.92390110701805e+001,-8.79787061311349e+000

3.62522843294651e+005,-3.92402620559614e+001,-8.92002540682142e+000

3.67583473599047e+005,-3.92415475111465e+001,-9.04385825561244e+000

3.72714747669902e+005,-3.92428683669964e+001,-9.16939148634986e+000

3.77917651657445e+005,-3.92442255789703e+001,-9.29664769462616e+000

3.83193185478053e+005,-3.92456201273071e+001,-9.42564974692623e+000

3.88542363006410e+005,-3.92470530176180e+001,-9.55642078276732e+000

3.93966212270369e+005,-3.92485252814913e+001,-9.68898421681452e+000

3.99465775648511e+005,-3.92500379771083e+001,-9.82336374097019e+000

4.05042110070485e+005,-3.92515921898725e+001,-9.95958332643355e+000

4.10696287220124e+005,-3.92531890330497e+001,-1.00976672257310e+001

4.16429393741414e+005,-3.92548296484221e+001,-1.02376399747140e+001

4.22242531447321e+005,-3.92565152069533e+001,-1.03795263945218e+001

4.28136817531551e+005,-3.92582469094669e+001,-1.05233515935081e+001

4.34113384783250e+005,-3.92600259873377e+001,-1.06691409691293e+001

4.40173381804713e+005,-3.92618537031959e+001,-1.08169202097908e+001

4.46317973232124e+005,-3.92637313516435e+001,-1.09667152966515e+001

4.52548339959385e+005,-3.92656602599850e+001,-1.11185525053818e+001

4.58865679365059e+005,-3.92676417889708e+001,-1.12724584078744e+001

4.65271205542494e+005,-3.92696773335534e+001,-1.14284598739045e+001

4.71766149533147e+005,-3.92717683236580e+001,-1.15865840727375e+001

4.78351759563174e+005,-3.92739162249662e+001,-1.17468584746808e+001

4.85029301283321e+005,-3.92761225397135e+001,-1.19093108525789e+001

4.91800058012158e+005,-3.92783888074999e+001,-1.20739692832466e+001

4.98665330982714e+005,-3.92807166061157e+001,-1.22408621488400e+001

5.05626439592555e+005,-3.92831075523798e+001,-1.24100181381598e+001

5.12684721657352e+005,-3.92855633029934e+001,-1.25814662478881e+001

5.19841533667984e+005,-3.92880855554065e+001,-1.27552357837506e+001

5.27098251051240e+005,-3.92906760486996e+001,-1.29313563616054e+001

5.34456268434150e+005,-3.92933365644796e+001,-1.31098579084535e+001

5.41916999912011e+005,-3.92960689277893e+001,-1.32907706633672e+001

