Freq.,VOut,OutRef

1.00000000000000e+004,-3.58799497288764e+001,-1.82389625381514e-001

1.01395947979003e+004,-3.58799502808475e+001,-1.84935682590408e-001

1.02811382665607e+004,-3.58799508483364e+001,-1.87517281133131e-001

1.04246576084112e+004,-3.58799514317793e+001,-1.90134917135350e-001

1.05701804056138e+004,-3.58799520316249e+001,-1.92789093646647e-001

1.07177346253629e+004,-3.58799526483341e+001,-1.95480320741532e-001

1.08673486252606e+004,-3.58799532823810e+001,-1.98209115612235e-001

1.10190511587661e+004,-3.58799539342532e+001,-2.00976002668436e-001

1.11728713807222e+004,-3.58799546044515e+001,-2.03781513643569e-001

1.13288388529580e+004,-3.58799552934915e+001,-2.06626187689558e-001

1.14869835499703e+004,-3.58799560019027e+001,-2.09510571486144e-001

1.16473358646846e+004,-3.58799567302295e+001,-2.12435219343086e-001

1.18099266142953e+004,-3.58799574790321e+001,-2.15400693306926e-001

1.19747870461893e+004,-3.58799582488860e+001,-2.18407563269424e-001

1.21419488439505e+004,-3.58799590403828e+001,-2.21456407077913e-001

1.23114441334492e+004,-3.58799598541314e+001,-2.24547810642449e-001

1.24833054890161e+004,-3.58799606907569e+001,-2.27682368055633e-001

1.26575659397028e+004,-3.58799615509027e+001,-2.30860681697816e-001

1.28342589756290e+004,-3.58799624352299e+001,-2.34083362360258e-001

1.30134185544193e+004,-3.58799633444183e+001,-2.37351029359030e-001

1.31950791077289e+004,-3.58799642791669e+001,-2.40664310653164e-001

1.33792755478611e+004,-3.58799652401943e+001,-2.44023842967796e-001

1.35660432744767e+004,-3.58799662282390e+001,-2.47430271915648e-001

1.37554181813974e+004,-3.58799672440607e+001,-2.50884252119800e-001

1.39474366635040e+004,-3.58799682884402e+001,-2.54386447339964e-001

1.41421356237309e+004,-3.58799693621805e+001,-2.57937530600958e-001

1.43395524801583e+004,-3.58799704661069e+001,-2.61538184321282e-001

1.45397251732031e+004,-3.58799716010680e+001,-2.65189100443412e-001

1.47426921729110e+004,-3.58799727679361e+001,-2.68890980569710e-001

1.49484924863494e+004,-3.58799739676084e+001,-2.72644536092798e-001

1.51571656651040e+004,-3.58799752010069e+001,-2.76450488335131e-001

1.53687518128801e+004,-3.58799764690799e+001,-2.80309568686242e-001

1.55832915932100e+004,-3.58799777728021e+001,-2.84222518744206e-001

1.58008262372675e+004,-3.58799791131756e+001,-2.88190090458657e-001

1.60213975517924e+004,-3.58799804912306e+001,-2.92213046273087e-001

1.62450479271247e+004,-3.58799819080269e+001,-2.96292159270956e-001

1.64718203453514e+004,-3.58799833646530e+001,-3.00428213328847e-001

1.67017583885674e+004,-3.58799848622289e+001,-3.04622003260562e-001

1.69349062472505e+004,-3.58799864019057e+001,-3.08874334974441e-001

1.71713087287550e+004,-3.58799879848670e+001,-3.13186025626527e-001

1.74110112659224e+004,-3.58799896123294e+001,-3.17557903776917e-001

1.76540599258131e+004,-3.58799912855442e+001,-3.21990809549371e-001

1.79005014185594e+004,-3.58799930057972e+001,-3.26485594794435e-001

1.81503831063432e+004,-3.58799947744108e+001,-3.31043123249557e-001

1.84037530124975e+004,-3.58799965927447e+001,-3.35664270706202e-001

1.86606598307361e+004,-3.58799984621963e+001,-3.40349925180085e-001

1.89211529345119e+004,-3.58800003842029e+001,-3.45100987078496e-001

1.91852823865052e+004,-3.58800023602415e+001,-3.49918369376887e-001

1.94530989482457e+004,-3.58800043918313e+001,-3.54802997789195e-001

1.97246540898671e+004,-3.58800064805336e+001,-3.59755810951285e-001

1.99999999999999e+004,-3.58800086279541e+001,-3.64777760594788e-001

2.02791895958005e+004,-3.58800108357434e+001,-3.69869811736115e-001

2.05622765331213e+004,-3.58800131055984e+001,-3.75032942857672e-001

2.08493152168224e+004,-3.58800154392639e+001,-3.80268146096987e-001

2.11403608112276e+004,-3.58800178385334e+001,-3.85576427436982e-001

2.14354692507258e+004,-3.58800203052514e+001,-3.90958806898296e-001

2.17346972505211e+004,-3.58800228413136e+001,-3.96416318737463e-001

2.20381023175322e+004,-3.58800254486694e+001,-4.01950011642220e-001

2.23457427614443e+004,-3.58800281293228e+001,-4.07560948934533e-001

2.26576777059159e+004,-3.58800308853342e+001,-4.13250208775940e-001

2.29739670999406e+004,-3.58800337188220e+001,-4.19018884370990e-001

2.32946717293690e+004,-3.58800366319639e+001,-4.24868084179805e-001

2.36198532285905e+004,-3.58800396269990e+001,-4.30798932131194e-001

2.39495740923785e+004,-3.58800427062292e+001,-4.36812567835037e-001

2.42838976879009e+004,-3.58800458720213e+001,-4.42910146803651e-001

2.46228882668982e+004,-3.58800491268083e+001,-4.49092840674445e-001

2.49666109780322e+004,-3.58800524730919e+001,-4.55361837430872e-001

2.53151318794055e+004,-3.58800559134439e+001,-4.61718341634129e-001

2.56685179512580e+004,-3.58800594505084e+001,-4.68163574651949e-001

2.60268371088386e+004,-3.58800630870039e+001,-4.74698774894019e-001

2.63901582154578e+004,-3.58800668257253e+001,-4.81325198048761e-001

2.67585510957221e+004,-3.58800706695460e+001,-4.88044117324463e-001

2.71320865489533e+004,-3.58800746214201e+001,-4.94856823694840e-001

2.75108363627948e+004,-3.58800786843847e+001,-5.01764626143339e-001

2.78948733270080e+004,-3.58800828615624e+001,-5.08768851918654e-001

2.82842712474618e+004,-3.58800871561634e+001,-5.15870846784076e-001

2.86791049603164e+004,-3.58800915714882e+001,-5.23071975280699e-001

2.90794503464061e+004,-3.58800961109299e+001,-5.30373620985169e-001

2.94853843458219e+004,-3.58801007779774e+001,-5.37777186775982e-001

2.98969849726987e+004,-3.58801055762169e+001,-5.45284095104924e-001

3.03143313302078e+004,-3.58801105093360e+001,-5.52895788265240e-001

3.07375036257601e+004,-3.58801155811257e+001,-5.60613728672669e-001

3.11665831864199e+004,-3.58801207954834e+001,-5.68439399141928e-001

3.16016524745350e+004,-3.58801261564163e+001,-5.76374303173334e-001

3.20427951035848e+004,-3.58801316680438e+001,-5.84419965240683e-001

3.24900958542493e+004,-3.58801373346015e+001,-5.92577931082174e-001

3.29436406907028e+004,-3.58801431604436e+001,-6.00849767997401e-001

3.34035167771346e+004,-3.58801491500469e+001,-6.09237065147996e-001

3.38698124945009e+004,-3.58801553080138e+001,-6.17741433861008e-001

3.43426174575100e+004,-3.58801616390764e+001,-6.26364507938721e-001

3.48220225318448e+004,-3.58801681480991e+001,-6.35107943971340e-001

3.53081198516260e+004,-3.58801748400835e+001,-6.43973421653005e-001

3.58010028371187e+004,-3.58801817201716e+001,-6.52962644105512e-001

3.63007662126863e+004,-3.58801887936496e+001,-6.62077338203571e-001

3.68075060249948e+004,-3.58801960659525e+001,-6.71319254904076e-001

3.73213196614721e+004,-3.58802035426679e+001,-6.80690169584017e-001

3.78423058690237e+004,-3.58802112295405e+001,-6.90191882377284e-001

3.83705647730104e+004,-3.58802191324759e+001,-6.99826218522853e-001

3.89061978964912e+004,-3.58802272575461e+001,-7.09595028710152e-001

3.94493081797342e+004,-3.58802356109936e+001,-7.19500189436185e-001

3.99999999999998e+004,-3.58802441992359e+001,-7.29543603363743e-001

4.05583791916010e+004,-3.58802530288712e+001,-7.39727199684302e-001

4.11245530662425e+004,-3.58802621066826e+001,-7.50052934489688e-001

4.16986304336447e+004,-3.58802714396442e+001,-7.60522791142310e-001

4.22807216224550e+004,-3.58802810349255e+001,-7.71138780658781e-001

4.28709385014515e+004,-3.58802908998976e+001,-7.81902942091256e-001

4.34693945010421e+004,-3.58803010421388e+001,-7.92817342918373e-001

4.40762046350642e+004,-3.58803114694398e+001,-8.03884079440831e-001

4.46914855228886e+004,-3.58803221898105e+001,-8.15105277182043e-001

4.53153554118317e+004,-3.58803332114854e+001,-8.26483091293373e-001

4.59479341998812e+004,-3.58803445429304e+001,-8.38019706967317e-001

4.65893434587380e+004,-3.58803561928493e+001,-8.49717339853387e-001

4.72397064571810e+004,-3.58803681701899e+001,-8.61578236482975e-001

4.78991481847569e+004,-3.58803804841516e+001,-8.73604674697809e-001

4.85677953758016e+004,-3.58803931441920e+001,-8.85798964083376e-001

4.92457765337964e+004,-3.58804061600340e+001,-8.98163446412773e-001

4.99332219560642e+004,-3.58804195416739e+001,-9.10700496091076e-001

5.06302637588109e+004,-3.58804332993884e+001,-9.23412520609834e-001

5.13370359025159e+004,-3.58804474437427e+001,-9.36301961005937e-001

5.20536742176771e+004,-3.58804619855986e+001,-9.49371292327596e-001

5.27803164309155e+004,-3.58804769361227e+001,-9.62623024106840e-001

5.35171021914442e+004,-3.58804923067955e+001,-9.76059700835698e-001

5.42641730979066e+004,-3.58805081094192e+001,-9.89683902455000e-001

5.50216727255895e+004,-3.58805243561275e+001,-1.00349824484265e+000

5.57897466540159e+004,-3.58805410593948e+001,-1.01750538031408e+000

5.65685424949235e+004,-3.58805582320452e+001,-1.03170799812740e+000

5.73582099206328e+004,-3.58805758872632e+001,-1.04610882499424e+000

5.81589006928121e+004,-3.58805940386028e+001,-1.06071062560109e+000

5.89707686916437e+004,-3.58806126999985e+001,-1.07551620313368e+000

5.97939699453972e+004,-3.58806318857761e+001,-1.09052839981131e+000

6.06286626604156e+004,-3.58806516106628e+001,-1.10575009742758e+000

6.14750072515201e+004,-3.58806718897995e+001,-1.12118421789854e+000

6.23331663728396e+004,-3.58806927387516e+001,-1.13683372381809e+000

6.32033049490698e+004,-3.58807141735214e+001,-1.15270161902090e+000

6.40855902071694e+004,-3.58807362105596e+001,-1.16879094915445e+000

6.49801917084985e+004,-3.58807588667787e+001,-1.18510480225647e+000

6.58872813814055e+004,-3.58807821595657e+001,-1.20164630934106e+000

6.68070335542691e+004,-3.58808061067949e+001,-1.21841864499536e+000

6.77396249890018e+004,-3.58808307268420e+001,-1.23542502797868e+000

6.86852349150199e+004,-3.58808560385982e+001,-1.25266872183585e+000

6.96440450636895e+004,-3.58808820614839e+001,-1.27015303551613e+000

7.06162397032520e+004,-3.58809088154646e+001,-1.28788132399760e+000

7.16020056742374e+004,-3.58809363210651e+001,-1.30585698892723e+000

7.26015324253724e+004,-3.58809645993859e+001,-1.32408347926181e+000

7.36150120499896e+004,-3.58809936721188e+001,-1.34256429192242e+000

7.46426393229441e+004,-3.58810235615636e+001,-1.36130297245640e+000

7.56846117380472e+004,-3.58810542906452e+001,-1.38030311570840e+000

7.67411295460207e+004,-3.58810858829310e+001,-1.39956836649920e+000

7.78123957929823e+004,-3.58811183626487e+001,-1.41910242031530e+000

7.88986163594682e+004,-3.58811517547048e+001,-1.43890902400774e+000

7.99999999999995e+004,-3.58811860847037e+001,-1.45899197649868e+000

8.11167583832018e+004,-3.58812213789670e+001,-1.47935512949937e+000

8.22491061324848e+004,-3.58812576645538e+001,-1.50000238823555e+000

8.33972608672892e+004,-3.58812949692809e+001,-1.52093771218591e+000

8.45614432449099e+004,-3.58813333217442e+001,-1.54216511582632e+000

8.57418770029029e+004,-3.58813727513402e+001,-1.56368866938746e+000

8.69387890020841e+004,-3.58814132882888e+001,-1.58551249961954e+000

8.81524092701283e+004,-3.58814549636557e+001,-1.60764079057122e+000

8.93829710457770e+004,-3.58814978093763e+001,-1.63007778437332e+000

9.06307108236633e+004,-3.58815418582799e+001,-1.65282778203886e+000

9.18958683997622e+004,-3.58815871441146e+001,-1.67589514426865e+000

9.31786869174758e+004,-3.58816337015727e+001,-1.69928429227133e+000

9.44794129143618e+004,-3.58816815663173e+001,-1.72299970859170e+000

9.57982963695136e+004,-3.58817307750091e+001,-1.74704593795113e+000

9.71355907516031e+004,-3.58817813653344e+001,-1.77142758809908e+000

9.84915530675926e+004,-3.58818333760334e+001,-1.79614933067567e+000

9.98664439121282e+004,-3.58818868469295e+001,-1.82121590208434e+000

1.01260527517622e+005,-3.58819418189599e+001,-1.84663210437808e+000

1.02674071805032e+005,-3.58819983342057e+001,-1.87240280615711e+000

1.04107348435354e+005,-3.58820564359247e+001,-1.89853294347459e+000

1.05560632861831e+005,-3.58821161685832e+001,-1.92502752075963e+000

1.07034204382888e+005,-3.58821775778902e+001,-1.95189161174835e+000

1.08528346195813e+005,-3.58822407108316e+001,-1.97913036042818e+000

1.10043345451179e+005,-3.58823056157056e+001,-2.00674898199483e+000

1.11579493308032e+005,-3.58823723421594e+001,-2.03475276382115e+000

1.13137084989847e+005,-3.58824409412264e+001,-2.06314706643821e+000

1.14716419841265e+005,-3.58825114653646e+001,-2.09193732453000e+000

1.16317801385624e+005,-3.58825839684962e+001,-2.12112904793992e+000

1.17941537383287e+005,-3.58826585060481e+001,-2.15072782268938e+000

1.19587939890794e+005,-3.58827351349937e+001,-2.18073931201324e+000

1.21257325320831e+005,-3.58828139138954e+001,-2.21116925740235e+000

1.22950014503040e+005,-3.58828949029491e+001,-2.24202347966502e+000

1.24666332745679e+005,-3.58829781640288e+001,-2.27330787999846e+000

1.26406609898139e+005,-3.58830637607333e+001,-2.30502844107558e+000

1.28171180414339e+005,-3.58831517584339e+001,-2.33719122814384e+000

1.29960383416997e+005,-3.58832422243232e+001,-2.36980239013958e+000

1.31774562762811e+005,-3.58833352274655e+001,-2.40286816081509e+000

1.33614067108538e+005,-3.58834308388485e+001,-2.43639485988023e+000

1.35479249978003e+005,-3.58835291314360e+001,-2.47038889415856e+000

1.37370469830040e+005,-3.58836301802230e+001,-2.50485675875685e+000

1.39288090127379e+005,-3.58837340622908e+001,-2.53980503824978e+000

1.41232479406504e+005,-3.58838408568655e+001,-2.57524040787908e+000

1.43204011348474e+005,-3.58839506453761e+001,-2.61116963476750e+000

1.45203064850745e+005,-3.58840635115154e+001,-2.64759957914763e+000

1.47230024099979e+005,-3.58841795413025e+001,-2.68453719560485e+000

1.49285278645888e+005,-3.58842988231464e+001,-2.72198953433575e+000

1.51369223476094e+005,-3.58844214479117e+001,-2.75996374242362e+000

1.53482259092041e+005,-3.58845475089857e+001,-2.79846706512607e+000

1.55624791585964e+005,-3.58846771023485e+001,-2.83750684717955e+000

1.57797232718936e+005,-3.58848103266426e+001,-2.87709053412112e+000

1.59999999999999e+005,-3.58849472832470e+001,-2.91722567362222e+000

1.62233516766403e+005,-3.58850880763517e+001,-2.95791991684133e+000

1.64498212264969e+005,-3.58852328130341e+001,-2.99918101979159e+000

1.66794521734578e+005,-3.58853816033387e+001,-3.04101684472340e+000

1.69122886489819e+005,-3.58855345603575e+001,-3.08343536152494e+000

1.71483754005805e+005,-3.58856918003132e+001,-3.12644464913615e+000

1.73877578004168e+005,-3.58858534426448e+001,-3.17005289698279e+000

1.76304818540256e+005,-3.58860196100950e+001,-3.21426840642322e+000

1.78765942091554e+005,-3.58861904288000e+001,-3.25909959221378e+000

1.81261421647326e+005,-3.58863660283819e+001,-3.30455498399001e+000

1.83791736799524e+005,-3.58865465420435e+001,-3.35064322776451e+000

1.86357373834951e+005,-3.58867321066651e+001,-3.39737308744155e+000

1.88958825828723e+005,-3.58869228629046e+001,-3.44475344634870e+000

1.91596592739027e+005,-3.58871189552995e+001,-3.49279330878522e+000

1.94271181503206e+005,-3.58873205323721e+001,-3.54150180158691e+000

1.96983106135185e+005,-3.58875277467370e+001,-3.59088817570811e+000

1.99732887824256e+005,-3.58877407552118e+001,-3.64096180782131e+000

2.02521055035243e+005,-3.58879597189306e+001,-3.69173220193352e+000

2.05348143610063e+005,-3.58881848034597e+001,-3.74320899101939e+000

2.08214696870707e+005,-3.58884161789176e+001,-3.79540193867154e+000

2.11121265723661e+005,-3.58886540200969e+001,-3.84832094076900e+000

2.14068408765776e+005,-3.58888985065902e+001,-3.90197602716113e+000

2.17056692391625e+005,-3.58891498229183e+001,-3.95637736337087e+000

2.20086690902357e+005,-3.58894081586629e+001,-4.01153525231350e+000

2.23158986616063e+005,-3.58896737086015e+001,-4.06746013603349e+000

2.26274169979693e+005,-3.58899466728462e+001,-4.12416259745895e+000

2.29432839682530e+005,-3.58902272569866e+001,-4.18165336217162e+000

2.32635602771247e+005,-3.58905156722352e+001,-4.23994330019633e+000

2.35883074766574e+005,-3.58908121355772e+001,-4.29904342780634e+000

2.39175879781588e+005,-3.58911168699239e+001,-4.35896490934591e+000

2.42514650641661e+005,-3.58914301042704e+001,-4.41971905906991e+000

2.45900029006080e+005,-3.58917520738561e+001,-4.48131734300175e+000

2.49332665491357e+005,-3.58920830203302e+001,-4.54377138080605e+000

2.52813219796278e+005,-3.58924231919214e+001,-4.60709294768030e+000

2.56342360828676e+005,-3.58927728436109e+001,-4.67129397626258e+000

2.59920766833993e+005,-3.58931322373105e+001,-4.73638655855510e+000

2.63549125525621e+005,-3.58935016420447e+001,-4.80238294786709e+000

2.67228134217075e+005,-3.58938813341379e+001,-4.86929556077034e+000

2.70958499956006e+005,-3.58942715974046e+001,-4.93713697907539e+000

2.74740939660078e+005,-3.58946727233465e+001,-5.00591995182012e+000

2.78576180254757e+005,-3.58950850113525e+001,-5.07565739727749e+000

2.82464958813007e+005,-3.58955087689045e+001,-5.14636240497748e+000

2.86408022696948e+005,-3.58959443117880e+001,-5.21804823774554e+000

2.90406129701488e+005,-3.58963919643076e+001,-5.29072833375677e+000

2.94460048199957e+005,-3.58968520595080e+001,-5.36441630860487e+000

2.98570557291775e+005,-3.58973249393996e+001,-5.43912595738710e+000

3.02738446952187e+005,-3.58978109551907e+001,-5.51487125680401e+000

3.06964518184081e+005,-3.58983104675239e+001,-5.59166636727326e+000

3.11249583171928e+005,-3.58988238467187e+001,-5.66952563505979e+000

3.15594465437872e+005,-3.58993514730203e+001,-5.74846359441766e+000

3.19999999999997e+005,-3.58998937368530e+001,-5.82849496974807e+000

3.24467033532806e+005,-3.59004510390807e+001,-5.90963467777041e+000

3.28996424529938e+005,-3.59010237912729e+001,-5.99189782970622e+000

3.33589043469155e+005,-3.59016124159769e+001,-6.07529973347688e+000

3.38245772979638e+005,-3.59022173469966e+001,-6.15985589591372e+000

3.42967508011610e+005,-3.59028390296772e+001,-6.24558202498064e+000

3.47755156008335e+005,-3.59034779211968e+001,-6.33249403200902e+000

3.52609637080511e+005,-3.59041344908647e+001,-6.42060803394387e+000

3.57531884183106e+005,-3.59048092204264e+001,-6.50994035560164e+000

3.62522843294651e+005,-3.59055026043750e+001,-6.60050753193851e+000

3.67583473599047e+005,-3.59062151502705e+001,-6.69232631032991e+000

3.72714747669902e+005,-3.59069473790657e+001,-6.78541365285901e+000

3.77917651657445e+005,-3.59076998254397e+001,-6.87978673861563e+000

3.83193185478053e+005,-3.59084730381383e+001,-6.97546296600357e+000

3.88542363006410e+005,-3.59092675803227e+001,-7.07245995505760e+000

3.93966212270369e+005,-3.59100840299251e+001,-7.17079554976715e+000

3.99465775648511e+005,-3.59109229800129e+001,-7.27048782040861e+000

4.05042110070485e+005,-3.59117850391606e+001,-7.37155506588420e+000

4.10696287220124e+005,-3.59126708318291e+001,-7.47401581606796e+000

4.16429393741414e+005,-3.59135809987547e+001,-7.57788883415638e+000

4.22242531447321e+005,-3.59145161973451e+001,-7.68319311902574e+000

4.28136817531551e+005,-3.59154771020850e+001,-7.78994790759343e+000

4.34113384783250e+005,-3.59164644049497e+001,-7.89817267718333e+000

4.40173381804713e+005,-3.59174788158281e+001,-8.00788714789502e+000

4.46317973232124e+005,-3.59185210629543e+001,-8.11911128497508e+000

4.52548339959385e+005,-3.59195918933487e+001,-8.23186530119141e+000

4.58865679365059e+005,-3.59206920732685e+001,-8.34616965920768e+000

4.65271205542494e+005,-3.59218223886673e+001,-8.46204507395979e+000

4.71766149533147e+005,-3.59229836456650e+001,-8.57951251503091e+000

4.78351759563174e+005,-3.59241766710271e+001,-8.69859320902596e+000

4.85029301283321e+005,-3.59254023126545e+001,-8.81930864194512e+000

4.91800058012158e+005,-3.59266614400831e+001,-8.94168056155357e+000

4.98665330982714e+005,-3.59279549449942e+001,-9.06573097974853e+000

5.05626439592555e+005,-3.59292837417356e+001,-9.19148217492115e+000

5.12684721657352e+005,-3.59306487678531e+001,-9.31895669431430e+000

5.19841533667984e+005,-3.59320509846336e+001,-9.44817735637286e+000

5.27098251051240e+005,-3.59334913776593e+001,-9.57916725308729e+000

5.34456268434150e+005,-3.59349709573733e+001,-9.71194975232820e+000

5.41916999912011e+005,-3.59364907596568e+001,-9.84654850017300e+000

