Freq.,VOut,OutRef

1.00000000000000e+004,-2.68091022649814e+001,-2.49035841227922e-001

1.01395947979003e+004,-2.68091031890840e+001,-2.52512239131204e-001

1.02811382665607e+004,-2.68091041391663e+001,-2.56037165193162e-001

1.04246576084112e+004,-2.68091051159587e+001,-2.59611296818552e-001

1.05701804056138e+004,-2.68091061202120e+001,-2.63235320866994e-001

1.07177346253629e+004,-2.68091071526983e+001,-2.66909933786224e-001

1.08673486252606e+004,-2.68091082142113e+001,-2.70635841743691e-001

1.10190511587661e+004,-2.68091093055670e+001,-2.74413760764631e-001

1.11728713807222e+004,-2.68091104276044e+001,-2.78244416866556e-001

1.13288388529580e+004,-2.68091115811860e+001,-2.82128546202884e-001

1.14869835499703e+004,-2.68091127671986e+001,-2.86066895201004e-001

1.16473358646846e+004,-2.68091139865540e+001,-2.90060220706549e-001

1.18099266142953e+004,-2.68091152401896e+001,-2.94109290128309e-001

1.19747870461893e+004,-2.68091165290688e+001,-2.98214881589034e-001

1.21419488439505e+004,-2.68091178541828e+001,-3.02377784068540e-001

1.23114441334492e+004,-2.68091192165500e+001,-3.06598797561404e-001

1.24833054890161e+004,-2.68091206172177e+001,-3.10878733227519e-001

1.26575659397028e+004,-2.68091220572629e+001,-3.15218413547011e-001

1.28342589756290e+004,-2.68091235377922e+001,-3.19618672481742e-001

1.30134185544193e+004,-2.68091250599440e+001,-3.24080355632211e-001

1.31950791077289e+004,-2.68091266248883e+001,-3.28604320401020e-001

1.33792755478611e+004,-2.68091282338281e+001,-3.33191436159296e-001

1.35660432744767e+004,-2.68091298880002e+001,-3.37842584409216e-001

1.37554181813974e+004,-2.68091315886764e+001,-3.42558658957837e-001

1.39474366635040e+004,-2.68091333371638e+001,-3.47340566087878e-001

1.41421356237309e+004,-2.68091351348066e+001,-3.52189224729203e-001

1.43395524801583e+004,-2.68091369829866e+001,-3.57105566637679e-001

1.45397251732031e+004,-2.68091388831246e+001,-3.62090536573754e-001

1.47426921729110e+004,-2.68091408366811e+001,-3.67145092482975e-001

1.49484924863494e+004,-2.68091428451580e+001,-3.72270205680966e-001

1.51571656651040e+004,-2.68091449100991e+001,-3.77466861039979e-001

1.53687518128801e+004,-2.68091470330919e+001,-3.82736057175002e-001

1.55832915932100e+004,-2.68091492157681e+001,-3.88078806641967e-001

1.58008262372675e+004,-2.68091514598057e+001,-3.93496136124917e-001

1.60213975517924e+004,-2.68091537669296e+001,-3.98989086638104e-001

1.62450479271247e+004,-2.68091561389133e+001,-4.04558713724140e-001

1.64718203453514e+004,-2.68091585775802e+001,-4.10206087656071e-001

1.67017583885674e+004,-2.68091610848049e+001,-4.15932293643200e-001

1.69349062472505e+004,-2.68091636625144e+001,-4.21738432041935e-001

1.71713087287550e+004,-2.68091663126905e+001,-4.27625618561928e-001

1.74110112659224e+004,-2.68091690373701e+001,-4.33594984485442e-001

1.76540599258131e+004,-2.68091718386477e+001,-4.39647676880779e-001

1.79005014185594e+004,-2.68091747186766e+001,-4.45784858824725e-001

1.81503831063432e+004,-2.68091776796706e+001,-4.52007709624551e-001

1.84037530124975e+004,-2.68091807239058e+001,-4.58317425044828e-001

1.86606598307361e+004,-2.68091838537221e+001,-4.64715217537902e-001

1.89211529345119e+004,-2.68091870715253e+001,-4.71202316474276e-001

1.91852823865052e+004,-2.68091903797888e+001,-4.77779968381289e-001

1.94530989482457e+004,-2.68091937810557e+001,-4.84449437179388e-001

1.97246540898671e+004,-2.68091972779402e+001,-4.91212004428336e-001

1.99999999999999e+004,-2.68092008731304e+001,-4.98068969568657e-001

2.02791895958005e+004,-2.68092045693895e+001,-5.05021650175736e-001

2.05622765331213e+004,-2.68092083695588e+001,-5.12071382209132e-001

2.08493152168224e+004,-2.68092122765592e+001,-5.19219520270239e-001

2.11403608112276e+004,-2.68092162933940e+001,-5.26467437861803e-001

2.14354692507258e+004,-2.68092204231503e+001,-5.33816527653381e-001

2.17346972505211e+004,-2.68092246690027e+001,-5.41268201744506e-001

2.20381023175322e+004,-2.68092290342146e+001,-5.48823891939133e-001

2.23457427614443e+004,-2.68092335221411e+001,-5.56485050019956e-001

2.26576777059159e+004,-2.68092381362318e+001,-5.64253148024535e-001

2.29739670999406e+004,-2.68092428800331e+001,-5.72129678530265e-001

2.32946717293690e+004,-2.68092477571913e+001,-5.80116154938785e-001

2.36198532285905e+004,-2.68092527714549e+001,-5.88214111767990e-001

2.39495740923785e+004,-2.68092579266779e+001,-5.96425104944361e-001

2.42838976879009e+004,-2.68092632268227e+001,-6.04750712102382e-001

2.46228882668982e+004,-2.68092686759627e+001,-6.13192532888754e-001

2.49666109780322e+004,-2.68092742782863e+001,-6.21752189264972e-001

2.53151318794055e+004,-2.68092800380993e+001,-6.30431325822441e-001

2.56685179512580e+004,-2.68092859598285e+001,-6.39231610095237e-001

2.60268371088386e+004,-2.68092920480252e+001,-6.48154732880603e-001

2.63901582154578e+004,-2.68092983073686e+001,-6.57202408564264e-001

2.67585510957221e+004,-2.68093047426694e+001,-6.66376375446127e-001

2.71320865489533e+004,-2.68093113588734e+001,-6.75678396076479e-001

2.75108363627948e+004,-2.68093181610656e+001,-6.85110257591974e-001

2.78948733270080e+004,-2.68093251544736e+001,-6.94673772058807e-001

2.82842712474618e+004,-2.68093323444723e+001,-7.04370776819330e-001

2.86791049603164e+004,-2.68093397365874e+001,-7.14203134844990e-001

2.90794503464061e+004,-2.68093473364998e+001,-7.24172735093044e-001

2.94853843458219e+004,-2.68093551500500e+001,-7.34281492868139e-001

2.98969849726987e+004,-2.68093631832432e+001,-7.44531350188149e-001

3.03143313302078e+004,-2.68093714422525e+001,-7.54924276159031e-001

3.07375036257601e+004,-2.68093799334251e+001,-7.65462267348914e-001

3.11665831864199e+004,-2.68093886632863e+001,-7.76147348171863e-001

3.16016524745350e+004,-2.68093976385448e+001,-7.86981571275836e-001

3.20427951035848e+004,-2.68094068660978e+001,-7.97967017935143e-001

3.24900958542493e+004,-2.68094163530363e+001,-8.09105798448794e-001

3.29436406907028e+004,-2.68094261066505e+001,-8.20400052544438e-001

3.34035167771346e+004,-2.68094361344357e+001,-8.31851949788165e-001

3.38698124945009e+004,-2.68094464440973e+001,-8.43463689999984e-001

3.43426174575100e+004,-2.68094570435577e+001,-8.55237503674227e-001

3.48220225318448e+004,-2.68094679409614e+001,-8.67175652407223e-001

3.53081198516260e+004,-2.68094791446823e+001,-8.79280429327271e-001

3.58010028371187e+004,-2.68094906633291e+001,-8.91554159538005e-001

3.63007662126863e+004,-2.68095025057525e+001,-9.03999200558197e-001

3.68075060249948e+004,-2.68095146810521e+001,-9.16617942775397e-001

3.73213196614721e+004,-2.68095271985826e+001,-9.29412809902988e-001

3.78423058690237e+004,-2.68095400679620e+001,-9.42386259442132e-001

3.83705647730104e+004,-2.68095532990782e+001,-9.55540783152569e-001

3.89061978964912e+004,-2.68095669020972e+001,-9.68878907528535e-001

3.94493081797342e+004,-2.68095808874700e+001,-9.82403194282066e-001

3.99999999999998e+004,-2.68095952659419e+001,-9.96116240831108e-001

4.05583791916010e+004,-2.68096100485594e+001,-1.01002068079728e+000

4.11245530662425e+004,-2.68096252466798e+001,-1.02411918450781e+000

4.16986304336447e+004,-2.68096408719789e+001,-1.03841445950607e+000

4.22807216224550e+004,-2.68096569364609e+001,-1.05290925106803e+000

4.28709385014515e+004,-2.68096734524669e+001,-1.06760634272690e+000

4.34693945010421e+004,-2.68096904326848e+001,-1.08250855680376e+000

4.40762046350642e+004,-2.68097078901586e+001,-1.09761875494651e+000

4.46914855228886e+004,-2.68097258382989e+001,-1.11293983867636e+000

4.53153554118317e+004,-2.68097442908927e+001,-1.12847474993950e+000

4.59479341998812e+004,-2.68097632621144e+001,-1.14422647167053e+000

4.65893434587380e+004,-2.68097827665363e+001,-1.16019802835879e+000

4.72397064571810e+004,-2.68098028191399e+001,-1.17639248662700e+000

4.78991481847569e+004,-2.68098234353275e+001,-1.19281295581452e+000

4.85677953758016e+004,-2.68098446309340e+001,-1.20946258856939e+000

4.92457765337964e+004,-2.68098664222384e+001,-1.22634458145053e+000

4.99332219560642e+004,-2.68098888259775e+001,-1.24346217553451e+000

5.06302637588109e+004,-2.68099118593574e+001,-1.26081865703403e+000

5.13370359025159e+004,-2.68099355400677e+001,-1.27841735792273e+000

5.20536742176771e+004,-2.68099598862943e+001,-1.29626165656915e+000

5.27803164309155e+004,-2.68099849167339e+001,-1.31435497838040e+000

5.35171021914442e+004,-2.68100106506079e+001,-1.33270079645231e+000

5.42641730979066e+004,-2.68100371076774e+001,-1.35130263222967e+000

5.50216727255895e+004,-2.68100643082581e+001,-1.37016405617745e+000

5.57897466540159e+004,-2.68100922732359e+001,-1.38928868845668e+000

5.65685424949235e+004,-2.68101210240829e+001,-1.40868019961451e+000

5.73582099206328e+004,-2.68101505828742e+001,-1.42834231127846e+000

5.81589006928121e+004,-2.68101809723038e+001,-1.44827879686573e+000

5.89707686916437e+004,-2.68102122157031e+001,-1.46849348229691e+000

5.97939699453972e+004,-2.68102443370582e+001,-1.48899024672276e+000

6.06286626604156e+004,-2.68102773610278e+001,-1.50977302326008e+000

6.14750072515201e+004,-2.68103113129630e+001,-1.53084579973578e+000

6.23331663728396e+004,-2.68103462189260e+001,-1.55221261944444e+000

6.32033049490698e+004,-2.68103821057102e+001,-1.57387758191203e+000

6.40855902071694e+004,-2.68104190008607e+001,-1.59584484367339e+000

6.49801917084985e+004,-2.68104569326954e+001,-1.61811861905796e+000

6.58872813814055e+004,-2.68104959303262e+001,-1.64070318098826e+000

6.68070335542691e+004,-2.68105360236821e+001,-1.66360286178529e+000

6.77396249890018e+004,-2.68105772435311e+001,-1.68682205399043e+000

6.86852349150199e+004,-2.68106196215044e+001,-1.71036521119182e+000

6.96440450636895e+004,-2.68106631901200e+001,-1.73423684886790e+000

7.06162397032520e+004,-2.68107079828079e+001,-1.75844154523802e+000

7.16020056742374e+004,-2.68107540339355e+001,-1.78298394212592e+000

7.26015324253724e+004,-2.68108013788338e+001,-1.80786874583586e+000

7.36150120499896e+004,-2.68108500538243e+001,-1.83310072803807e+000

7.46426393229441e+004,-2.68109000962465e+001,-1.85868472666758e+000

7.56846117380472e+004,-2.68109515444870e+001,-1.88462564683506e+000

7.67411295460207e+004,-2.68110044380079e+001,-1.91092846174883e+000

7.78123957929823e+004,-2.68110588173776e+001,-1.93759821365007e+000

7.88986163594682e+004,-2.68111147243012e+001,-1.96464001475970e+000

7.99999999999995e+004,-2.68111722016526e+001,-1.99205904823792e+000

8.11167583832018e+004,-2.68112312935068e+001,-2.01986056915749e+000

8.22491061324848e+004,-2.68112920451738e+001,-2.04804990548702e+000

8.33972608672892e+004,-2.68113545032328e+001,-2.07663245909168e+000

8.45614432449099e+004,-2.68114187155677e+001,-2.10561370674203e+000

8.57418770029029e+004,-2.68114847314036e+001,-2.13499920113999e+000

8.69387890020841e+004,-2.68115526013442e+001,-2.16479457195642e+000

8.81524092701283e+004,-2.68116223774099e+001,-2.19500552688236e+000

8.93829710457770e+004,-2.68116941130780e+001,-2.22563785269476e+000

9.06307108236633e+004,-2.68117678633227e+001,-2.25669741633478e+000

9.18958683997622e+004,-2.68118436846572e+001,-2.28819016600207e+000

9.31786869174758e+004,-2.68119216351763e+001,-2.32012213226084e+000

9.44794129143618e+004,-2.68120017746007e+001,-2.35249942916168e+000

9.57982963695136e+004,-2.68120841643222e+001,-2.38532825537896e+000

9.71355907516031e+004,-2.68121688674501e+001,-2.41861489535972e+000

9.84915530675926e+004,-2.68122559488594e+001,-2.45236572048960e+000

9.98664439121282e+004,-2.68123454752396e+001,-2.48658719027417e+000

1.01260527517622e+005,-2.68124375151451e+001,-2.52128585353372e+000

1.02674071805032e+005,-2.68125321390475e+001,-2.55646834961398e+000

1.04107348435354e+005,-2.68126294193886e+001,-2.59214140961244e+000

1.05560632861831e+005,-2.68127294306351e+001,-2.62831185761980e+000

1.07034204382888e+005,-2.68128322493351e+001,-2.66498661197791e+000

1.08528346195813e+005,-2.68129379541761e+001,-2.70217268655229e+000

1.10043345451179e+005,-2.68130466260436e+001,-2.73987719202191e+000

1.11579493308032e+005,-2.68131583480832e+001,-2.77810733718428e+000

1.13137084989847e+005,-2.68132732057627e+001,-2.81687043027699e+000

1.14716419841265e+005,-2.68133912869362e+001,-2.85617388031664e+000

1.16317801385624e+005,-2.68135126819114e+001,-2.89602519845220e+000

1.17941537383287e+005,-2.68136374835165e+001,-2.93643199933827e+000

1.19587939890794e+005,-2.68137657871704e+001,-2.97740200252169e+000

1.21257325320831e+005,-2.68138976909550e+001,-3.01894303384802e+000

1.22950014503040e+005,-2.68140332956880e+001,-3.06106302688364e+000

1.24666332745679e+005,-2.68141727049994e+001,-3.10377002435592e+000

1.26406609898139e+005,-2.68143160254089e+001,-3.14707217961067e+000

1.28171180414339e+005,-2.68144633664061e+001,-3.19097775808610e+000

1.29960383416997e+005,-2.68146148405322e+001,-3.23549513880639e+000

1.31774562762811e+005,-2.68147705634646e+001,-3.28063281589245e+000

1.33614067108538e+005,-2.68149306541034e+001,-3.32639940008895e+000

1.35479249978003e+005,-2.68150952346606e+001,-3.37280362031232e+000

1.37370469830040e+005,-2.68152644307511e+001,-3.41985432521446e+000

1.39288090127379e+005,-2.68154383714866e+001,-3.46756048476684e+000

1.41232479406504e+005,-2.68156171895721e+001,-3.51593119186111e+000

1.43204011348474e+005,-2.68158010214050e+001,-3.56497566392955e+000

1.45203064850745e+005,-2.68159900071763e+001,-3.61470324458407e+000

1.47230024099979e+005,-2.68161842909754e+001,-3.66512340527354e+000

1.49285278645888e+005,-2.68163840208971e+001,-3.71624574696025e+000

1.51369223476094e+005,-2.68165893491516e+001,-3.76808000181525e+000

1.53482259092041e+005,-2.68168004321776e+001,-3.82063603493297e+000

1.55624791585964e+005,-2.68170174307584e+001,-3.87392384606421e+000

1.57797232718936e+005,-2.68172405101409e+001,-3.92795357136909e+000

1.59999999999999e+005,-2.68174698401582e+001,-3.98273548518964e+000

1.62233516766403e+005,-2.68177055953547e+001,-4.03828000184027e+000

1.64498212264969e+005,-2.68179479551157e+001,-4.09459767741875e+000

1.66794521734578e+005,-2.68181971037992e+001,-4.15169921163651e+000

1.69122886489819e+005,-2.68184532308722e+001,-4.20959544966790e+000

1.71483754005805e+005,-2.68187165310498e+001,-4.26829738401921e+000

1.73877578004168e+005,-2.68189872044389e+001,-4.32781615641783e+000

1.76304818540256e+005,-2.68192654566846e+001,-4.38816305971987e+000

1.78765942091554e+005,-2.68195514991216e+001,-4.44934953983749e+000

1.81261421647326e+005,-2.68198455489287e+001,-4.51138719768686e+000

1.83791736799524e+005,-2.68201478292877e+001,-4.57428779115410e+000

1.86357373834951e+005,-2.68204585695470e+001,-4.63806323708164e+000

1.88958825828723e+005,-2.68207780053879e+001,-4.70272561327434e+000

1.91596592739027e+005,-2.68211063789975e+001,-4.76828716052305e+000

1.94271181503206e+005,-2.68214439392441e+001,-4.83476028465064e+000

1.96983106135185e+005,-2.68217909418583e+001,-4.90215755857428e+000

1.99732887824256e+005,-2.68221476496187e+001,-4.97049172438810e+000

2.02521055035243e+005,-2.68225143325418e+001,-5.03977569546605e+000

2.05348143610063e+005,-2.68228912680776e+001,-5.11002255858105e+000

2.08214696870707e+005,-2.68232787413096e+001,-5.18124557604539e+000

2.11121265723661e+005,-2.68236770451605e+001,-5.25345818786844e+000

2.14068408765776e+005,-2.68240864806029e+001,-5.32667401393310e+000

2.17056692391625e+005,-2.68245073568752e+001,-5.40090685619065e+000

2.20086690902357e+005,-2.68249399917035e+001,-5.47617070087382e+000

2.23158986616063e+005,-2.68253847115288e+001,-5.55247972072733e+000

2.26274169979693e+005,-2.68258418517403e+001,-5.62984827725600e+000

2.29432839682530e+005,-2.68263117569141e+001,-5.70829092299097e+000

2.32635602771247e+005,-2.68267947810585e+001,-5.78782240377157e+000

2.35883074766574e+005,-2.68272912878651e+001,-5.86845766104588e+000

2.39175879781588e+005,-2.68278016509667e+001,-5.95021183418551e+000

2.42514650641661e+005,-2.68283262542007e+001,-6.03310026281850e+000

2.45900029006080e+005,-2.68288654918807e+001,-6.11713848917603e+000

2.49332665491357e+005,-2.68294197690727e+001,-6.20234226045647e+000

2.52813219796278e+005,-2.68299895018804e+001,-6.28872753120223e+000

2.56342360828676e+005,-2.68305751177362e+001,-6.37631046569205e+000

2.59920766833993e+005,-2.68311770556992e+001,-6.46510744034772e+000

2.63549125525621e+005,-2.68317957667621e+001,-6.55513504615310e+000

2.67228134217075e+005,-2.68324317141634e+001,-6.64641009108639e+000

2.70958499956006e+005,-2.68330853737092e+001,-6.73894960256528e+000

2.74740939660078e+005,-2.68337572341019e+001,-6.83277082990268e+000

2.78576180254757e+005,-2.68344477972766e+001,-6.92789124677461e+000

2.82464958813007e+005,-2.68351575787465e+001,-7.02432855369775e+000

2.86408022696948e+005,-2.68358871079558e+001,-7.12210068051670e+000

2.90406129701488e+005,-2.68366369286413e+001,-7.22122578890076e+000

2.94460048199957e+005,-2.68374075992031e+001,-7.32172227484785e+000

2.98570557291775e+005,-2.68381996930833e+001,-7.42360877119685e+000

3.02738446952187e+005,-2.68390137991540e+001,-7.52690415014564e+000

3.06964518184081e+005,-2.68398505221149e+001,-7.63162752577477e+000

3.11249583171928e+005,-2.68407104828994e+001,-7.73779825657647e+000

3.15594465437872e+005,-2.68415943190905e+001,-7.84543594798635e+000

3.19999999999997e+005,-2.68425026853466e+001,-7.95456045491832e+000

3.24467033532806e+005,-2.68434362538370e+001,-8.06519188430111e+000

3.28996424529938e+005,-2.68443957146869e+001,-8.17735059761485e+000

3.33589043469155e+005,-2.68453817764333e+001,-8.29105721342742e+000

3.38245772979638e+005,-2.68463951664908e+001,-8.40633260992864e+000

3.42967508011610e+005,-2.68474366316282e+001,-8.52319792746089e+000

3.47755156008335e+005,-2.68485069384554e+001,-8.64167457104637e+000

3.52609637080511e+005,-2.68496068739216e+001,-8.76178421290700e+000

3.57531884183106e+005,-2.68507372458245e+001,-8.88354879497872e+000

3.62522843294651e+005,-2.68518988833302e+001,-9.00699053141567e+000

3.67583473599047e+005,-2.68530926375056e+001,-9.13213191108485e+000

3.72714747669902e+005,-2.68543193818611e+001,-9.25899570004907e+000

3.77917651657445e+005,-2.68555800129061e+001,-9.38760494403595e+000

3.83193185478053e+005,-2.68568754507157e+001,-9.51798297089212e+000

3.88542363006410e+005,-2.68582066395103e+001,-9.65015339302019e+000

3.93966212270369e+005,-2.68595745482468e+001,-9.78414010979795e+000

3.99465775648511e+005,-2.68609801712224e+001,-9.91996730997566e+000

4.05042110070485e+005,-2.68624245286916e+001,-1.00576594740514e+001

4.10696287220124e+005,-2.68639086674949e+001,-1.01972413766225e+001

4.16429393741414e+005,-2.68654336617019e+001,-1.03387380887089e+001

4.22242531447321e+005,-2.68670006132662e+001,-1.04821749800492e+001

4.28136817531551e+005,-2.68686106526946e+001,-1.06275777213650e+001

4.34113384783250e+005,-2.68702649397291e+001,-1.07749722865916e+001

4.40173381804713e+005,-2.68719646640431e+001,-1.09243849550741e+001

4.46317973232124e+005,-2.68737110459509e+001,-1.10758423137243e+001

4.52548339959385e+005,-2.68755053371311e+001,-1.12293712591379e+001

4.58865679365059e+005,-2.68773488213651e+001,-1.13849989996678e+001

4.65271205542494e+005,-2.68792428152885e+001,-1.15427530574519e+001

4.71766149533147e+005,-2.68811886691573e+001,-1.17026612703925e+001

4.78351759563174e+005,-2.68831877676296e+001,-1.18647517940835e+001

4.85029301283321e+005,-2.68852415305605e+001,-1.20290531036837e+001

4.91800058012158e+005,-2.68873514138126e+001,-1.21955939957332e+001

4.98665330982714e+005,-2.68895189100817e+001,-1.23644035899074e+001

5.05626439592555e+005,-2.68917455497367e+001,-1.25355113307097e+001

5.12684721657352e+005,-2.68940329016755e+001,-1.27089469890952e+001

5.19841533667984e+005,-2.68963825741953e+001,-1.28847406640250e+001

5.27098251051240e+005,-2.68987962158795e+001,-1.30629227839460e+001

5.34456268434150e+005,-2.69012755164989e+001,-1.32435241081933e+001

5.41916999912011e+005,-2.69038222079292e+001,-1.34265757283113e+001

