Freq.,VOut,OutRef

1.00000000000000e+004,-1.34249784170181e+001,-6.09775185772122e-002

1.01395947979003e+004,-1.34249785233563e+001,-6.18287286673282e-002

1.02811382665607e+004,-1.34249786326838e+001,-6.26918210236587e-002

1.04246576084112e+004,-1.34249787450849e+001,-6.35669615065868e-002

1.05701804056138e+004,-1.34249788606457e+001,-6.44543182943196e-002

1.07177346253629e+004,-1.34249789794553e+001,-6.53540619113689e-002

1.08673486252606e+004,-1.34249791016044e+001,-6.62663652649063e-002

1.10190511587661e+004,-1.34249792271874e+001,-6.71914036707533e-002

1.11728713807222e+004,-1.34249793563006e+001,-6.81293548949822e-002

1.13288388529580e+004,-1.34249794890435e+001,-6.90803991825859e-002

1.14869835499703e+004,-1.34249796255178e+001,-7.00447192967107e-002

1.16473358646846e+004,-1.34249797658285e+001,-7.10225005497806e-002

1.18099266142953e+004,-1.34249799100836e+001,-7.20139308397384e-002

1.19747870461893e+004,-1.34249800583938e+001,-7.30192006892532e-002

1.21419488439505e+004,-1.34249802108729e+001,-7.40385032797072e-002

1.23114441334492e+004,-1.34249803676383e+001,-7.50720344868202e-002

1.24833054890161e+004,-1.34249805288107e+001,-7.61199929203807e-002

1.26575659397028e+004,-1.34249806945135e+001,-7.71825799645124e-002

1.28342589756290e+004,-1.34249808648744e+001,-7.82599998119263e-002

1.30134185544193e+004,-1.34249810400239e+001,-7.93524595064896e-002

1.31950791077289e+004,-1.34249812200973e+001,-8.04601689775520e-002

1.33792755478611e+004,-1.34249814052322e+001,-8.15833410918604e-002

1.35660432744767e+004,-1.34249815955714e+001,-8.27221916792566e-002

1.37554181813974e+004,-1.34249817912610e+001,-8.38769395859919e-002

1.39474366635040e+004,-1.34249819924512e+001,-8.50478067134511e-002

1.41421356237309e+004,-1.34249821992969e+001,-8.62350180555824e-002

1.43395524801583e+004,-1.34249824119570e+001,-8.74388017485958e-002

1.45397251732031e+004,-1.34249826305947e+001,-8.86593891144317e-002

1.47426921729110e+004,-1.34249828553782e+001,-8.98970147001282e-002

1.49484924863494e+004,-1.34249830864802e+001,-9.11519163269502e-002

1.51571656651040e+004,-1.34249833240780e+001,-9.24243351384557e-002

1.53687518128801e+004,-1.34249835683546e+001,-9.37145156358298e-002

1.55832915932100e+004,-1.34249838194973e+001,-9.50227057402651e-002

1.58008262372675e+004,-1.34249840776994e+001,-9.63491568271763e-002

1.60213975517924e+004,-1.34249843431591e+001,-9.76941237822926e-002

1.62450479271247e+004,-1.34249846160805e+001,-9.90578650477356e-002

1.64718203453514e+004,-1.34249848966731e+001,-1.00440642673761e-001

1.67017583885674e+004,-1.34249851851523e+001,-1.01842722365317e-001

1.69349062472505e+004,-1.34249854817403e+001,-1.03264373533650e-001

1.71713087287550e+004,-1.34249857866645e+001,-1.04705869353154e-001

1.74110112659224e+004,-1.34249861001595e+001,-1.06167486807408e-001

1.76540599258131e+004,-1.34249864224658e+001,-1.07649506746341e-001

1.79005014185594e+004,-1.34249867538312e+001,-1.09152213939214e-001

1.81503831063432e+004,-1.34249870945102e+001,-1.10675897126323e-001

1.84037530124975e+004,-1.34249874447645e+001,-1.12220849079552e-001

1.86606598307361e+004,-1.34249878048633e+001,-1.13787366654437e-001

1.89211529345119e+004,-1.34249881750829e+001,-1.15375750849734e-001

1.91852823865052e+004,-1.34249885557080e+001,-1.16986306862576e-001

1.94530989482457e+004,-1.34249889470308e+001,-1.18619344148888e-001

1.97246540898671e+004,-1.34249893493520e+001,-1.20275176482209e-001

1.99999999999999e+004,-1.34249897629806e+001,-1.21954122015223e-001

2.02791895958005e+004,-1.34249901882341e+001,-1.23656503338487e-001

2.05622765331213e+004,-1.34249906254392e+001,-1.25382647543215e-001

2.08493152168224e+004,-1.34249910749319e+001,-1.27132886282842e-001

2.11403608112276e+004,-1.34249915370572e+001,-1.28907555840471e-001

2.14354692507258e+004,-1.34249920121701e+001,-1.30706997189317e-001

2.17346972505211e+004,-1.34249925006355e+001,-1.32531556059576e-001

2.20381023175322e+004,-1.34249930028284e+001,-1.34381583004715e-001

2.23457427614443e+004,-1.34249935191345e+001,-1.36257433468938e-001

2.26576777059159e+004,-1.34249940499503e+001,-1.38159467853636e-001

2.29739670999406e+004,-1.34249945956834e+001,-1.40088051590643e-001

2.32946717293690e+004,-1.34249951567527e+001,-1.42043555206698e-001

2.36198532285905e+004,-1.34249957335893e+001,-1.44026354397530e-001

2.39495740923785e+004,-1.34249963266359e+001,-1.46036830101084e-001

2.42838976879009e+004,-1.34249969363477e+001,-1.48075368568644e-001

2.46228882668982e+004,-1.34249975631930e+001,-1.50142361437778e-001

2.49666109780322e+004,-1.34249982076528e+001,-1.52238205809881e-001

2.53151318794055e+004,-1.34249988702223e+001,-1.54363304323541e-001

2.56685179512580e+004,-1.34249995514097e+001,-1.56518065235760e-001

2.60268371088386e+004,-1.34250002517380e+001,-1.58702902496302e-001

2.63901582154578e+004,-1.34250009717448e+001,-1.60918235828384e-001

2.67585510957221e+004,-1.34250017119828e+001,-1.63164490807518e-001

2.71320865489533e+004,-1.34250024730200e+001,-1.65442098947406e-001

2.75108363627948e+004,-1.34250032554405e+001,-1.67751497777463e-001

2.78948733270080e+004,-1.34250040598449e+001,-1.70093130928383e-001

2.82842712474618e+004,-1.34250048868504e+001,-1.72467448219022e-001

2.86791049603164e+004,-1.34250057370918e+001,-1.74874905739335e-001

2.90794503464061e+004,-1.34250066112212e+001,-1.77315965940900e-001

2.94853843458219e+004,-1.34250075099096e+001,-1.79791097721331e-001

2.98969849726987e+004,-1.34250084338464e+001,-1.82300776517874e-001

3.03143313302078e+004,-1.34250093837403e+001,-1.84845484396869e-001

3.07375036257601e+004,-1.34250103603204e+001,-1.87425710144820e-001

3.11665831864199e+004,-1.34250113643356e+001,-1.90041949363266e-001

3.16016524745350e+004,-1.34250123965560e+001,-1.92694704565306e-001

3.20427951035848e+004,-1.34250134577734e+001,-1.95384485265994e-001

3.24900958542493e+004,-1.34250145488019e+001,-1.98111808085387e-001

3.29436406907028e+004,-1.34250156704781e+001,-2.00877196845455e-001

3.34035167771346e+004,-1.34250168236619e+001,-2.03681182670738e-001

3.38698124945009e+004,-1.34250180092380e+001,-2.06524304085449e-001

3.43426174575100e+004,-1.34250192281153e+001,-2.09407107124021e-001

3.48220225318448e+004,-1.34250204812283e+001,-2.12330145429416e-001

3.53081198516260e+004,-1.34250217695378e+001,-2.15293980360516e-001

3.58010028371187e+004,-1.34250230940314e+001,-2.18299181100192e-001

3.63007662126863e+004,-1.34250244557241e+001,-2.21346324764960e-001

3.68075060249948e+004,-1.34250258556600e+001,-2.24435996509917e-001

3.73213196614721e+004,-1.34250272949117e+001,-2.27568789647170e-001

3.78423058690237e+004,-1.34250287745823e+001,-2.30745305755257e-001

3.83705647730104e+004,-1.34250302958054e+001,-2.33966154794751e-001

3.89061978964912e+004,-1.34250318597468e+001,-2.37231955222529e-001

3.94493081797342e+004,-1.34250334676047e+001,-2.40543334112769e-001

3.99999999999998e+004,-1.34250351206105e+001,-2.43900927277428e-001

4.05583791916010e+004,-1.34250368200308e+001,-2.47305379381320e-001

4.11245530662425e+004,-1.34250385671667e+001,-2.50757344073502e-001

4.16986304336447e+004,-1.34250403633564e+001,-2.54257484103288e-001

4.22807216224550e+004,-1.34250422099754e+001,-2.57806471451576e-001

4.28709385014515e+004,-1.34250441084374e+001,-2.61404987459726e-001

4.34693945010421e+004,-1.34250460601958e+001,-2.65053722955432e-001

4.40762046350642e+004,-1.34250480667446e+001,-2.68753378385835e-001

4.46914855228886e+004,-1.34250501296196e+001,-2.72504663951368e-001

4.53153554118317e+004,-1.34250522503995e+001,-2.76308299740549e-001

4.59479341998812e+004,-1.34250544307070e+001,-2.80165015867028e-001

4.65893434587380e+004,-1.34250566722102e+001,-2.84075552607682e-001

4.72397064571810e+004,-1.34250589766237e+001,-2.88040660544678e-001

4.78991481847569e+004,-1.34250613457103e+001,-2.92061100705284e-001

4.85677953758016e+004,-1.34250637812817e+001,-2.96137644709932e-001

4.92457765337964e+004,-1.34250662852002e+001,-3.00271074916837e-001

4.99332219560642e+004,-1.34250688593801e+001,-3.04462184570136e-001

5.06302637588109e+004,-1.34250715057891e+001,-3.08711777952237e-001

5.13370359025159e+004,-1.34250742264499e+001,-3.13020670532986e-001

5.20536742176771e+004,-1.34250770234416e+001,-3.17389689127742e-001

5.27803164309155e+004,-1.34250798989009e+001,-3.21819672053578e-001

5.35171021914442e+004,-1.34250828550247e+001,-3.26311469285376e-001

5.42641730979066e+004,-1.34250858940706e+001,-3.30865942619213e-001

5.50216727255895e+004,-1.34250890183594e+001,-3.35483965835111e-001

5.57897466540159e+004,-1.34250922302762e+001,-3.40166424863672e-001

5.65685424949235e+004,-1.34250955322731e+001,-3.44914217948677e-001

5.73582099206328e+004,-1.34250989268697e+001,-3.49728255824028e-001

5.81589006928121e+004,-1.34251024166563e+001,-3.54609461880034e-001

5.89707686916437e+004,-1.34251060042952e+001,-3.59558772339421e-001

5.97939699453972e+004,-1.34251096925226e+001,-3.64577136436962e-001

6.06286626604156e+004,-1.34251134841508e+001,-3.69665516593719e-001

6.14750072515201e+004,-1.34251173820705e+001,-3.74824888602365e-001

6.23331663728396e+004,-1.34251213892524e+001,-3.80056241808862e-001

6.32033049490698e+004,-1.34251255087500e+001,-3.85360579301491e-001

6.40855902071694e+004,-1.34251297437013e+001,-3.90738918095836e-001

6.49801917084985e+004,-1.34251340973320e+001,-3.96192289329139e-001

6.58872813814055e+004,-1.34251385729565e+001,-4.01721738453683e-001

6.68070335542691e+004,-1.34251431739818e+001,-4.07328325432525e-001

6.77396249890018e+004,-1.34251479039092e+001,-4.13013124938546e-001

6.86852349150199e+004,-1.34251527663370e+001,-4.18777226558199e-001

6.96440450636895e+004,-1.34251577649631e+001,-4.24621734992645e-001

7.06162397032520e+004,-1.34251629035880e+001,-4.30547770267161e-001

7.16020056742374e+004,-1.34251681861175e+001,-4.36556467940694e-001

7.26015324253724e+004,-1.34251736165653e+001,-4.42648979316628e-001

7.36150120499896e+004,-1.34251791990561e+001,-4.48826471661748e-001

7.46426393229441e+004,-1.34251849378289e+001,-4.55090128420497e-001

7.56846117380472e+004,-1.34251908372395e+001,-4.61441149439192e-001

7.67411295460207e+004,-1.34251969017646e+001,-4.67880751185965e-001

7.78123957929823e+004,-1.34252031360037e+001,-4.74410166982945e-001

7.88986163594682e+004,-1.34252095446838e+001,-4.81030647232513e-001

7.99999999999995e+004,-1.34252161326621e+001,-4.87743459649842e-001

8.11167583832018e+004,-1.34252229049297e+001,-4.94549889500799e-001

8.22491061324848e+004,-1.34252298666153e+001,-5.01451239838245e-001

8.33972608672892e+004,-1.34252370229885e+001,-5.08448831747197e-001

8.45614432449099e+004,-1.34252443794643e+001,-5.15544004586768e-001

8.57418770029029e+004,-1.34252519416064e+001,-5.22738116239651e-001

8.69387890020841e+004,-1.34252597151314e+001,-5.30032543363765e-001

8.81524092701283e+004,-1.34252677059130e+001,-5.37428681646458e-001

8.93829710457770e+004,-1.34252759199861e+001,-5.44927946061881e-001

9.06307108236633e+004,-1.34252843635510e+001,-5.52531771132851e-001

9.18958683997622e+004,-1.34252930429782e+001,-5.60241611194721e-001

9.31786869174758e+004,-1.34253019648124e+001,-5.68058940663870e-001

9.44794129143618e+004,-1.34253111357778e+001,-5.75985254306322e-001

9.57982963695136e+004,-1.34253205627819e+001,-5.84022067517281e-001

9.71355907516031e+004,-1.34253302529216e+001,-5.92170916593010e-001

9.84915530675926e+004,-1.34253402134871e+001,-6.00433359017248e-001

9.98664439121282e+004,-1.34253504519679e+001,-6.08810973742649e-001

1.01260527517622e+005,-1.34253609760572e+001,-6.17305361482094e-001

1.02674071805032e+005,-1.34253717936581e+001,-6.25918144998108e-001

1.04107348435354e+005,-1.34253829128884e+001,-6.34650969401397e-001

1.05560632861831e+005,-1.34253943420870e+001,-6.43505502445795e-001

1.07034204382888e+005,-1.34254060898187e+001,-6.52483434837211e-001

1.08528346195813e+005,-1.34254181648812e+001,-6.61586480534202e-001

1.10043345451179e+005,-1.34254305763103e+001,-6.70816377062997e-001

1.11579493308032e+005,-1.34254433333866e+001,-6.80174885828275e-001

1.13137084989847e+005,-1.34254564456417e+001,-6.89663792433066e-001

1.14716419841265e+005,-1.34254699228643e+001,-6.99284907000953e-001

1.16317801385624e+005,-1.34254837751079e+001,-7.09040064498423e-001

1.17941537383287e+005,-1.34254980126964e+001,-7.18931125068307e-001

1.19587939890794e+005,-1.34255126462318e+001,-7.28959974360353e-001

1.21257325320831e+005,-1.34255276866013e+001,-7.39128523869393e-001

1.22950014503040e+005,-1.34255431449841e+001,-7.49438711276838e-001

1.24666332745679e+005,-1.34255590328594e+001,-7.59892500795626e-001

1.26406609898139e+005,-1.34255753620135e+001,-7.70491883519854e-001

1.28171180414339e+005,-1.34255921445484e+001,-7.81238877776313e-001

1.29960383416997e+005,-1.34256093928885e+001,-7.92135529484530e-001

1.31774562762811e+005,-1.34256271197902e+001,-8.03183912515261e-001

1.33614067108538e+005,-1.34256453383487e+001,-8.14386129059426e-001

1.35479249978003e+005,-1.34256640620080e+001,-8.25744309993518e-001

1.37370469830040e+005,-1.34256833045682e+001,-8.37260615257656e-001

1.39288090127379e+005,-1.34257030801953e+001,-8.48937234229954e-001

1.41232479406504e+005,-1.34257234034299e+001,-8.60776386110719e-001

1.43204011348474e+005,-1.34257442891960e+001,-8.72780320308447e-001

1.45203064850745e+005,-1.34257657528113e+001,-8.84951316830869e-001

1.47230024099979e+005,-1.34257878099962e+001,-8.97291686677439e-001

1.49285278645888e+005,-1.34258104768834e+001,-9.09803772241980e-001

1.51369223476094e+005,-1.34258337700284e+001,-9.22489947712767e-001

1.53482259092041e+005,-1.34258577064195e+001,-9.35352619482352e-001

1.55624791585964e+005,-1.34258823034878e+001,-9.48394226558583e-001

1.57797232718936e+005,-1.34259075791183e+001,-9.61617240981314e-001

1.59999999999999e+005,-1.34259335516602e+001,-9.75024168242222e-001

1.62233516766403e+005,-1.34259602399381e+001,-9.88617547710650e-001

1.64498212264969e+005,-1.34259876632631e+001,-1.00239995306185e+000

1.66794521734578e+005,-1.34260158414440e+001,-1.01637399271156e+000

1.69122886489819e+005,-1.34260447947989e+001,-1.03054231025388e+000

1.71483754005805e+005,-1.34260745441667e+001,-1.04490758490276e+000

1.73877578004168e+005,-1.34261051109196e+001,-1.05947253193881e+000

1.76304818540256e+005,-1.34261365169744e+001,-1.07423990316139e+000

1.78765942091554e+005,-1.34261687848054e+001,-1.08921248734266e+000

1.81261421647326e+005,-1.34262019374563e+001,-1.10439311068861e+000

1.83791736799524e+005,-1.34262359985532e+001,-1.11978463730124e+000

1.86357373834951e+005,-1.34262709923175e+001,-1.13538996964849e+000

1.88958825828723e+005,-1.34263069435784e+001,-1.15121204903728e+000

1.91596592739027e+005,-1.34263438777864e+001,-1.16725385608907e+000

1.94271181503206e+005,-1.34263818210267e+001,-1.18351841122222e+000

1.96983106135185e+005,-1.34264208000319e+001,-1.20000877513823e+000

1.99732887824256e+005,-1.34264608421969e+001,-1.21672804930945e+000

2.02521055035243e+005,-1.34265019755912e+001,-1.23367937647686e+000

2.05348143610063e+005,-1.34265442289738e+001,-1.25086594114578e+000

2.08214696870707e+005,-1.34265876318068e+001,-1.26829097008936e+000

2.11121265723661e+005,-1.34266322142694e+001,-1.28595773285615e+000

2.14068408765776e+005,-1.34266780072724e+001,-1.30386954228165e+000

2.17056692391625e+005,-1.34267250424720e+001,-1.32202975500225e+000

2.20086690902357e+005,-1.34267733522850e+001,-1.34044177197656e+000

2.23158986616063e+005,-1.34268229699023e+001,-1.35910903900786e+000

2.26274169979693e+005,-1.34268739293039e+001,-1.37803504727364e+000

2.29432839682530e+005,-1.34269262652735e+001,-1.39722333385577e+000

2.32635602771247e+005,-1.34269800134127e+001,-1.41667748227776e+000

2.35883074766574e+005,-1.34270352101556e+001,-1.43640112304519e+000

2.39175879781588e+005,-1.34270918927837e+001,-1.45639793418907e+000

2.42514650641661e+005,-1.34271500994398e+001,-1.47667164181539e+000

2.45900029006080e+005,-1.34272098691427e+001,-1.49722602065620e+000

2.49332665491357e+005,-1.34272712418017e+001,-1.51806489462681e+000

2.52813219796278e+005,-1.34273342582303e+001,-1.53919213738590e+000

2.56342360828676e+005,-1.34273989601606e+001,-1.56061167289983e+000

2.59920766833993e+005,-1.34274653902574e+001,-1.58232747601056e+000

2.63549125525621e+005,-1.34275335921315e+001,-1.60434357300819e+000

2.67228134217075e+005,-1.34276036103531e+001,-1.62666404220705e+000

2.70958499956006e+005,-1.34276754904656e+001,-1.64929301452554e+000

2.74740939660078e+005,-1.34277492789977e+001,-1.67223467407094e+000

2.78576180254757e+005,-1.34278250234768e+001,-1.69549325872513e+000

2.82464958813007e+005,-1.34279027724405e+001,-1.71907306073989e+000

2.86408022696948e+005,-1.34279825754489e+001,-1.74297842732888e+000

2.90406129701488e+005,-1.34280644830953e+001,-1.76721376127071e+000

2.94460048199957e+005,-1.34281485470176e+001,-1.79178352151117e+000

2.98570557291775e+005,-1.34282348199083e+001,-1.81669222377045e+000

3.02738446952187e+005,-1.34283233555241e+001,-1.84194444115692e+000

3.06964518184081e+005,-1.34284142086949e+001,-1.86754480478207e+000

3.11249583171928e+005,-1.34285074353322e+001,-1.89349800438077e+000

3.15594465437872e+005,-1.34286030924362e+001,-1.91980878893640e+000

3.19999999999997e+005,-1.34287012381029e+001,-1.94648196730964e+000

3.24467033532806e+005,-1.34288019315296e+001,-1.97352240887217e+000

3.28996424529938e+005,-1.34289052330198e+001,-2.00093504414379e+000

3.33589043469155e+005,-1.34290112039868e+001,-2.02872486543724e+000

3.38245772979638e+005,-1.34291199069566e+001,-2.05689692750387e+000

3.42967508011610e+005,-1.34292314055690e+001,-2.08545634818818e+000

3.47755156008335e+005,-1.34293457645782e+001,-2.11440830908455e+000

3.52609637080511e+005,-1.34294630498516e+001,-2.14375805620163e+000

3.57531884183106e+005,-1.34295833283668e+001,-2.17351090063201e+000

3.62522843294651e+005,-1.34297066682084e+001,-2.20367221922614e+000

3.67583473599047e+005,-1.34298331385616e+001,-2.23424745527601e+000

3.72714747669902e+005,-1.34299628097054e+001,-2.26524211920062e+000

3.77917651657445e+005,-1.34300957530035e+001,-2.29666178924369e+000

3.83193185478053e+005,-1.34302320408929e+001,-2.32851211217482e+000

3.88542363006410e+005,-1.34303717468716e+001,-2.36079880399962e+000

3.93966212270369e+005,-1.34305149454832e+001,-2.39352765067829e+000

3.99465775648511e+005,-1.34306617123003e+001,-2.42670450885292e+000

4.05042110070485e+005,-1.34308121239045e+001,-2.46033530658364e+000

4.10696287220124e+005,-1.34309662578650e+001,-2.49442604409394e+000

4.16429393741414e+005,-1.34311241927146e+001,-2.52898279452841e+000

4.22242531447321e+005,-1.34312860079224e+001,-2.56401170471933e+000

4.28136817531551e+005,-1.34314517838646e+001,-2.59951899596576e+000

4.34113384783250e+005,-1.34316216017922e+001,-2.63551096482618e+000

4.40173381804713e+005,-1.34317955437957e+001,-2.67199398392289e+000

4.46317973232124e+005,-1.34319736927670e+001,-2.70897450276130e+000

4.52548339959385e+005,-1.34321561323581e+001,-2.74645904856473e+000

4.58865679365059e+005,-1.34323429469361e+001,-2.78445422712517e+000

4.65271205542494e+005,-1.34325342215358e+001,-2.82296672367058e+000

4.71766149533147e+005,-1.34327300418080e+001,-2.86200330375045e+000

4.78351759563174e+005,-1.34329304939647e+001,-2.90157081414230e+000

4.85029301283321e+005,-1.34331356647203e+001,-2.94167618377713e+000

4.91800058012158e+005,-1.34333456412296e+001,-2.98232642468765e+000

4.98665330982714e+005,-1.34335605110212e+001,-3.02352863297978e+000

5.05626439592555e+005,-1.34337803619277e+001,-3.06528998982854e+000

5.12684721657352e+005,-1.34340052820111e+001,-3.10761776250133e+000

5.19841533667984e+005,-1.34342353594853e+001,-3.15051930540766e+000

5.27098251051240e+005,-1.34344706826328e+001,-3.19400206118018e+000

5.34456268434150e+005,-1.34347113397186e+001,-3.23807356178514e+000

5.41916999912011e+005,-1.34349574188991e+001,-3.28274142966747e+000

