Freq.,VOut,OutRef

1.00000000000000e+004,-1.00089749961149e+001,-2.86320377550914e-002

1.01395947979003e+004,-1.00089750120013e+001,-2.90317252523659e-002

1.02811382665607e+004,-1.00089750283337e+001,-2.94369921471919e-002

1.04246576084112e+004,-1.00089750451257e+001,-2.98479163152942e-002

1.05701804056138e+004,-1.00089750623892e+001,-3.02645767353077e-002

1.07177346253629e+004,-1.00089750801383e+001,-3.06870534750591e-002

1.08673486252606e+004,-1.00089750983862e+001,-3.11154277287041e-002

1.10190511587661e+004,-1.00089751171471e+001,-3.15497818188210e-002

1.11728713807222e+004,-1.00089751364356e+001,-3.19901992183392e-002

1.13288388529580e+004,-1.00089751562662e+001,-3.24367645682553e-002

1.14869835499703e+004,-1.00089751766541e+001,-3.28895636882005e-002

1.16473358646846e+004,-1.00089751976151e+001,-3.33486835954311e-002

1.18099266142953e+004,-1.00089752191656e+001,-3.38142125208924e-002

1.19747870461893e+004,-1.00089752413217e+001,-3.42862399323802e-002

1.21419488439505e+004,-1.00089752641006e+001,-3.47648565414006e-002

1.23114441334492e+004,-1.00089752875197e+001,-3.52501543272297e-002

1.24833054890161e+004,-1.00089753115971e+001,-3.57422265535207e-002

1.26575659397028e+004,-1.00089753363514e+001,-3.62411677831694e-002

1.28342589756290e+004,-1.00089753618015e+001,-3.67470739028905e-002

1.30134185544193e+004,-1.00089753879670e+001,-3.72600421353005e-002

1.31950791077289e+004,-1.00089754148677e+001,-3.77801710624770e-002

1.33792755478611e+004,-1.00089754425249e+001,-3.83075606376102e-002

1.35660432744767e+004,-1.00089754709595e+001,-3.88423122129050e-002

1.37554181813974e+004,-1.00089755001931e+001,-3.93845285569617e-002

1.39474366635040e+004,-1.00089755302487e+001,-3.99343138671540e-002

1.41421356237309e+004,-1.00089755611488e+001,-4.04917738016049e-002

1.43395524801583e+004,-1.00089755929177e+001,-4.10570154874104e-002

1.45397251732031e+004,-1.00089756255794e+001,-4.16301475509057e-002

1.47426921729110e+004,-1.00089756591594e+001,-4.22112801317279e-002

1.49484924863494e+004,-1.00089756936829e+001,-4.28005249125134e-002

1.51571656651040e+004,-1.00089757291770e+001,-4.33979951263888e-002

1.53687518128801e+004,-1.00089757656687e+001,-4.40038055922567e-002

1.55832915932100e+004,-1.00089758031858e+001,-4.46180727327407e-002

1.58008262372675e+004,-1.00089758417577e+001,-4.52409145903585e-002

1.60213975517924e+004,-1.00089758814138e+001,-4.58724508580604e-002

1.62450479271247e+004,-1.00089759221842e+001,-4.65128029022926e-002

1.64718203453514e+004,-1.00089759641007e+001,-4.71620937783037e-002

1.67017583885674e+004,-1.00089760071952e+001,-4.78204482628412e-002

1.69349062472505e+004,-1.00089760515011e+001,-4.84879928703256e-002

1.71713087287550e+004,-1.00089760970520e+001,-4.91648558854330e-002

1.74110112659224e+004,-1.00089761438831e+001,-4.98511673813352e-002

1.76540599258131e+004,-1.00089761920306e+001,-5.05470592435607e-002

1.79005014185594e+004,-1.00089762415310e+001,-5.12526652044667e-002

1.81503831063432e+004,-1.00089762924229e+001,-5.19681208568587e-002

1.84037530124975e+004,-1.00089763447449e+001,-5.26935636909454e-002

1.86606598307361e+004,-1.00089763985373e+001,-5.34291331141705e-002

1.89211529345119e+004,-1.00089764538416e+001,-5.41749704771786e-002

1.91852823865052e+004,-1.00089765107001e+001,-5.49312191063308e-002

1.94530989482457e+004,-1.00089765691567e+001,-5.56980243273069e-002

1.97246540898671e+004,-1.00089766292558e+001,-5.64755334956986e-002

1.99999999999999e+004,-1.00089766910440e+001,-5.72638960206232e-002

2.02791895958005e+004,-1.00089767545684e+001,-5.80632633990333e-002

2.05622765331213e+004,-1.00089768198780e+001,-5.88737892407701e-002

2.08493152168224e+004,-1.00089768870232e+001,-5.96956292977603e-002

2.11403608112276e+004,-1.00089769560549e+001,-6.05289415024019e-002

2.14354692507258e+004,-1.00089770270266e+001,-6.13738859823449e-002

2.17346972505211e+004,-1.00089770999927e+001,-6.22306251054496e-002

2.20381023175322e+004,-1.00089771750090e+001,-6.30993235052034e-002

2.23457427614443e+004,-1.00089772521332e+001,-6.39801481119208e-002

2.26576777059159e+004,-1.00089773314248e+001,-6.48732681825078e-002

2.29739670999406e+004,-1.00089774129443e+001,-6.57788553415773e-002

2.32946717293690e+004,-1.00089774967543e+001,-6.66970836056878e-002

2.36198532285905e+004,-1.00089775829193e+001,-6.76281294192352e-002

2.39495740923785e+004,-1.00089776715052e+001,-6.85721716911121e-002

2.42838976879009e+004,-1.00089777625803e+001,-6.95293918244987e-002

2.46228882668982e+004,-1.00089778562143e+001,-7.04999737554925e-002

2.49666109780322e+004,-1.00089779524788e+001,-7.14841039887405e-002

2.53151318794055e+004,-1.00089780514481e+001,-7.24819716265947e-002

2.56685179512580e+004,-1.00089781531978e+001,-7.34937684155909e-002

2.60268371088386e+004,-1.00089782578063e+001,-7.45196887732010e-002

2.63901582154578e+004,-1.00089783653539e+001,-7.55599298319879e-002

2.67585510957221e+004,-1.00089784759224e+001,-7.66146914799685e-002

2.71320865489533e+004,-1.00089785895976e+001,-7.76841763841149e-002

2.75108363627948e+004,-1.00089787064659e+001,-7.87685900495702e-002

2.78948733270080e+004,-1.00089788266174e+001,-7.98681408414899e-002

2.82842712474618e+004,-1.00089789501441e+001,-8.09830400381460e-002

2.86791049603164e+004,-1.00089790771406e+001,-8.21135018622318e-002

2.90794503464061e+004,-1.00089792077045e+001,-8.32597435265387e-002

2.94853843458219e+004,-1.00089793419360e+001,-8.44219852741121e-002

2.98969849726987e+004,-1.00089794799377e+001,-8.56004504225770e-002

3.03143313302078e+004,-1.00089796218156e+001,-8.67953654044304e-002

3.07375036257601e+004,-1.00089797676786e+001,-8.80069598106159e-002

3.11665831864199e+004,-1.00089799176382e+001,-8.92354664368900e-002

3.16016524745350e+004,-1.00089800718094e+001,-9.04811213272026e-002

3.20427951035848e+004,-1.00089802303107e+001,-9.17441638158354e-002

3.24900958542493e+004,-1.00089803932633e+001,-9.30248365783730e-002

3.29436406907028e+004,-1.00089805607920e+001,-9.43233856778442e-002

3.34035167771346e+004,-1.00089807330256e+001,-9.56400606049922e-002

3.38698124945009e+004,-1.00089809100954e+001,-9.69751143384385e-002

3.43426174575100e+004,-1.00089810921378e+001,-9.83288033773594e-002

3.48220225318448e+004,-1.00089812792915e+001,-9.97013878078610e-002

3.53081198516260e+004,-1.00089814717005e+001,-1.01093131336763e-001

3.58010028371187e+004,-1.00089816695119e+001,-1.02504301354097e-001

3.63007662126863e+004,-1.00089818728770e+001,-1.03935168980510e-001

3.68075060249948e+004,-1.00089820819518e+001,-1.05386009115247e-001

3.73213196614721e+004,-1.00089822968962e+001,-1.06857100494256e-001

3.78423058690237e+004,-1.00089825178750e+001,-1.08348725740311e-001

3.83705647730104e+004,-1.00089827450569e+001,-1.09861171420442e-001

3.89061978964912e+004,-1.00089829786162e+001,-1.11394728095663e-001

3.94493081797342e+004,-1.00089832187315e+001,-1.12949690382462e-001

3.99999999999998e+004,-1.00089834655864e+001,-1.14526357005829e-001

4.05583791916010e+004,-1.00089837193701e+001,-1.16125030855034e-001

4.11245530662425e+004,-1.00089839802764e+001,-1.17746019047212e-001

4.16986304336447e+004,-1.00089842485050e+001,-1.19389632979591e-001

4.22807216224550e+004,-1.00089845242609e+001,-1.21056188395127e-001

4.28709385014515e+004,-1.00089848077552e+001,-1.22746005436782e-001

4.34693945010421e+004,-1.00089850992045e+001,-1.24459408713719e-001

4.40762046350642e+004,-1.00089853988315e+001,-1.26196727363054e-001

4.46914855228886e+004,-1.00089857068653e+001,-1.27958295109694e-001

4.53153554118317e+004,-1.00089860235412e+001,-1.29744450332606e-001

4.59479341998812e+004,-1.00089863491014e+001,-1.31555536127675e-001

4.65893434587380e+004,-1.00089866837942e+001,-1.33391900378660e-001

4.72397064571810e+004,-1.00089870278756e+001,-1.35253895815218e-001

4.78991481847569e+004,-1.00089873816079e+001,-1.37141880088905e-001

4.85677953758016e+004,-1.00089877452616e+001,-1.39056215832667e-001

4.92457765337964e+004,-1.00089881191141e+001,-1.40997270740340e-001

4.99332219560642e+004,-1.00089885034507e+001,-1.42965417628874e-001

5.06302637588109e+004,-1.00089888985647e+001,-1.44961034511753e-001

5.13370359025159e+004,-1.00089893047577e+001,-1.46984504673812e-001

5.20536742176771e+004,-1.00089897223390e+001,-1.49036216743889e-001

5.27803164309155e+004,-1.00089901516274e+001,-1.51116564763108e-001

5.35171021914442e+004,-1.00089905929501e+001,-1.53225948268998e-001

5.42641730979066e+004,-1.00089910466433e+001,-1.55364772366032e-001

5.50216727255895e+004,-1.00089915130529e+001,-1.57533447804859e-001

5.57897466540159e+004,-1.00089919925339e+001,-1.59732391061187e-001

5.65685424949235e+004,-1.00089924854520e+001,-1.61962024411547e-001

5.73582099206328e+004,-1.00089929921819e+001,-1.64222776022041e-001

5.81589006928121e+004,-1.00089935131097e+001,-1.66515080020665e-001

5.89707686916437e+004,-1.00089940486317e+001,-1.68839376586680e-001

5.97939699453972e+004,-1.00089945991552e+001,-1.71196112030956e-001

6.06286626604156e+004,-1.00089951650989e+001,-1.73585738883571e-001

6.14750072515201e+004,-1.00089957468932e+001,-1.76008715978384e-001

6.23331663728396e+004,-1.00089963449803e+001,-1.78465508540905e-001

6.32033049490698e+004,-1.00089969598144e+001,-1.80956588278438e-001

6.40855902071694e+004,-1.00089975918627e+001,-1.83482433467822e-001

6.49801917084985e+004,-1.00089982416048e+001,-1.86043529047881e-001

6.58872813814055e+004,-1.00089989095344e+001,-1.88640366708679e-001

6.68070335542691e+004,-1.00089995961577e+001,-1.91273444993380e-001

6.77396249890018e+004,-1.00090003019959e+001,-1.93943269381641e-001

6.86852349150199e+004,-1.00090010275840e+001,-1.96650352395206e-001

6.96440450636895e+004,-1.00090017734719e+001,-1.99395213691539e-001

7.06162397032520e+004,-1.00090025402248e+001,-2.02178380161945e-001

7.16020056742374e+004,-1.00090033284231e+001,-2.05000386034912e-001

7.26015324253724e+004,-1.00090041386635e+001,-2.07861772974312e-001

7.36150120499896e+004,-1.00090049715591e+001,-2.10763090183401e-001

7.46426393229441e+004,-1.00090058277397e+001,-2.13704894509643e-001

7.56846117380472e+004,-1.00090067078525e+001,-2.16687750551497e-001

7.67411295460207e+004,-1.00090076125625e+001,-2.19712230763561e-001

7.78123957929823e+004,-1.00090085425531e+001,-2.22778915564802e-001

7.88986163594682e+004,-1.00090094985258e+001,-2.25888393453783e-001

7.99999999999995e+004,-1.00090104812024e+001,-2.29041261110679e-001

8.11167583832018e+004,-1.00090114913232e+001,-2.32238123522566e-001

8.22491061324848e+004,-1.00090125296498e+001,-2.35479594087457e-001

8.33972608672892e+004,-1.00090135969643e+001,-2.38766294734787e-001

8.45614432449099e+004,-1.00090146940698e+001,-2.42098856046928e-001

8.57418770029029e+004,-1.00090158217919e+001,-2.45477917370447e-001

8.69387890020841e+004,-1.00090169809783e+001,-2.48904126943380e-001

8.81524092701283e+004,-1.00090181725000e+001,-2.52378142017053e-001

8.93829710457770e+004,-1.00090193972515e+001,-2.55900628978031e-001

9.06307108236633e+004,-1.00090206561521e+001,-2.59472263473883e-001

9.18958683997622e+004,-1.00090219501455e+001,-2.63093730545488e-001

9.31786869174758e+004,-1.00090232802014e+001,-2.66765724751173e-001

9.44794129143618e+004,-1.00090246473157e+001,-2.70488950298860e-001

9.57982963695136e+004,-1.00090260525113e+001,-2.74264121181555e-001

9.71355907516031e+004,-1.00090274968387e+001,-2.78091961309475e-001

9.84915530675926e+004,-1.00090289813769e+001,-2.81973204646883e-001

9.98664439121282e+004,-1.00090305072341e+001,-2.85908595350988e-001

1.01260527517622e+005,-1.00090320755482e+001,-2.89898887911698e-001

1.02674071805032e+005,-1.00090336874876e+001,-2.93944847294391e-001

1.04107348435354e+005,-1.00090353442529e+001,-2.98047249079281e-001

1.05560632861831e+005,-1.00090370470760e+001,-3.02206879615837e-001

1.07034204382888e+005,-1.00090387972226e+001,-3.06424536161363e-001

1.08528346195813e+005,-1.00090405959918e+001,-3.10701027036682e-001

1.10043345451179e+005,-1.00090424447179e+001,-3.15037171775156e-001

1.11579493308032e+005,-1.00090443447705e+001,-3.19433801276773e-001

1.13137084989847e+005,-1.00090462975560e+001,-3.23891757963593e-001

1.14716419841265e+005,-1.00090483045182e+001,-3.28411895938459e-001

1.16317801385624e+005,-1.00090503671391e+001,-3.32995081144079e-001

1.17941537383287e+005,-1.00090524869403e+001,-3.37642191523925e-001

1.19587939890794e+005,-1.00090546654838e+001,-3.42354117187721e-001

1.21257325320831e+005,-1.00090569043728e+001,-3.47131760576525e-001

1.22950014503040e+005,-1.00090592052528e+001,-3.51976036632161e-001

1.24666332745679e+005,-1.00090615698128e+001,-3.56887872967216e-001

1.26406609898139e+005,-1.00090639997862e+001,-3.61868210037004e-001

1.28171180414339e+005,-1.00090664969520e+001,-3.66918001315343e-001

1.29960383416997e+005,-1.00090690631358e+001,-3.72038213472256e-001

1.31774562762811e+005,-1.00090717002110e+001,-3.77229826551326e-001

1.33614067108538e+005,-1.00090744100999e+001,-3.82493834155189e-001

1.35479249978003e+005,-1.00090771947748e+001,-3.87831243625805e-001

1.37370469830040e+005,-1.00090800562592e+001,-3.93243076234956e-001

1.39288090127379e+005,-1.00090829966293e+001,-3.98730367369212e-001

1.41232479406504e+005,-1.00090860180149e+001,-4.04294166724293e-001

1.43204011348474e+005,-1.00090891226007e+001,-4.09935538497768e-001

1.45203064850745e+005,-1.00090923126275e+001,-4.15655561585818e-001

1.47230024099979e+005,-1.00090955903940e+001,-4.21455329781617e-001

1.49285278645888e+005,-1.00090989582572e+001,-4.27335951977582e-001

1.51369223476094e+005,-1.00091024186346e+001,-4.33298552368200e-001

1.53482259092041e+005,-1.00091059740052e+001,-4.39344270656546e-001

1.55624791585964e+005,-1.00091096269108e+001,-4.45474262264491e-001

1.57797232718936e+005,-1.00091133799574e+001,-4.51689698544430e-001

1.59999999999999e+005,-1.00091172358169e+001,-4.57991766991410e-001

1.62233516766403e+005,-1.00091211972281e+001,-4.64381671464463e-001

1.64498212264969e+005,-1.00091252669982e+001,-4.70860632402844e-001

1.66794521734578e+005,-1.00091294480051e+001,-4.77429887047702e-001

1.69122886489819e+005,-1.00091337431975e+001,-4.84090689673119e-001

1.71483754005805e+005,-1.00091381555973e+001,-4.90844311809038e-001

1.73877578004168e+005,-1.00091426883011e+001,-4.97692042473173e-001

1.76304818540256e+005,-1.00091473444813e+001,-5.04635188406471e-001

1.78765942091554e+005,-1.00091521273879e+001,-5.11675074308621e-001

1.81261421647326e+005,-1.00091570403502e+001,-5.18813043078102e-001

1.83791736799524e+005,-1.00091620867778e+001,-5.26050456054606e-001

1.86357373834951e+005,-1.00091672701629e+001,-5.33388693265176e-001

1.88958825828723e+005,-1.00091725940811e+001,-5.40829153671636e-001

1.91596592739027e+005,-1.00091780621939e+001,-5.48373255422647e-001

1.94271181503206e+005,-1.00091836782491e+001,-5.56022436108687e-001

1.96983106135185e+005,-1.00091894460835e+001,-5.63778153020849e-001

1.99732887824256e+005,-1.00091953696238e+001,-5.71641883407945e-001

2.02521055035243e+005,-1.00092014528884e+001,-5.79615124744380e-001

2.05348143610063e+005,-1.00092076999891e+001,-5.87699394995622e-001

2.08214696870707e+005,-1.00092141151320e+001,-5.95896232888773e-001

2.11121265723661e+005,-1.00092207026202e+001,-6.04207198185566e-001

2.14068408765776e+005,-1.00092274668541e+001,-6.12633871960272e-001

2.17056692391625e+005,-1.00092344123338e+001,-6.21177856878999e-001

2.20086690902357e+005,-1.00092415436603e+001,-6.29840777482975e-001

2.23158986616063e+005,-1.00092488655368e+001,-6.38624280476621e-001

2.26274169979693e+005,-1.00092563827703e+001,-6.47530035015620e-001

2.29432839682530e+005,-1.00092641002730e+001,-6.56559733002740e-001

2.32635602771247e+005,-1.00092720230637e+001,-6.65715089382973e-001

2.35883074766574e+005,-1.00092801562690e+001,-6.74997842445475e-001

2.39175879781588e+005,-1.00092885051247e+001,-6.84409754127446e-001

2.42514650641661e+005,-1.00092970749770e+001,-6.93952610319599e-001

2.45900029006080e+005,-1.00093058712836e+001,-7.03628221180385e-001

2.49332665491357e+005,-1.00093148996147e+001,-7.13438421449164e-001

2.52813219796278e+005,-1.00093241656545e+001,-7.23385070764569e-001

2.56342360828676e+005,-1.00093336752014e+001,-7.33470053987098e-001

2.59920766833993e+005,-1.00093434341697e+001,-7.43695281524368e-001

2.63549125525621e+005,-1.00093534485897e+001,-7.54062689661283e-001

2.67228134217075e+005,-1.00093637246086e+001,-7.64574240894206e-001

2.70958499956006e+005,-1.00093742684914e+001,-7.75231924265536e-001

2.74740939660078e+005,-1.00093850866207e+001,-7.86037755708646e-001

2.78576180254757e+005,-1.00093961854976e+001,-7.96993778389628e-001

2.82464958813007e+005,-1.00094075717416e+001,-8.08102063058192e-001

2.86408022696948e+005,-1.00094192520906e+001,-8.19364708401482e-001

2.90406129701488e+005,-1.00094312334010e+001,-8.30783841399064e-001

2.94460048199957e+005,-1.00094435226475e+001,-8.42361617686174e-001

2.98570557291775e+005,-1.00094561269221e+001,-8.54100221918187e-001

3.02738446952187e+005,-1.00094690534341e+001,-8.66001868141230e-001

3.06964518184081e+005,-1.00094823095089e+001,-8.78068800166257e-001

3.11249583171928e+005,-1.00094959025869e+001,-8.90303291946795e-001

3.15594465437872e+005,-1.00095098402226e+001,-9.02707647962009e-001

3.19999999999997e+005,-1.00095241300823e+001,-9.15284203606026e-001

3.24467033532806e+005,-1.00095387799433e+001,-9.28035325576705e-001

3.28996424529938e+005,-1.00095537976909e+001,-9.40963412274998e-001

3.33589043469155e+005,-1.00095691913169e+001,-9.54070894205037e-001

3.38245772979638e+005,-1.00095849689160e+001,-9.67360234381055e-001

3.42967508011610e+005,-1.00096011386838e+001,-9.80833928737871e-001

3.47755156008335e+005,-1.00096177089127e+001,-9.94494506547873e-001

3.52609637080511e+005,-1.00096346879886e+001,-1.00834453084088e+000

3.57531884183106e+005,-1.00096520843866e+001,-1.02238659883298e+000

3.62522843294651e+005,-1.00096699066671e+001,-1.03662334235505e+000

3.67583473599047e+005,-1.00096881634701e+001,-1.05105742829264e+000

3.72714747669902e+005,-1.00097068635104e+001,-1.06569155902802e+000

3.77917651657445e+005,-1.00097260155720e+001,-1.08052847288758e+000

3.83193185478053e+005,-1.00097456285012e+001,-1.09557094459763e+000

3.88542363006410e+005,-1.00097657112005e+001,-1.11082178574325e+000

3.93966212270369e+005,-1.00097862726210e+001,-1.12628384523567e+000

3.99465775648511e+005,-1.00098073217546e+001,-1.14196000978384e+000

4.05042110070485e+005,-1.00098288676255e+001,-1.15785320437449e+000

4.10696287220124e+005,-1.00098509192815e+001,-1.17396639275723e+000

4.16429393741414e+005,-1.00098734857839e+001,-1.19030257793777e+000

4.22242531447321e+005,-1.00098965761979e+001,-1.20686480267599e+000

4.28136817531551e+005,-1.00099201995810e+001,-1.22365614999332e+000

4.34113384783250e+005,-1.00099443649717e+001,-1.24067974368821e+000

4.40173381804713e+005,-1.00099690813770e+001,-1.25793874885610e+000

4.46317973232124e+005,-1.00099943577593e+001,-1.27543637242015e+000

4.52548339959385e+005,-1.00100202030227e+001,-1.29317586366875e+000

4.58865679365059e+005,-1.00100466259981e+001,-1.31116051480209e+000

4.65271205542494e+005,-1.00100736354274e+001,-1.32939366148807e+000

4.71766149533147e+005,-1.00101012399478e+001,-1.34787868342478e+000

4.78351759563174e+005,-1.00101294480741e+001,-1.36661900491513e+000

4.85029301283321e+005,-1.00101582681803e+001,-1.38561809545036e+000

4.91800058012158e+005,-1.00101877084812e+001,-1.40487947030102e+000

4.98665330982714e+005,-1.00102177770117e+001,-1.42440669112389e+000

5.05626439592555e+005,-1.00102484816060e+001,-1.44420336657277e+000

5.12684721657352e+005,-1.00102798298757e+001,-1.46427315292603e+000

5.19841533667984e+005,-1.00103118291865e+001,-1.48461975472210e+000

5.27098251051240e+005,-1.00103444866345e+001,-1.50524692540975e+000

5.34456268434150e+005,-1.00103778090204e+001,-1.52615846800692e+000

5.41916999912011e+005,-1.00104118028239e+001,-1.54735823577754e+000

