Freq.,VOut,OutRef

1.00000000000000e+004,-1.27297170977223e+001,-9.99760060586866e-002

1.01395947979003e+004,-1.27297171827299e+001,-1.01371615413044e-001

1.02811382665607e+004,-1.27297172701273e+001,-1.02786706590130e-001

1.04246576084112e+004,-1.27297173599814e+001,-1.04221551542358e-001

1.05701804056138e+004,-1.27297174523615e+001,-1.05676426013424e-001

1.07177346253629e+004,-1.27297175473385e+001,-1.07151609598132e-001

1.08673486252606e+004,-1.27297176449854e+001,-1.08647385793291e-001

1.10190511587661e+004,-1.27297177453772e+001,-1.10164042054205e-001

1.11728713807222e+004,-1.27297178485912e+001,-1.11701869846086e-001

1.13288388529580e+004,-1.27297179547066e+001,-1.13261164705212e-001

1.14869835499703e+004,-1.27297180638048e+001,-1.14842226292193e-001

1.16473358646846e+004,-1.27297181759702e+001,-1.16445358446909e-001

1.18099266142953e+004,-1.27297182912884e+001,-1.18070869257307e-001

1.19747870461893e+004,-1.27297184098482e+001,-1.19719071106003e-001

1.21419488439505e+004,-1.27297185317410e+001,-1.21390280736008e-001

1.23114441334492e+004,-1.27297186570599e+001,-1.23084819316864e-001

1.24833054890161e+004,-1.27297187859018e+001,-1.24803012493674e-001

1.26575659397028e+004,-1.27297189183654e+001,-1.26545190461698e-001

1.28342589756290e+004,-1.27297190545526e+001,-1.28311688023959e-001

1.30134185544193e+004,-1.27297191945680e+001,-1.30102844655822e-001

1.31950791077289e+004,-1.27297193385192e+001,-1.31919004571689e-001

1.33792755478611e+004,-1.27297194865169e+001,-1.33760516790580e-001

1.35660432744767e+004,-1.27297196386746e+001,-1.35627735203797e-001

1.37554181813974e+004,-1.27297197951094e+001,-1.37521018640225e-001

1.39474366635040e+004,-1.27297199559416e+001,-1.39440730937465e-001

1.41421356237309e+004,-1.27297201212946e+001,-1.41387241013287e-001

1.43395524801583e+004,-1.27297202912955e+001,-1.43360922932850e-001

1.45397251732031e+004,-1.27297204660750e+001,-1.45362155982930e-001

1.47426921729110e+004,-1.27297206457672e+001,-1.47391324745406e-001

1.49484924863494e+004,-1.27297208305105e+001,-1.49448819166796e-001

1.51571656651040e+004,-1.27297210204466e+001,-1.51535034638836e-001

1.53687518128801e+004,-1.27297212157213e+001,-1.53650372072635e-001

1.55832915932100e+004,-1.27297214164852e+001,-1.55795237970620e-001

1.58008262372675e+004,-1.27297216228920e+001,-1.57970044513706e-001

1.60213975517924e+004,-1.27297218351004e+001,-1.60175209633890e-001

1.62450479271247e+004,-1.27297220532735e+001,-1.62411157095398e-001

1.64718203453514e+004,-1.27297222775791e+001,-1.64678316576156e-001

1.67017583885674e+004,-1.27297225081891e+001,-1.66977123755111e-001

1.69349062472505e+004,-1.27297227452810e+001,-1.69308020387383e-001

1.71713087287550e+004,-1.27297229890370e+001,-1.71671454394904e-001

1.74110112659224e+004,-1.27297232396440e+001,-1.74067879953741e-001

1.76540599258131e+004,-1.27297234972949e+001,-1.76497757574857e-001

1.79005014185594e+004,-1.27297237621873e+001,-1.78961554198399e-001

1.81503831063432e+004,-1.27297240345250e+001,-1.81459743280763e-001

1.84037530124975e+004,-1.27297243145169e+001,-1.83992804887105e-001

1.86606598307361e+004,-1.27297246023782e+001,-1.86561225781291e-001

1.89211529345119e+004,-1.27297248983301e+001,-1.89165499519951e-001

1.91852823865052e+004,-1.27297252025997e+001,-1.91806126550521e-001

1.94530989482457e+004,-1.27297255154208e+001,-1.94483614301765e-001

1.97246540898671e+004,-1.27297258370340e+001,-1.97198477284383e-001

1.99999999999999e+004,-1.27297261676857e+001,-1.99951237192566e-001

2.02791895958005e+004,-1.27297265076302e+001,-2.02742422997622e-001

2.05622765331213e+004,-1.27297268571287e+001,-2.05572571053135e-001

2.08493152168224e+004,-1.27297272164493e+001,-2.08442225200853e-001

2.11403608112276e+004,-1.27297275858681e+001,-2.11351936868797e-001

2.14354692507258e+004,-1.27297279656688e+001,-2.14302265181188e-001

2.17346972505211e+004,-1.27297283561430e+001,-2.17293777065533e-001

2.20381023175322e+004,-1.27297287575906e+001,-2.20327047360268e-001

2.23457427614443e+004,-1.27297291703198e+001,-2.23402658925818e-001

2.26576777059159e+004,-1.27297295946474e+001,-2.26521202756892e-001

2.29739670999406e+004,-1.27297300308994e+001,-2.29683278093509e-001

2.32946717293690e+004,-1.27297304794108e+001,-2.32889492538585e-001

2.36198532285905e+004,-1.27297309405257e+001,-2.36140462175102e-001

2.39495740923785e+004,-1.27297314145981e+001,-2.39436811681462e-001

2.42838976879009e+004,-1.27297319019922e+001,-2.42779174453225e-001

2.46228882668982e+004,-1.27297324030819e+001,-2.46168192723814e-001

2.49666109780322e+004,-1.27297329182521e+001,-2.49604517688551e-001

2.53151318794055e+004,-1.27297334478980e+001,-2.53088809630263e-001

2.56685179512580e+004,-1.27297339924262e+001,-2.56621738043525e-001

2.60268371088386e+004,-1.27297345522548e+001,-2.60203981764348e-001

2.63901582154578e+004,-1.27297351278133e+001,-2.63836229101200e-001

2.67585510957221e+004,-1.27297357195434e+001,-2.67519177967972e-001

2.71320865489533e+004,-1.27297363278993e+001,-2.71253536013665e-001

2.75108363627948e+004,-1.27297369533478e+001,-2.75040020761287e-001

2.78948733270080e+004,-1.27297375963689e+001,-2.78879359746312e-001

2.82842712474618e+004,-1.27297382574559e+001,-2.82772290653568e-001

2.86791049603164e+004,-1.27297389371161e+001,-2.86719561460186e-001

2.90794503464061e+004,-1.27297396358709e+001,-2.90721930580086e-001

2.94853843458219e+004,-1.27297403542564e+001,-2.94780167005737e-001

2.98969849726987e+004,-1.27297410928236e+001,-2.98895050460279e-001

3.03143313302078e+004,-1.27297418521392e+001,-3.03067371543535e-001

3.07375036257601e+004,-1.27297426327856e+001,-3.07297931884217e-001

3.11665831864199e+004,-1.27297434353614e+001,-3.11587544296881e-001

3.16016524745350e+004,-1.27297442604822e+001,-3.15937032931417e-001

3.20427951035848e+004,-1.27297451087809e+001,-3.20347233436230e-001

3.24900958542493e+004,-1.27297459809078e+001,-3.24818993118474e-001

3.29436406907028e+004,-1.27297468775318e+001,-3.29353171101779e-001

3.34035167771346e+004,-1.27297477993403e+001,-3.33950638495574e-001

3.38698124945009e+004,-1.27297487470401e+001,-3.38612278560054e-001

3.43426174575100e+004,-1.27297497213576e+001,-3.43338986874903e-001

3.48220225318448e+004,-1.27297507230396e+001,-3.48131671513067e-001

3.53081198516260e+004,-1.27297517528541e+001,-3.52991253211998e-001

3.58010028371187e+004,-1.27297528115901e+001,-3.57918665551648e-001

3.63007662126863e+004,-1.27297539000592e+001,-3.62914855132657e-001

3.68075060249948e+004,-1.27297550190954e+001,-3.67980781757963e-001

3.73213196614721e+004,-1.27297561695560e+001,-3.73117418617625e-001

3.78423058690237e+004,-1.27297573523226e+001,-3.78325752472138e-001

3.83705647730104e+004,-1.27297585683012e+001,-3.83606783844055e-001

3.89061978964912e+004,-1.27297598184233e+001,-3.88961527209133e-001

3.94493081797342e+004,-1.27297611036462e+001,-3.94391011190403e-001

3.99999999999998e+004,-1.27297624249544e+001,-3.99896278752931e-001

4.05583791916010e+004,-1.27297637833596e+001,-4.05478387406717e-001

4.11245530662425e+004,-1.27297651799019e+001,-4.11138409407898e-001

4.16986304336447e+004,-1.27297666156505e+001,-4.16877431962222e-001

4.22807216224550e+004,-1.27297680917044e+001,-4.22696557434993e-001

4.28709385014515e+004,-1.27297696091933e+001,-4.28596903561551e-001

4.34693945010421e+004,-1.27297711692787e+001,-4.34579603660466e-001

4.40762046350642e+004,-1.27297727731543e+001,-4.40645806850299e-001

4.46914855228886e+004,-1.27297744220472e+001,-4.46796678270006e-001

4.53153554118317e+004,-1.27297761172190e+001,-4.53033399300240e-001

4.59479341998812e+004,-1.27297778599660e+001,-4.59357167791921e-001

4.65893434587380e+004,-1.27297796516215e+001,-4.65769198291414e-001

4.72397064571810e+004,-1.27297814935551e+001,-4.72270722276440e-001

4.78991481847569e+004,-1.27297833871752e+001,-4.78862988387921e-001

4.85677953758016e+004,-1.27297853339296e+001,-4.85547262669929e-001

4.92457765337964e+004,-1.27297873353060e+001,-4.92324828813309e-001

4.99332219560642e+004,-1.27297893928340e+001,-4.99196988397728e-001

5.06302637588109e+004,-1.27297915080855e+001,-5.06165061141969e-001

5.13370359025159e+004,-1.27297936826766e+001,-5.13230385154778e-001

5.20536742176771e+004,-1.27297959182683e+001,-5.20394317191585e-001

5.27803164309155e+004,-1.27297982165677e+001,-5.27658232912504e-001

5.35171021914442e+004,-1.27298005793296e+001,-5.35023527144832e-001

5.42641730979066e+004,-1.27298030083578e+001,-5.42491614148912e-001

5.50216727255895e+004,-1.27298055055060e+001,-5.50063927888828e-001

5.57897466540159e+004,-1.27298080726798e+001,-5.57741922304024e-001

5.65685424949235e+004,-1.27298107118378e+001,-5.65527071587916e-001

5.73582099206328e+004,-1.27298134249928e+001,-5.73420870468656e-001

5.81589006928121e+004,-1.27298162142140e+001,-5.81424834493264e-001

5.89707686916437e+004,-1.27298190816277e+001,-5.89540500316508e-001

5.97939699453972e+004,-1.27298220294196e+001,-5.97769425994502e-001

6.06286626604156e+004,-1.27298250598360e+001,-6.06113191279549e-001

6.14750072515201e+004,-1.27298281751856e+001,-6.14573397921785e-001

6.23331663728396e+004,-1.27298313778412e+001,-6.23151669974486e-001

6.32033049490698e+004,-1.27298346702415e+001,-6.31849654102316e-001

6.40855902071694e+004,-1.27298380548928e+001,-6.40669019893720e-001

6.49801917084985e+004,-1.27298415343710e+001,-6.49611460180369e-001

6.58872813814055e+004,-1.27298451113234e+001,-6.58678691356893e-001

6.68070335542691e+004,-1.27298487884704e+001,-6.67872453708366e-001

6.77396249890018e+004,-1.27298525686083e+001,-6.77194511739619e-001

6.86852349150199e+004,-1.27298564546102e+001,-6.86646654512284e-001

6.96440450636895e+004,-1.27298604494292e+001,-6.96230695981560e-001

7.06162397032520e+004,-1.27298645560999e+001,-7.05948475343100e-001

7.16020056742374e+004,-1.27298687777408e+001,-7.15801857379854e-001

7.26015324253724e+004,-1.27298731175568e+001,-7.25792732816266e-001

7.36150120499896e+004,-1.27298775788410e+001,-7.35923018678301e-001

7.46426393229441e+004,-1.27298821649776e+001,-7.46194658654254e-001

7.56846117380472e+004,-1.27298868794444e+001,-7.56609623463440e-001

7.67411295460207e+004,-1.27298917258148e+001,-7.67169911230739e-001

7.78123957929823e+004,-1.27298967077610e+001,-7.77877547862792e-001

7.88986163594682e+004,-1.27299018290560e+001,-7.88734587433027e-001

7.99999999999995e+004,-1.27299070935772e+001,-7.99743112568343e-001

8.11167583832018e+004,-1.27299125053084e+001,-8.10905234843732e-001

8.22491061324848e+004,-1.27299180683429e+001,-8.22223095181576e-001

8.33972608672892e+004,-1.27299237868869e+001,-8.33698864254536e-001

8.45614432449099e+004,-1.27299296652616e+001,-8.45334742896214e-001

8.57418770029029e+004,-1.27299357079074e+001,-8.57132962515950e-001

8.69387890020841e+004,-1.27299419193861e+001,-8.69095785520173e-001

8.81524092701283e+004,-1.27299483043847e+001,-8.81225505738092e-001

8.93829710457770e+004,-1.27299548677187e+001,-8.93524448852909e-001

9.06307108236633e+004,-1.27299616143352e+001,-9.05994972841626e-001

9.18958683997622e+004,-1.27299685493168e+001,-9.18639468416932e-001

9.31786869174758e+004,-1.27299756778849e+001,-9.31460359477533e-001

9.44794129143618e+004,-1.27299830054037e+001,-9.44460103563619e-001

9.57982963695136e+004,-1.27299905373834e+001,-9.57641192317662e-001

9.71355907516031e+004,-1.27299982794849e+001,-9.71006151952966e-001

9.84915530675926e+004,-1.27300062375229e+001,-9.84557543726728e-001

9.98664439121282e+004,-1.27300144174706e+001,-9.98297964420873e-001

1.01260527517622e+005,-1.27300228254634e+001,-1.01223004682762e+000

1.02674071805032e+005,-1.27300314678034e+001,-1.02635646024306e+000

1.04107348435354e+005,-1.27300403509641e+001,-1.04067991096500e+000

1.05560632861831e+005,-1.27300494815939e+001,-1.05520314280119e+000

1.07034204382888e+005,-1.27300588665215e+001,-1.06992893757982e+000

1.08528346195813e+005,-1.27300685127605e+001,-1.08486011566846e+000

1.10043345451179e+005,-1.27300784275139e+001,-1.09999953650204e+000

1.11579493308032e+005,-1.27300886181788e+001,-1.11535009911365e+000

1.13137084989847e+005,-1.27300990923522e+001,-1.13091474267555e+000

1.14716419841265e+005,-1.27301098578353e+001,-1.14669644704467e+000

1.16317801385624e+005,-1.27301209226393e+001,-1.16269823331697e+000

1.17941537383287e+005,-1.27301322949904e+001,-1.17892316438921e+000

1.19587939890794e+005,-1.27301439833356e+001,-1.19537434552649e+000

1.21257325320831e+005,-1.27301559963481e+001,-1.21205492493686e+000

1.22950014503040e+005,-1.27301683429330e+001,-1.22896809435588e+000

1.24666332745679e+005,-1.27301810322331e+001,-1.24611708963679e+000

1.26406609898139e+005,-1.27301940736356e+001,-1.26350519134693e+000

1.28171180414339e+005,-1.27302074767769e+001,-1.28113572537557e+000

1.29960383416997e+005,-1.27302212515503e+001,-1.29901206354470e+000

1.31774562762811e+005,-1.27302354081111e+001,-1.31713762423349e+000

1.33614067108538e+005,-1.27302499568841e+001,-1.33551587300353e+000

1.35479249978003e+005,-1.27302649085696e+001,-1.35415032323921e+000

1.37370469830040e+005,-1.27302802741505e+001,-1.37304453679028e+000

1.39288090127379e+005,-1.27302960648993e+001,-1.39220212462628e+000

1.41232479406504e+005,-1.27303122923848e+001,-1.41162674749717e+000

1.43204011348474e+005,-1.27303289684796e+001,-1.43132211660387e+000

1.45203064850745e+005,-1.27303461053675e+001,-1.45129199427521e+000

1.47230024099979e+005,-1.27303637155508e+001,-1.47154019465464e+000

1.49285278645888e+005,-1.27303818118579e+001,-1.49207058439548e+000

1.51369223476094e+005,-1.27304004074512e+001,-1.51288708336519e+000

1.53482259092041e+005,-1.27304195158350e+001,-1.53399366535570e+000

1.55624791585964e+005,-1.27304391508635e+001,-1.55539435880598e+000

1.57797232718936e+005,-1.27304593267491e+001,-1.57709324753128e+000

1.59999999999999e+005,-1.27304800580705e+001,-1.59909447146286e+000

1.62233516766403e+005,-1.27305013597816e+001,-1.62140222739401e+000

1.64498212264969e+005,-1.27305232472197e+001,-1.64402076973925e+000

1.66794521734578e+005,-1.27305457361142e+001,-1.66695441129849e+000

1.69122886489819e+005,-1.27305688425962e+001,-1.69020752403351e+000

1.71483754005805e+005,-1.27305925832067e+001,-1.71378453985233e+000

1.73877578004168e+005,-1.27306169749061e+001,-1.73768995140382e+000

1.76304818540256e+005,-1.27306420350837e+001,-1.76192831288019e+000

1.78765942091554e+005,-1.27306677815666e+001,-1.78650424083170e+000

1.81261421647326e+005,-1.27306942326301e+001,-1.81142241498841e+000

1.83791736799524e+005,-1.27307214070061e+001,-1.83668757909351e+000

1.86357373834951e+005,-1.27307493238943e+001,-1.86230454174517e+000

1.88958825828723e+005,-1.27307780029711e+001,-1.88827817724998e+000

1.91596592739027e+005,-1.27308074643997e+001,-1.91461342648391e+000

1.94271181503206e+005,-1.27308377288408e+001,-1.94131529776671e+000

1.96983106135185e+005,-1.27308688174622e+001,-1.96838886774208e+000

1.99732887824256e+005,-1.27309007519492e+001,-1.99583928227244e+000

2.02521055035243e+005,-1.27309335545152e+001,-2.02367175734183e+000

2.05348143610063e+005,-1.27309672479120e+001,-2.05189157996858e+000

2.08214696870707e+005,-1.27310018554402e+001,-2.08050410913023e+000

2.11121265723661e+005,-1.27310374009597e+001,-2.10951477669818e+000

2.14068408765776e+005,-1.27310739089007e+001,-2.13892908838225e+000

2.17056692391625e+005,-1.27311114042739e+001,-2.16875262468749e+000

2.20086690902357e+005,-1.27311499126812e+001,-2.19899104188078e+000

2.23158986616063e+005,-1.27311894603268e+001,-2.22965007296791e+000

2.26274169979693e+005,-1.27312300740270e+001,-2.26073552868446e+000

2.29432839682530e+005,-1.27312717812218e+001,-2.29225329849265e+000

2.32635602771247e+005,-1.27313146099846e+001,-2.32420935159494e+000

2.35883074766574e+005,-1.27313585890335e+001,-2.35660973795523e+000

2.39175879781588e+005,-1.27314037477410e+001,-2.38946058933234e+000

2.42514650641661e+005,-1.27314501161450e+001,-2.42276812032569e+000

2.45900029006080e+005,-1.27314977249588e+001,-2.45653862943237e+000

2.49332665491357e+005,-1.27315466055811e+001,-2.49077850011419e+000

2.52813219796278e+005,-1.27315967901062e+001,-2.52549420187885e+000

2.56342360828676e+005,-1.27316483113333e+001,-2.56069229137232e+000

2.59920766833993e+005,-1.27317012027769e+001,-2.59637941348179e+000

2.63549125525621e+005,-1.27317554986751e+001,-2.63256230245247e+000

2.67228134217075e+005,-1.27318112339996e+001,-2.66924778301586e+000

2.70958499956006e+005,-1.27318684444637e+001,-2.70644277153041e+000

2.74740939660078e+005,-1.27319271665312e+001,-2.74415427713527e+000

2.78576180254757e+005,-1.27319874374243e+001,-2.78238940291450e+000

2.82464958813007e+005,-1.27320492951312e+001,-2.82115534707778e+000

2.86408022696948e+005,-1.27321127784134e+001,-2.86045940415048e+000

2.90406129701488e+005,-1.27321779268124e+001,-2.90030896617929e+000

2.94460048199957e+005,-1.27322447806562e+001,-2.94071152394856e+000

2.98570557291775e+005,-1.27323133810642e+001,-2.98167466821368e+000

3.02738446952187e+005,-1.27323837699531e+001,-3.02320609094412e+000

3.06964518184081e+005,-1.27324559900409e+001,-3.06531358658284e+000

3.11249583171928e+005,-1.27325300848505e+001,-3.10800505331939e+000

3.15594465437872e+005,-1.27326060987127e+001,-3.15128849437653e+000

3.19999999999997e+005,-1.27326840767684e+001,-3.19517201931136e+000

3.24467033532806e+005,-1.27327640649696e+001,-3.23966384533208e+000

3.28996424529938e+005,-1.27328461100798e+001,-3.28477229862891e+000

3.33589043469155e+005,-1.27329302596733e+001,-3.33050581572050e+000

3.38245772979638e+005,-1.27330165621336e+001,-3.37687294481612e+000

3.42967508011610e+005,-1.27331050666501e+001,-3.42388234719330e+000

3.47755156008335e+005,-1.27331958232143e+001,-3.47154279859241e+000

3.52609637080511e+005,-1.27332888826144e+001,-3.51986319062742e+000

3.57531884183106e+005,-1.27333842964287e+001,-3.56885253221324e+000

3.62522843294651e+005,-1.27334821170172e+001,-3.61851995101135e+000

3.67583473599047e+005,-1.27335823975123e+001,-3.66887469489270e+000

3.72714747669902e+005,-1.27336851918075e+001,-3.71992613341898e+000

3.77917651657445e+005,-1.27337905545443e+001,-3.77168375934279e+000

3.83193185478053e+005,-1.27338985410983e+001,-3.82415719012714e+000

3.88542363006410e+005,-1.27340092075621e+001,-3.87735616948490e+000

3.93966212270369e+005,-1.27341226107274e+001,-3.93129056893779e+000

3.99465775648511e+005,-1.27342388080642e+001,-3.98597038939913e+000

4.05042110070485e+005,-1.27343578576993e+001,-4.04140576277424e+000

4.10696287220124e+005,-1.27344798183905e+001,-4.09760695358756e+000

4.16429393741414e+005,-1.27346047495005e+001,-4.15458436062969e+000

4.22242531447321e+005,-1.27347327109674e+001,-4.21234851863038e+000

4.28136817531551e+005,-1.27348637632726e+001,-4.27091009995614e+000

4.34113384783250e+005,-1.27349979674069e+001,-4.33027991633267e+000

4.40173381804713e+005,-1.27351353848333e+001,-4.39046892059480e+000

4.46317973232124e+005,-1.27352760774470e+001,-4.45148820846417e+000

4.52548339959385e+005,-1.27354201075328e+001,-4.51334902035461e+000

4.58865679365059e+005,-1.27355675377195e+001,-4.57606274320925e+000

4.65271205542494e+005,-1.27357184309310e+001,-4.63964091236650e+000

4.71766149533147e+005,-1.27358728503345e+001,-4.70409521345918e+000

4.78351759563174e+005,-1.27360308592854e+001,-4.76943748434758e+000

4.85029301283321e+005,-1.27361925212686e+001,-4.83567971708653e+000

4.91800058012158e+005,-1.27363578998363e+001,-4.90283405992961e+000

4.98665330982714e+005,-1.27365270585431e+001,-4.97091281936889e+000

5.05626439592555e+005,-1.27367000608765e+001,-5.03992846221731e+000

5.12684721657352e+005,-1.27368769701842e+001,-5.10989361772841e+000

5.19841533667984e+005,-1.27370578495971e+001,-5.18082107976126e+000

5.27098251051240e+005,-1.27372427619500e+001,-5.25272380898772e+000

5.34456268434150e+005,-1.27374317696960e+001,-5.32561493514668e+000

5.41916999912011e+005,-1.27376249348195e+001,-5.39950775934598e+000

