Freq.,VOut,OutRef

1.00000000000000e+004,-1.91536648051304e+001,-5.61183568771811e-002

1.01395947979003e+004,-1.91536648943592e+001,-5.69017373076725e-002

1.02811382665607e+004,-1.91536649860965e+001,-5.76960532080753e-002

1.04246576084112e+004,-1.91536650804125e+001,-5.85014572302513e-002

1.05701804056138e+004,-1.91536651773801e+001,-5.93181041510905e-002

1.07177346253629e+004,-1.91536652770735e+001,-6.01461509116499e-002

1.08673486252606e+004,-1.91536653795697e+001,-6.09857566407609e-002

1.10190511587661e+004,-1.91536654849471e+001,-6.18370826924387e-002

1.11728713807222e+004,-1.91536655932869e+001,-6.27002926688742e-002

1.13288388529580e+004,-1.91536657046722e+001,-6.35755524581310e-002

1.14869835499703e+004,-1.91536658191889e+001,-6.44630302618913e-002

1.16473358646846e+004,-1.91536659369248e+001,-6.53628966314489e-002

1.18099266142953e+004,-1.91536660579706e+001,-6.62753244969055e-002

1.19747870461893e+004,-1.91536661824190e+001,-6.72004892049021e-002

1.21419488439505e+004,-1.91536663103660e+001,-6.81385685453692e-002

1.23114441334492e+004,-1.91536664419098e+001,-6.90897427935567e-002

1.24833054890161e+004,-1.91536665771513e+001,-7.00541947389660e-002

1.26575659397028e+004,-1.91536667161948e+001,-7.10321097229218e-002

1.28342589756290e+004,-1.91536668591470e+001,-7.20236756728130e-002

1.30134185544193e+004,-1.91536670061178e+001,-7.30290831402237e-002

1.31950791077289e+004,-1.91536671572200e+001,-7.40485253363970e-002

1.33792755478611e+004,-1.91536673125699e+001,-7.50821981688164e-002

1.35660432744767e+004,-1.91536674722869e+001,-7.61303002784319e-002

1.37554181813974e+004,-1.91536676364935e+001,-7.71930330808110e-002

1.39474366635040e+004,-1.91536678053162e+001,-7.82706008000785e-002

1.41421356237309e+004,-1.91536679788848e+001,-7.93632105119354e-002

1.43395524801583e+004,-1.91536681573325e+001,-8.04710721831681e-002

1.45397251732031e+004,-1.91536683407963e+001,-8.15943987112856e-002

1.47426921729110e+004,-1.91536685294176e+001,-8.27334059617476e-002

1.49484924863494e+004,-1.91536687233411e+001,-8.38883128167875e-002

1.51571656651040e+004,-1.91536689227156e+001,-8.50593412134365e-002

1.53687518128801e+004,-1.91536691276949e+001,-8.62467161807038e-002

1.55832915932100e+004,-1.91536693384360e+001,-8.74506658962487e-002

1.58008262372675e+004,-1.91536695551009e+001,-8.86714217176899e-002

1.60213975517924e+004,-1.91536697778566e+001,-8.99092182300126e-002

1.62450479271247e+004,-1.91536700068737e+001,-9.11642932964497e-002

1.64718203453514e+004,-1.91536702423285e+001,-9.24368880971603e-002

1.67017583885674e+004,-1.91536704844017e+001,-9.37272471793902e-002

1.69349062472505e+004,-1.91536707332798e+001,-9.50356185015016e-002

1.71713087287550e+004,-1.91536709891532e+001,-9.63622534869322e-002

1.74110112659224e+004,-1.91536712522194e+001,-9.77074070610112e-002

1.76540599258131e+004,-1.91536715226801e+001,-9.90713377120918e-002

1.79005014185594e+004,-1.91536718007432e+001,-1.00454307534758e-001

1.81503831063432e+004,-1.91536720866222e+001,-1.01856582280821e-001

1.84037530124975e+004,-1.91536723805370e+001,-1.03278431410002e-001

1.86606598307361e+004,-1.91536726827132e+001,-1.04720128144450e-001

1.89211529345119e+004,-1.91536729933832e+001,-1.06181949516136e-001

1.91852823865052e+004,-1.91536733127856e+001,-1.07664176426678e-001

1.94530989482457e+004,-1.91536736411658e+001,-1.09167093694496e-001

1.97246540898671e+004,-1.91536739787760e+001,-1.10690990116069e-001

1.99999999999999e+004,-1.91536743258757e+001,-1.12236158513986e-001

2.02791895958005e+004,-1.91536746827316e+001,-1.13802895799112e-001

2.05622765331213e+004,-1.91536750496180e+001,-1.15391503025290e-001

2.08493152168224e+004,-1.91536754268163e+001,-1.17002285449186e-001

2.11403608112276e+004,-1.91536758146168e+001,-1.18635552582875e-001

2.14354692507258e+004,-1.91536762133169e+001,-1.20291618262455e-001

2.17346972505211e+004,-1.91536766232232e+001,-1.21970800699509e-001

2.20381023175322e+004,-1.91536770446507e+001,-1.23673422545917e-001

2.23457427614443e+004,-1.91536774779228e+001,-1.25399810958885e-001

2.26576777059159e+004,-1.91536779233726e+001,-1.27150297656566e-001

2.29739670999406e+004,-1.91536783813421e+001,-1.28925218989580e-001

2.32946717293690e+004,-1.91536788521830e+001,-1.30724915998412e-001

2.36198532285905e+004,-1.91536793362574e+001,-1.32549734482421e-001

2.39495740923785e+004,-1.91536798339365e+001,-1.34400025069422e-001

2.42838976879009e+004,-1.91536803456030e+001,-1.36276143274516e-001

2.46228882668982e+004,-1.91536808716495e+001,-1.38178449576327e-001

2.49666109780322e+004,-1.91536814124804e+001,-1.40107309480812e-001

2.53151318794055e+004,-1.91536819685111e+001,-1.42063093593694e-001

2.56685179512580e+004,-1.91536825401682e+001,-1.44046177694251e-001

2.60268371088386e+004,-1.91536831278909e+001,-1.46056942801400e-001

2.63901582154578e+004,-1.91536837321307e+001,-1.48095775249097e-001

2.67585510957221e+004,-1.91536843533513e+001,-1.50163066764725e-001

2.71320865489533e+004,-1.91536849920301e+001,-1.52259214535637e-001

2.75108363627948e+004,-1.91536856486572e+001,-1.54384621295681e-001

2.78948733270080e+004,-1.91536863237370e+001,-1.56539695391671e-001

2.82842712474618e+004,-1.91536870177875e+001,-1.58724850871574e-001

2.86791049603164e+004,-1.91536877313420e+001,-1.60940507554482e-001

2.90794503464061e+004,-1.91536884649481e+001,-1.63187091119946e-001

2.94853843458219e+004,-1.91536892191692e+001,-1.65465033182483e-001

2.98969849726987e+004,-1.91536899945840e+001,-1.67774771380679e-001

3.03143313302078e+004,-1.91536907917880e+001,-1.70116749452269e-001

3.07375036257601e+004,-1.91536916113931e+001,-1.72491417329444e-001

3.11665831864199e+004,-1.91536924540284e+001,-1.74899231217285e-001

3.16016524745350e+004,-1.91536933203409e+001,-1.77340653684266e-001

3.20427951035848e+004,-1.91536942109951e+001,-1.79816153751946e-001

3.24900958542493e+004,-1.91536951266750e+001,-1.82326206980570e-001

3.29436406907028e+004,-1.91536960680832e+001,-1.84871295565446e-001

3.34035167771346e+004,-1.91536970359421e+001,-1.87451908425564e-001

3.38698124945009e+004,-1.91536980309944e+001,-1.90068541299200e-001

3.43426174575100e+004,-1.91536990540039e+001,-1.92721696835526e-001

3.48220225318448e+004,-1.91537001057553e+001,-1.95411884697231e-001

3.53081198516260e+004,-1.91537011870558e+001,-1.98139621650133e-001

3.58010028371187e+004,-1.91537022987348e+001,-2.00905431668677e-001

3.63007662126863e+004,-1.91537034416453e+001,-2.03709846032574e-001

3.68075060249948e+004,-1.91537046166641e+001,-2.06553403429372e-001

3.73213196614721e+004,-1.91537058246926e+001,-2.09436650057818e-001

3.78423058690237e+004,-1.91537070666572e+001,-2.12360139731750e-001

3.83705647730104e+004,-1.91537083435108e+001,-2.15324433986869e-001

3.89061978964912e+004,-1.91537096562323e+001,-2.18330102187855e-001

3.94493081797342e+004,-1.91537110058287e+001,-2.21377721635923e-001

3.99999999999998e+004,-1.91537123933350e+001,-2.24467877680086e-001

4.05583791916010e+004,-1.91537138198149e+001,-2.27601163831012e-001

4.11245530662425e+004,-1.91537152863623e+001,-2.30778181871345e-001

4.16986304336447e+004,-1.91537167941016e+001,-2.33999541970929e-001

4.22807216224550e+004,-1.91537183441886e+001,-2.37265862806376e-001

4.28709385014515e+004,-1.91537199378116e+001,-2.40577771676602e-001

4.34693945010421e+004,-1.91537215761921e+001,-2.43935904622882e-001

4.40762046350642e+004,-1.91537232605857e+001,-2.47340906551681e-001

4.46914855228886e+004,-1.91537249922834e+001,-2.50793431355333e-001

4.53153554118317e+004,-1.91537267726123e+001,-2.54294142039632e-001

4.59479341998812e+004,-1.91537286029363e+001,-2.57843710849246e-001

4.65893434587380e+004,-1.91537304846581e+001,-2.61442819394601e-001

4.72397064571810e+004,-1.91537324192189e+001,-2.65092158784515e-001

4.78991481847569e+004,-1.91537344081008e+001,-2.68792429755558e-001

4.85677953758016e+004,-1.91537364528272e+001,-2.72544342807574e-001

4.92457765337964e+004,-1.91537385549639e+001,-2.76348618338127e-001

4.99332219560642e+004,-1.91537407161208e+001,-2.80205986780203e-001

5.06302637588109e+004,-1.91537429379528e+001,-2.84117188740280e-001

5.13370359025159e+004,-1.91537452221608e+001,-2.88082975141492e-001

5.20536742176771e+004,-1.91537475704935e+001,-2.92104107364474e-001

5.27803164309155e+004,-1.91537499847482e+001,-2.96181357395992e-001

5.35171021914442e+004,-1.91537524667729e+001,-3.00315507969607e-001

5.42641730979066e+004,-1.91537550184667e+001,-3.04507352720977e-001

5.50216727255895e+004,-1.91537576417822e+001,-3.08757696335480e-001

5.57897466540159e+004,-1.91537603387262e+001,-3.13067354702126e-001

5.65685424949235e+004,-1.91537631113618e+001,-3.17437155068317e-001

5.73582099206328e+004,-1.91537659618094e+001,-3.21867936198746e-001

5.81589006928121e+004,-1.91537688922489e+001,-3.26360548532715e-001

5.89707686916437e+004,-1.91537719049210e+001,-3.30915854345522e-001

5.97939699453972e+004,-1.91537750021289e+001,-3.35534727914426e-001

6.06286626604156e+004,-1.91537781862396e+001,-3.40218055684554e-001

6.14750072515201e+004,-1.91537814596871e+001,-3.44966736432649e-001

6.23331663728396e+004,-1.91537848249722e+001,-3.49781681445218e-001

6.32033049490698e+004,-1.91537882846662e+001,-3.54663814684571e-001

6.40855902071694e+004,-1.91537918414117e+001,-3.59614072966572e-001

6.49801917084985e+004,-1.91537954979251e+001,-3.64633406139881e-001

6.58872813814055e+004,-1.91537992569984e+001,-3.69722777262780e-001

6.68070335542691e+004,-1.91538031215013e+001,-3.74883162788720e-001

6.77396249890018e+004,-1.91538070943835e+001,-3.80115552747310e-001

6.86852349150199e+004,-1.91538111786769e+001,-3.85420950936502e-001

6.96440450636895e+004,-1.91538153774975e+001,-3.90800375107649e-001

7.06162397032520e+004,-1.91538196940483e+001,-3.96254857161614e-001

7.16020056742374e+004,-1.91538241316213e+001,-4.01785443341073e-001

7.26015324253724e+004,-1.91538286935998e+001,-4.07393194431579e-001

7.36150120499896e+004,-1.91538333834614e+001,-4.13079185956648e-001

7.46426393229441e+004,-1.91538382047805e+001,-4.18844508385996e-001

7.56846117380472e+004,-1.91538431612302e+001,-4.24690267338263e-001

7.67411295460207e+004,-1.91538482565862e+001,-4.30617583790448e-001

7.78123957929823e+004,-1.91538534947286e+001,-4.36627594288578e-001

7.88986163594682e+004,-1.91538588796456e+001,-4.42721451161485e-001

7.99999999999995e+004,-1.91538644154355e+001,-4.48900322739393e-001

8.11167583832018e+004,-1.91538701063106e+001,-4.55165393571163e-001

8.22491061324848e+004,-1.91538759565999e+001,-4.61517864649532e-001

8.33972608672892e+004,-1.91538819707524e+001,-4.67958953634302e-001

8.45614432449099e+004,-1.91538881533401e+001,-4.74489895083669e-001

8.57418770029029e+004,-1.91538945090618e+001,-4.81111940682803e-001

8.69387890020841e+004,-1.91539010427462e+001,-4.87826359481603e-001

8.81524092701283e+004,-1.91539077593555e+001,-4.94634438130434e-001

8.93829710457770e+004,-1.91539146639893e+001,-5.01537481121814e-001

9.06307108236633e+004,-1.91539217618880e+001,-5.08536811034127e-001

9.18958683997622e+004,-1.91539290584366e+001,-5.15633768779629e-001

9.31786869174758e+004,-1.91539365591690e+001,-5.22829713855072e-001

9.44794129143618e+004,-1.91539442697718e+001,-5.30126024592991e-001

9.57982963695136e+004,-1.91539521960882e+001,-5.37524098424053e-001

9.71355907516031e+004,-1.91539603441226e+001,-5.45025352131842e-001

9.84915530675926e+004,-1.91539687200447e+001,-5.52631222121149e-001

9.98664439121282e+004,-1.91539773301943e+001,-5.60343164681987e-001

1.01260527517622e+005,-1.91539861810853e+001,-5.68162656262856e-001

1.02674071805032e+005,-1.91539952794111e+001,-5.76091193743617e-001

1.04107348435354e+005,-1.91540046320488e+001,-5.84130294714117e-001

1.05560632861831e+005,-1.91540142460642e+001,-5.92281497754851e-001

1.07034204382888e+005,-1.91540241287175e+001,-6.00546362721870e-001

1.08528346195813e+005,-1.91540342874677e+001,-6.08926471036693e-001

1.10043345451179e+005,-1.91540447299783e+001,-6.17423425976972e-001

1.11579493308032e+005,-1.91540554641225e+001,-6.26038852975281e-001

1.13137084989847e+005,-1.91540664979895e+001,-6.34774399914445e-001

1.14716419841265e+005,-1.91540778398890e+001,-6.43631737436631e-001

1.16317801385624e+005,-1.91540894983584e+001,-6.52612559245501e-001

1.17941537383287e+005,-1.91541014821678e+001,-6.61718582421964e-001

1.19587939890794e+005,-1.91541138003267e+001,-6.70951547737549e-001

1.21257325320831e+005,-1.91541264620902e+001,-6.80313219973348e-001

1.22950014503040e+005,-1.91541394769655e+001,-6.89805388243403e-001

1.24666332745679e+005,-1.91541528547181e+001,-6.99429866324366e-001

1.26406609898139e+005,-1.91541666053793e+001,-7.09188492982975e-001

1.28171180414339e+005,-1.91541807392530e+001,-7.19083132313954e-001

1.29960383416997e+005,-1.91541952669223e+001,-7.29115674079503e-001

1.31774562762811e+005,-1.91542101992573e+001,-7.39288034052485e-001

1.33614067108538e+005,-1.91542255474223e+001,-7.49602154365776e-001

1.35479249978003e+005,-1.91542413228838e+001,-7.60060003862625e-001

1.37370469830040e+005,-1.91542575374177e+001,-7.70663578454838e-001

1.39288090127379e+005,-1.91542742031181e+001,-7.81414901483108e-001

1.41232479406504e+005,-1.91542913324050e+001,-7.92316024082197e-001

1.43204011348474e+005,-1.91543089380324e+001,-8.03369025552272e-001

1.45203064850745e+005,-1.91543270330977e+001,-8.14576013730980e-001

1.47230024099979e+005,-1.91543456310500e+001,-8.25939125371905e-001

1.49285278645888e+005,-1.91543647456988e+001,-8.37460526531316e-001

1.51369223476094e+005,-1.91543843912237e+001,-8.49142412951683e-001

1.53482259092041e+005,-1.91544045821837e+001,-8.60987010456797e-001

1.55624791585964e+005,-1.91544253335265e+001,-8.72996575347883e-001

1.57797232718936e+005,-1.91544466605984e+001,-8.85173394804309e-001

1.59999999999999e+005,-1.91544685791544e+001,-8.97519787293174e-001

1.62233516766403e+005,-1.91544911053687e+001,-9.10038102975342e-001

1.64498212264969e+005,-1.91545142558445e+001,-9.22730724126285e-001

1.66794521734578e+005,-1.91545380476253e+001,-9.35600065553690e-001

1.69122886489819e+005,-1.91545624982055e+001,-9.48648575024015e-001

1.71483754005805e+005,-1.91545876255416e+001,-9.61878733692204e-001

1.73877578004168e+005,-1.91546134480635e+001,-9.75293056538314e-001

1.76304818540256e+005,-1.91546399846862e+001,-9.88894092805600e-001

1.78765942091554e+005,-1.91546672548215e+001,-1.00268442644809e+000

1.81261421647326e+005,-1.91546952783901e+001,-1.01666667657845e+000

1.83791736799524e+005,-1.91547240758342e+001,-1.03084349792413e+000

1.86357373834951e+005,-1.91547536681294e+001,-1.04521758128790e+000

1.88958825828723e+005,-1.91547840767981e+001,-1.05979165401170e+000

1.91596592739027e+005,-1.91548153239222e+001,-1.07456848044918e+000

1.94271181503206e+005,-1.91548474321563e+001,-1.08955086243857e+000

1.96983106135185e+005,-1.91548804247417e+001,-1.10474163978558e+000

1.99732887824256e+005,-1.91549143255193e+001,-1.12014369074777e+000

2.02521055035243e+005,-1.91549491589444e+001,-1.13575993252592e+000

2.05348143610063e+005,-1.91549849501004e+001,-1.15159332176091e+000

2.08214696870707e+005,-1.91550217247138e+001,-1.16764685503399e+000

2.11121265723661e+005,-1.91550595091680e+001,-1.18392356937495e+000

2.14068408765776e+005,-1.91550983305195e+001,-1.20042654277294e+000

2.17056692391625e+005,-1.91551382165120e+001,-1.21715889469513e+000

2.20086690902357e+005,-1.91551791955924e+001,-1.23412378660836e+000

2.23158986616063e+005,-1.91552212969262e+001,-1.25132442250777e+000

2.26274169979693e+005,-1.91552645504137e+001,-1.26876404945159e+000

2.29432839682530e+005,-1.91553089867056e+001,-1.28644595809791e+000

2.32635602771247e+005,-1.91553546372201e+001,-1.30437348325071e+000

2.35883074766574e+005,-1.91554015341584e+001,-1.32255000440980e+000

2.39175879781588e+005,-1.91554497105225e+001,-1.34097894632604e+000

2.42514650641661e+005,-1.91554992001315e+001,-1.35966377956220e+000

2.45900029006080e+005,-1.91555500376390e+001,-1.37860802105979e+000

2.49332665491357e+005,-1.91556022585503e+001,-1.39781523471184e+000

2.52813219796278e+005,-1.91556558992403e+001,-1.41728903193908e+000

2.56342360828676e+005,-1.91557109969708e+001,-1.43703307227596e+000

2.59920766833993e+005,-1.91557675899085e+001,-1.45705106395730e+000

2.63549125525621e+005,-1.91558257171429e+001,-1.47734676451562e+000

2.67228134217075e+005,-1.91558854187049e+001,-1.49792398137992e+000

2.70958499956006e+005,-1.91559467355848e+001,-1.51878657248267e+000

2.74740939660078e+005,-1.91560097097503e+001,-1.53993844687360e+000

2.78576180254757e+005,-1.91560743841659e+001,-1.56138356533561e+000

2.82464958813007e+005,-1.91561408028107e+001,-1.58312594101142e+000

2.86408022696948e+005,-1.91562090106976e+001,-1.60516964003124e+000

2.90406129701488e+005,-1.91562790538916e+001,-1.62751878215202e+000

2.94460048199957e+005,-1.91563509795291e+001,-1.65017754139673e+000

2.98570557291775e+005,-1.91564248358360e+001,-1.67315014670523e+000

3.02738446952187e+005,-1.91565006721472e+001,-1.69644088258776e+000

3.06964518184081e+005,-1.91565785389245e+001,-1.72005408978709e+000

3.11249583171928e+005,-1.91566584877764e+001,-1.74399416594489e+000

3.15594465437872e+005,-1.91567405714756e+001,-1.76826556627709e+000

3.19999999999997e+005,-1.91568248439783e+001,-1.79287280425376e+000

3.24467033532806e+005,-1.91569113604423e+001,-1.81782045228669e+000

3.28996424529938e+005,-1.91570001772453e+001,-1.84311314242306e+000

3.33589043469155e+005,-1.91570913520031e+001,-1.86875556704805e+000

3.38245772979638e+005,-1.91571849435872e+001,-1.89475247959152e+000

3.42967508011610e+005,-1.91572810121427e+001,-1.92110869524461e+000

3.47755156008335e+005,-1.91573796191057e+001,-1.94782909168204e+000

3.52609637080511e+005,-1.91574808272197e+001,-1.97491860979312e+000

3.57531884183106e+005,-1.91575847005534e+001,-2.00238225441950e+000

3.62522843294651e+005,-1.91576913045159e+001,-2.03022509510205e+000

3.67583473599047e+005,-1.91578007058735e+001,-2.05845226683428e+000

3.72714747669902e+005,-1.91579129727645e+001,-2.08706897082638e+000

3.77917651657445e+005,-1.91580281747146e+001,-2.11608047527606e+000

3.83193185478053e+005,-1.91581463826510e+001,-2.14549211614900e+000

3.88542363006410e+005,-1.91582676689165e+001,-2.17530929796921e+000

3.93966212270369e+005,-1.91583921072823e+001,-2.20553749461746e+000

3.99465775648511e+005,-1.91585197729614e+001,-2.23618225014062e+000

4.05042110070485e+005,-1.91586507426193e+001,-2.26724917957201e+000

4.10696287220124e+005,-1.91587850943859e+001,-2.29874396976020e+000

4.16429393741414e+005,-1.91589229078657e+001,-2.33067238021108e+000

4.22242531447321e+005,-1.91590642641470e+001,-2.36304024393985e+000

4.28136817531551e+005,-1.91592092458106e+001,-2.39585346833603e+000

4.34113384783250e+005,-1.91593579369373e+001,-2.42911803603958e+000

4.40173381804713e+005,-1.91595104231149e+001,-2.46284000583259e+000

4.46317973232124e+005,-1.91596667914434e+001,-2.49702551354077e+000

4.52548339959385e+005,-1.91598271305397e+001,-2.53168077295226e+000

4.58865679365059e+005,-1.91599915305414e+001,-2.56681207675002e+000

4.65271205542494e+005,-1.91601600831082e+001,-2.60242579745897e+000

4.71766149533147e+005,-1.91603328814243e+001,-2.63852838841070e+000

4.78351759563174e+005,-1.91605100201968e+001,-2.67512638472329e+000

4.85029301283321e+005,-1.91606915956557e+001,-2.71222640430037e+000

4.91800058012158e+005,-1.91608777055502e+001,-2.74983514884777e+000

4.98665330982714e+005,-1.91610684491450e+001,-2.78795940490962e+000

5.05626439592555e+005,-1.91612639272150e+001,-2.82660604492449e+000

5.12684721657352e+005,-1.91614642420385e+001,-2.86578202830260e+000

5.19841533667984e+005,-1.91616694973891e+001,-2.90549440252603e+000

5.27098251051240e+005,-1.91618797985256e+001,-2.94575030427116e+000

5.34456268434150e+005,-1.91620952521816e+001,-2.98655696055445e+000

5.41916999912011e+005,-1.91623159665530e+001,-3.02792168990636e+000

