Freq.,VOut,OutRef

1.00000000000000e+004,-1.98806279421085e+001,-1.92961220999355e-001

1.01395947979003e+004,-1.98806284030842e+001,-1.95654852536777e-001

1.02811382665607e+004,-1.98806288770196e+001,-1.98386085483122e-001

1.04246576084112e+004,-1.98806293642788e+001,-2.01155444723043e-001

1.05701804056138e+004,-1.98806298652364e+001,-2.03963462467354e-001

1.07177346253629e+004,-1.98806303802776e+001,-2.06810678354755e-001

1.08673486252606e+004,-1.98806309097982e+001,-2.09697639557211e-001

1.10190511587661e+004,-1.98806314542055e+001,-2.12624900884032e-001

1.11728713807222e+004,-1.98806320139177e+001,-2.15593024890375e-001

1.13288388529580e+004,-1.98806325893653e+001,-2.18602581980790e-001

1.14869835499703e+004,-1.98806331809904e+001,-2.21654150525086e-001

1.16473358646846e+004,-1.98806337892481e+001,-2.24748316962331e-001

1.18099266142953e+004,-1.98806344146057e+001,-2.27885675921761e-001

1.19747870461893e+004,-1.98806350575442e+001,-2.31066830327712e-001

1.21419488439505e+004,-1.98806357185576e+001,-2.34292391524044e-001

1.23114441334492e+004,-1.98806363981541e+001,-2.37562979386729e-001

1.24833054890161e+004,-1.98806370968561e+001,-2.40879222442626e-001

1.26575659397028e+004,-1.98806378152009e+001,-2.44241757992967e-001

1.28342589756290e+004,-1.98806385537404e+001,-2.47651232235771e-001

1.30134185544193e+004,-1.98806393130425e+001,-2.51108300384991e-001

1.31950791077289e+004,-1.98806400936908e+001,-2.54613626803843e-001

1.33792755478611e+004,-1.98806408962854e+001,-2.58167885126499e-001

1.35660432744767e+004,-1.98806417214433e+001,-2.61771758390038e-001

1.37554181813974e+004,-1.98806425697989e+001,-2.65425939164839e-001

1.39474366635040e+004,-1.98806434420040e+001,-2.69131129689970e-001

1.41421356237309e+004,-1.98806443387293e+001,-2.72888042003471e-001

1.43395524801583e+004,-1.98806452606641e+001,-2.76697398083708e-001

1.45397251732031e+004,-1.98806462085171e+001,-2.80559929984704e-001

1.47426921729110e+004,-1.98806471830168e+001,-2.84476379980092e-001

1.49484924863494e+004,-1.98806481849123e+001,-2.88447500701296e-001

1.51571656651040e+004,-1.98806492149738e+001,-2.92474055287303e-001

1.53687518128801e+004,-1.98806502739931e+001,-2.96556817526375e-001

1.55832915932100e+004,-1.98806513627842e+001,-3.00696572007322e-001

1.58008262372675e+004,-1.98806524821840e+001,-3.04894114270597e-001

1.60213975517924e+004,-1.98806536330529e+001,-3.09150250959521e-001

1.62450479271247e+004,-1.98806548162758e+001,-3.13465799975582e-001

1.64718203453514e+004,-1.98806560327620e+001,-3.17841590635639e-001

1.67017583885674e+004,-1.98806572834465e+001,-3.22278463833467e-001

1.69349062472505e+004,-1.98806585692908e+001,-3.26777272195755e-001

1.71713087287550e+004,-1.98806598912832e+001,-3.31338880251786e-001

1.74110112659224e+004,-1.98806612504399e+001,-3.35964164595809e-001

1.76540599258131e+004,-1.98806626478056e+001,-3.40654014057327e-001

1.79005014185594e+004,-1.98806640844544e+001,-3.45409329870103e-001

1.81503831063432e+004,-1.98806655614904e+001,-3.50231025846465e-001

1.84037530124975e+004,-1.98806670800492e+001,-3.55120028551721e-001

1.86606598307361e+004,-1.98806686412979e+001,-3.60077277483337e-001

1.89211529345119e+004,-1.98806702464365e+001,-3.65103725250923e-001

1.91852823865052e+004,-1.98806718966986e+001,-3.70200337758900e-001

1.94530989482457e+004,-1.98806735933529e+001,-3.75368094391502e-001

1.97246540898671e+004,-1.98806753377033e+001,-3.80607988201224e-001

1.99999999999999e+004,-1.98806771310907e+001,-3.85921026100020e-001

2.02791895958005e+004,-1.98806789748934e+001,-3.91308229051808e-001

2.05622765331213e+004,-1.98806808705285e+001,-3.96770632270370e-001

2.08493152168224e+004,-1.98806828194531e+001,-4.02309285413816e-001

2.11403608112276e+004,-1.98806848231652e+001,-4.07925252790716e-001

2.14354692507258e+004,-1.98806868832047e+001,-4.13619613562427e-001

2.17346972505211e+004,-1.98806890011549e+001,-4.19393461949963e-001

2.20381023175322e+004,-1.98806911786437e+001,-4.25247907444485e-001

2.23457427614443e+004,-1.98806934173446e+001,-4.31184075020491e-001

2.26576777059159e+004,-1.98806957189784e+001,-4.37203105350700e-001

2.29739670999406e+004,-1.98806980853138e+001,-4.43306155027022e-001

2.32946717293690e+004,-1.98807005181696e+001,-4.49494396779599e-001

2.36198532285905e+004,-1.98807030194155e+001,-4.55769019705123e-001

2.39495740923785e+004,-1.98807055909740e+001,-4.62131229492234e-001

2.42838976879009e+004,-1.98807082348212e+001,-4.68582248655782e-001

2.46228882668982e+004,-1.98807109529891e+001,-4.75123316768290e-001

2.49666109780322e+004,-1.98807137475668e+001,-4.81755690699090e-001

2.53151318794055e+004,-1.98807166207019e+001,-4.88480644856155e-001

2.56685179512580e+004,-1.98807195746023e+001,-4.95299471431734e-001

2.60268371088386e+004,-1.98807226115383e+001,-5.02213480645794e-001

2.63901582154578e+004,-1.98807257338436e+001,-5.09224001003047e-001

2.67585510957221e+004,-1.98807289439180e+001,-5.16332379542276e-001

2.71320865489533e+004,-1.98807322442280e+001,-5.23539982100532e-001

2.75108363627948e+004,-1.98807356373098e+001,-5.30848193570581e-001

2.78948733270080e+004,-1.98807391257713e+001,-5.38258418167240e-001

2.82842712474618e+004,-1.98807427122928e+001,-5.45772079699518e-001

2.86791049603164e+004,-1.98807463996304e+001,-5.53390621841046e-001

2.90794503464061e+004,-1.98807501906179e+001,-5.61115508406575e-001

2.94853843458219e+004,-1.98807540881682e+001,-5.68948223634884e-001

2.98969849726987e+004,-1.98807580952762e+001,-5.76890272472843e-001

3.03143313302078e+004,-1.98807622150211e+001,-5.84943180862197e-001

3.07375036257601e+004,-1.98807664505684e+001,-5.93108496034316e-001

3.11665831864199e+004,-1.98807708051729e+001,-6.01387786805082e-001

3.16016524745350e+004,-1.98807752821803e+001,-6.09782643877639e-001

3.20427951035848e+004,-1.98807798850308e+001,-6.18294680144796e-001

3.24900958542493e+004,-1.98807846172609e+001,-6.26925531001080e-001

3.29436406907028e+004,-1.98807894825066e+001,-6.35676854653684e-001

3.34035167771346e+004,-1.98807944845061e+001,-6.44550332441062e-001

3.38698124945009e+004,-1.98807996271025e+001,-6.53547669156516e-001

3.43426174575100e+004,-1.98808049142469e+001,-6.62670593372996e-001

3.48220225318448e+004,-1.98808103500013e+001,-6.71920857775050e-001

3.53081198516260e+004,-1.98808159385420e+001,-6.81300239494875e-001

3.58010028371187e+004,-1.98808216841625e+001,-6.90810540451823e-001

3.63007662126863e+004,-1.98808275912767e+001,-7.00453587699917e-001

3.68075060249948e+004,-1.98808336644228e+001,-7.10231233774546e-001

3.73213196614721e+004,-1.98808399082665e+001,-7.20145357049033e-001

3.78423058690237e+004,-1.98808463276041e+001,-7.30197862095751e-001

3.83705647730104e+004,-1.98808529273670e+001,-7.40390680048035e-001

3.89061978964912e+004,-1.98808597126249e+001,-7.50725768971105e-001

3.94493081797342e+004,-1.98808666885901e+001,-7.61205114238035e-001

3.99999999999998e+004,-1.98808738606210e+001,-7.71830728907600e-001

4.05583791916010e+004,-1.98808812342266e+001,-7.82604654112470e-001

4.11245530662425e+004,-1.98808888150708e+001,-7.93528959446126e-001

4.16986304336447e+004,-1.98808966089762e+001,-8.04605743362701e-001

4.22807216224550e+004,-1.98809046219290e+001,-8.15837133576442e-001

4.28709385014515e+004,-1.98809128600835e+001,-8.27225287468921e-001

4.34693945010421e+004,-1.98809213297669e+001,-8.38772392501236e-001

4.40762046350642e+004,-1.98809300374840e+001,-8.50480666634250e-001

4.46914855228886e+004,-1.98809389899222e+001,-8.62352358750895e-001

4.53153554118317e+004,-1.98809481939565e+001,-8.74389749087766e-001

4.59479341998812e+004,-1.98809576566553e+001,-8.86595149668656e-001

4.65893434587380e+004,-1.98809673852849e+001,-8.98970904749816e-001

4.72397064571810e+004,-1.98809773873159e+001,-9.11519391265605e-001

4.78991481847569e+004,-1.98809876704286e+001,-9.24243019282781e-001

4.85677953758016e+004,-1.98809982425188e+001,-9.37144232462554e-001

4.92457765337964e+004,-1.98810091117039e+001,-9.50225508526398e-001

4.99332219560642e+004,-1.98810202863291e+001,-9.63489359728819e-001

5.06302637588109e+004,-1.98810317749739e+001,-9.76938333338594e-001

5.13370359025159e+004,-1.98810435864585e+001,-9.90575012123510e-001

5.20536742176771e+004,-1.98810557298507e+001,-1.00440201484478e+000

5.27803164309155e+004,-1.98810682144724e+001,-1.01842199675687e+000

5.35171021914442e+004,-1.98810810499076e+001,-1.03263765011251e+000

5.42641730979066e+004,-1.98810942460089e+001,-1.04705170467794e+000

5.50216727255895e+004,-1.98811078129053e+001,-1.06166692825455e+000

5.57897466540159e+004,-1.98811217610100e+001,-1.07648612720365e+000

5.65685424949235e+004,-1.98811361010283e+001,-1.09151214698435e+000

5.73582099206328e+004,-1.98811508439658e+001,-1.10674787269545e+000

5.81589006928121e+004,-1.98811660011369e+001,-1.12219622962433e+000

5.89707686916437e+004,-1.98811815841732e+001,-1.13786018380545e+000

5.97939699453972e+004,-1.98811976050324e+001,-1.15374274258494e+000

6.06286626604156e+004,-1.98812140760080e+001,-1.16984695519269e+000

6.14750072515201e+004,-1.98812310097376e+001,-1.18617591332503e+000

6.23331663728396e+004,-1.98812484192137e+001,-1.20273275173043e+000

6.32033049490698e+004,-1.98812663177927e+001,-1.21952064880852e+000

6.40855902071694e+004,-1.98812847192055e+001,-1.23654282721384e+000

6.49801917084985e+004,-1.98813036375682e+001,-1.25380255446837e+000

6.58872813814055e+004,-1.98813230873922e+001,-1.27130314358354e+000

6.68070335542691e+004,-1.98813430835958e+001,-1.28904795368985e+000

6.77396249890018e+004,-1.98813636415156e+001,-1.30704039067494e+000

6.86852349150199e+004,-1.98813847769175e+001,-1.32528390783136e+000

6.96440450636895e+004,-1.98814065060097e+001,-1.34378200651081e+000

7.06162397032520e+004,-1.98814288454541e+001,-1.36253823679125e+000

7.16020056742374e+004,-1.98814518123798e+001,-1.38155619814818e+000

7.26015324253724e+004,-1.98814754243952e+001,-1.40083954013997e+000

7.36150120499896e+004,-1.98814996996025e+001,-1.42039196309770e+000

7.46426393229441e+004,-1.98815246566104e+001,-1.44021721882822e+000

7.56846117380472e+004,-1.98815503145491e+001,-1.46031911132430e+000

7.67411295460207e+004,-1.98815766930842e+001,-1.48070149748642e+000

7.78123957929823e+004,-1.98816038124320e+001,-1.50136828785189e+000

7.88986163594682e+004,-1.98816316933747e+001,-1.52232344733499e+000

7.99999999999995e+004,-1.98816603572764e+001,-1.54357099597814e+000

8.11167583832018e+004,-1.98816898260989e+001,-1.56511500971158e+000

8.22491061324848e+004,-1.98817201224186e+001,-1.58695962112455e+000

8.33972608672892e+004,-1.98817512694440e+001,-1.60910902024435e+000

8.45614432449099e+004,-1.98817832910323e+001,-1.63156745532944e+000

8.57418770029029e+004,-1.98818162117086e+001,-1.65433923367101e+000

8.69387890020841e+004,-1.98818500566835e+001,-1.67742872240551e+000

8.81524092701283e+004,-1.98818848518731e+001,-1.70084034933737e+000

8.93829710457770e+004,-1.98819206239178e+001,-1.72457860377498e+000

9.06307108236633e+004,-1.98819574002029e+001,-1.74864803737557e+000

9.18958683997622e+004,-1.98819952088793e+001,-1.77305326500176e+000

9.31786869174758e+004,-1.98820340788843e+001,-1.79779896559151e+000

9.44794129143618e+004,-1.98820740399642e+001,-1.82288988303565e+000

9.57982963695136e+004,-1.98821151226964e+001,-1.84833082707143e+000

9.71355907516031e+004,-1.98821573585123e+001,-1.87412667418502e+000

9.84915530675926e+004,-1.98822007797209e+001,-1.90028236852734e+000

9.98664439121282e+004,-1.98822454195340e+001,-1.92680292284040e+000

1.01260527517622e+005,-1.98822913120900e+001,-1.95369341939847e+000

1.02674071805032e+005,-1.98823384924808e+001,-1.98095901095887e+000

1.04107348435354e+005,-1.98823869967772e+001,-2.00860492172778e+000

1.05560632861831e+005,-1.98824368620567e+001,-2.03663644833560e+000

1.07034204382888e+005,-1.98824881264310e+001,-2.06505896082938e+000

1.08528346195813e+005,-1.98825408290748e+001,-2.09387790367349e+000

1.10043345451179e+005,-1.98825950102551e+001,-2.12309879676773e+000

1.11579493308032e+005,-1.98826507113617e+001,-2.15272723647468e+000

1.13137084989847e+005,-1.98827079749375e+001,-2.18276889666434e+000

1.14716419841265e+005,-1.98827668447114e+001,-2.21322952976901e+000

1.16317801385624e+005,-1.98828273656301e+001,-2.24411496785388e+000

1.17941537383287e+005,-1.98828895838923e+001,-2.27543112370070e+000

1.19587939890794e+005,-1.98829535469829e+001,-2.30718399190527e+000

1.21257325320831e+005,-1.98830193037087e+001,-2.33937964998956e+000

1.22950014503040e+005,-1.98830869042346e+001,-2.37202425952841e+000

1.24666332745679e+005,-1.98831564001214e+001,-2.40512406728893e+000

1.26406609898139e+005,-1.98832278443636e+001,-2.43868540638678e+000

1.28171180414339e+005,-1.98833012914292e+001,-2.47271469745557e+000

1.29960383416997e+005,-1.98833767973006e+001,-2.50721844983182e+000

1.31774562762811e+005,-1.98834544195152e+001,-2.54220326275483e+000

1.33614067108538e+005,-1.98835342172091e+001,-2.57767582658140e+000

1.35479249978003e+005,-1.98836162511605e+001,-2.61364292401690e+000

1.37370469830040e+005,-1.98837005838346e+001,-2.65011143135983e+000

1.39288090127379e+005,-1.98837872794302e+001,-2.68708831976495e+000

1.41232479406504e+005,-1.98838764039268e+001,-2.72458065651914e+000

1.43204011348474e+005,-1.98839680251338e+001,-2.76259560633494e+000

1.45203064850745e+005,-1.98840622127398e+001,-2.80114043266015e+000

1.47230024099979e+005,-1.98841590383648e+001,-2.84022249900312e+000

1.49285278645888e+005,-1.98842585756122e+001,-2.87984927027453e+000

1.51369223476094e+005,-1.98843609001234e+001,-2.92002831414568e+000

1.53482259092041e+005,-1.98844660896332e+001,-2.96076730242315e+000

1.55624791585964e+005,-1.98845742240266e+001,-3.00207401244170e+000

1.57797232718936e+005,-1.98846853853974e+001,-3.04395632847202e+000

1.59999999999999e+005,-1.98847996581088e+001,-3.08642224314639e+000

1.62233516766403e+005,-1.98849171288541e+001,-3.12947985890323e+000

1.64498212264969e+005,-1.98850378867205e+001,-3.17313738944570e+000

1.66794521734578e+005,-1.98851620232540e+001,-3.21740316122106e+000

1.69122886489819e+005,-1.98852896325258e+001,-3.26228561491456e+000

1.71483754005805e+005,-1.98854208112008e+001,-3.30779330696494e+000

1.73877578004168e+005,-1.98855556586074e+001,-3.35393491109400e+000

1.76304818540256e+005,-1.98856942768098e+001,-3.40071921985625e+000

1.78765942091554e+005,-1.98858367706817e+001,-3.44815514620618e+000

1.81261421647326e+005,-1.98859832479817e+001,-3.49625172508440e+000

1.83791736799524e+005,-1.98861338194311e+001,-3.54501811502155e+000

1.86357373834951e+005,-1.98862885987936e+001,-3.59446359976012e+000

1.88958825828723e+005,-1.98864477029570e+001,-3.64459758989639e+000

1.91596592739027e+005,-1.98866112520168e+001,-3.69542962454009e+000

1.94271181503206e+005,-1.98867793693622e+001,-3.74696937299337e+000

1.96983106135185e+005,-1.98869521817642e+001,-3.79922663644812e+000

1.99732887824256e+005,-1.98871298194658e+001,-3.85221134970274e+000

2.02521055035243e+005,-1.98873124162748e+001,-3.90593358289861e+000

2.05348143610063e+005,-1.98875001096585e+001,-3.96040354327423e+000

2.08214696870707e+005,-1.98876930408413e+001,-4.01563157694083e+000

2.11121265723661e+005,-1.98878913549042e+001,-4.07162817067527e+000

2.14068408765776e+005,-1.98880952008874e+001,-4.12840395373445e+000

2.17056692391625e+005,-1.98883047318948e+001,-4.18596969968651e+000

2.20086690902357e+005,-1.98885201052016e+001,-4.24433632826586e+000

2.23158986616063e+005,-1.98887414823642e+001,-4.30351490724347e+000

2.26274169979693e+005,-1.98889690293336e+001,-4.36351665431974e+000

2.29432839682530e+005,-1.98892029165702e+001,-4.42435293903644e+000

2.32635602771247e+005,-1.98894433191626e+001,-4.48603528470838e+000

2.35883074766574e+005,-1.98896904169489e+001,-4.54857537037555e+000

2.39175879781588e+005,-1.98899443946413e+001,-4.61198503277359e+000

2.42514650641661e+005,-1.98902054419527e+001,-4.67627626832708e+000

2.45900029006080e+005,-1.98904737537277e+001,-4.74146123516007e+000

2.49332665491357e+005,-1.98907495300756e+001,-4.80755225512845e+000

2.52813219796278e+005,-1.98910329765078e+001,-4.87456181587134e+000

2.56342360828676e+005,-1.98913243040769e+001,-4.94250257288351e+000

2.59920766833993e+005,-1.98916237295209e+001,-5.01138735160681e+000

2.63549125525621e+005,-1.98919314754091e+001,-5.08122914954286e+000

2.67228134217075e+005,-1.98922477702929e+001,-5.15204113838463e+000

2.70958499956006e+005,-1.98925728488594e+001,-5.22383666616883e+000

2.74740939660078e+005,-1.98929069520882e+001,-5.29662925944815e+000

2.78576180254757e+005,-1.98932503274132e+001,-5.37043262548339e+000

2.82464958813007e+005,-1.98936032288864e+001,-5.44526065445573e+000

2.86408022696948e+005,-1.98939659173472e+001,-5.52112742169886e+000

2.90406129701488e+005,-1.98943386605942e+001,-5.59804718995031e+000

2.94460048199957e+005,-1.98947217335617e+001,-5.67603441162433e+000

2.98570557291775e+005,-1.98951154185003e+001,-5.75510373110236e+000

3.02738446952187e+005,-1.98955200051608e+001,-5.83526998704445e+000

3.06964518184081e+005,-1.98959357909830e+001,-5.91654821472035e+000

3.11249583171928e+005,-1.98963630812886e+001,-5.99895364835935e+000

3.15594465437872e+005,-1.98968021894782e+001,-6.08250172352040e+000

3.19999999999997e+005,-1.98972534372326e+001,-6.16720807948054e+000

3.24467033532806e+005,-1.98977171547189e+001,-6.25308856164342e+000

3.28996424529938e+005,-1.98981936808007e+001,-6.34015922396668e+000

3.33589043469155e+005,-1.98986833632536e+001,-6.42843633140792e+000

3.38245772979638e+005,-1.98991865589840e+001,-6.51793636239029e+000

3.42967508011610e+005,-1.98997036342544e+001,-6.60867601128569e+000

3.47755156008335e+005,-1.99002349649124e+001,-6.70067219091798e+000

3.52609637080511e+005,-1.99007809366244e+001,-6.79394203508313e+000

3.57531884183106e+005,-1.99013419451152e+001,-6.88850290108931e+000

3.62522843294651e+005,-1.99019183964121e+001,-6.98437237231364e+000

3.67583473599047e+005,-1.99025107070941e+001,-7.08156826077765e+000

3.72714747669902e+005,-1.99031193045463e+001,-7.18010860974074e+000

3.77917651657445e+005,-1.99037446272201e+001,-7.28001169631087e+000

3.83193185478053e+005,-1.99043871248979e+001,-7.38129603407337e+000

3.88542363006410e+005,-1.99050472589641e+001,-7.48398037573636e+000

3.93966212270369e+005,-1.99057255026812e+001,-7.58808371579389e+000

3.99465775648511e+005,-1.99064223414712e+001,-7.69362529320588e+000

4.05042110070485e+005,-1.99071382732039e+001,-7.80062459409486e+000

4.10696287220124e+005,-1.99078738084896e+001,-7.90910135445985e+000

4.16429393741414e+005,-1.99086294709783e+001,-8.01907556290513e+000

4.22242531447321e+005,-1.99094057976653e+001,-8.13056746338817e+000

4.28136817531551e+005,-1.99102033392020e+001,-8.24359755798005e+000

4.34113384783250e+005,-1.99110226602136e+001,-8.35818660964484e+000

4.40173381804713e+005,-1.99118643396226e+001,-8.47435564503336e+000

4.46317973232124e+005,-1.99127289709791e+001,-8.59212595729188e+000

4.52548339959385e+005,-1.99136171627970e+001,-8.71151910888767e+000

4.58865679365059e+005,-1.99145295388973e+001,-8.83255693444842e+000

4.65271205542494e+005,-1.99154667387577e+001,-8.95526154361704e+000

4.71766149533147e+005,-1.99164294178693e+001,-9.07965532392166e+000

4.78351759563174e+005,-1.99174182481003e+001,-9.20576094365890e+000

4.85029301283321e+005,-1.99184339180660e+001,-9.33360135479323e+000

4.91800058012158e+005,-1.99194771335070e+001,-9.46319979586834e+000

4.98665330982714e+005,-1.99205486176739e+001,-9.59457979493477e+000

5.05626439592555e+005,-1.99216491117199e+001,-9.72776517248892e+000

5.12684721657352e+005,-1.99227793751007e+001,-9.86278004442713e+000

5.19841533667984e+005,-1.99239401859824e+001,-9.99964882501201e+000

5.27098251051240e+005,-1.99251323416570e+001,-1.01383962298523e+001

5.34456268434150e+005,-1.99263566589661e+001,-1.02790472788949e+001

5.41916999912011e+005,-1.99276139747332e+001,-1.04216272994291e+001

