Freq.,VOut,OutRef

1.00000000000000e+004,-5.10256084599382e-001,-5.11381259662776e-002

1.01395947979003e+004,-5.10256076576209e-001,-5.18519878233131e-002

1.02811382665607e+004,-5.10256068327589e-001,-5.25758148291785e-002

1.04246576084112e+004,-5.10256059847121e-001,-5.33097460931434e-002

1.05701804056138e+004,-5.10256051128085e-001,-5.40539226667561e-002

1.07177346253629e+004,-5.10256042163989e-001,-5.48084875686111e-002

1.08673486252606e+004,-5.10256032948009e-001,-5.55735858145751e-002

1.10190511587661e+004,-5.10256023472805e-001,-5.63493644462611e-002

1.11728713807222e+004,-5.10256013731367e-001,-5.71359725553558e-002

1.13288388529580e+004,-5.10256003715982e-001,-5.79335613173871e-002

1.14869835499703e+004,-5.10255993419161e-001,-5.87422840159516e-002

1.16473358646846e+004,-5.10255982832647e-001,-5.95622960780467e-002

1.18099266142953e+004,-5.10255971948649e-001,-6.03937550950709e-002

1.19747870461893e+004,-5.10255960758785e-001,-6.12368208617579e-002

1.21419488439505e+004,-5.10255949254206e-001,-6.20916554043022e-002

1.23114441334492e+004,-5.10255937426334e-001,-6.29584230076615e-002

1.24833054890161e+004,-5.10255925265905e-001,-6.38372902530635e-002

1.26575659397028e+004,-5.10255912763561e-001,-6.47284260458561e-002

1.28342589756290e+004,-5.10255899909823e-001,-6.56320016486775e-002

1.30134185544193e+004,-5.10255886694796e-001,-6.65481907154494e-002

1.31950791077289e+004,-5.10255873108212e-001,-6.74771693250378e-002

1.33792755478611e+004,-5.10255859139655e-001,-6.84191160138738e-002

1.35660432744767e+004,-5.10255844778455e-001,-6.93742118096699e-002

1.37554181813974e+004,-5.10255830013563e-001,-7.03426402684226e-002

1.39474366635040e+004,-5.10255814833563e-001,-7.13245875081344e-002

1.41421356237309e+004,-5.10255799226928e-001,-7.23202422445272e-002

1.43395524801583e+004,-5.10255783181551e-001,-7.33297958284957e-002

1.45397251732031e+004,-5.10255766685082e-001,-7.43534422821751e-002

1.47426921729110e+004,-5.10255749724933e-001,-7.53913783351824e-002

1.49484924863494e+004,-5.10255732288008e-001,-7.64438034643433e-002

1.51571656651040e+004,-5.10255714360868e-001,-7.75109199312032e-002

1.53687518128801e+004,-5.10255695929864e-001,-7.85929328197987e-002

1.55832915932100e+004,-5.10255676980700e-001,-7.96900500780556e-002

1.58008262372675e+004,-5.10255657498785e-001,-8.08024825572987e-002

1.60213975517924e+004,-5.10255637469338e-001,-8.19304440500204e-002

1.62450479271247e+004,-5.10255616876892e-001,-8.30741513350652e-002

1.64718203453514e+004,-5.10255595705449e-001,-8.42338242182985e-002

1.67017583885674e+004,-5.10255573939056e-001,-8.54096855708559e-002

1.69349062472505e+004,-5.10255551560662e-001,-8.66019613789223e-002

1.71713087287550e+004,-5.10255528553359e-001,-8.78108807797196e-002

1.74110112659224e+004,-5.10255504899230e-001,-8.90366761127938e-002

1.76540599258131e+004,-5.10255480580184e-001,-9.02795829582691e-002

1.79005014185594e+004,-5.10255455577600e-001,-9.15398401860471e-002

1.81503831063432e+004,-5.10255429872158e-001,-9.28176900009976e-002

1.84037530124975e+004,-5.10255403444245e-001,-9.41133779877364e-002

1.86606598307361e+004,-5.10255376273374e-001,-9.54271531613462e-002

1.89211529345119e+004,-5.10255348338813e-001,-9.67592680109909e-002

1.91852823865052e+004,-5.10255319618948e-001,-9.81099785525268e-002

1.94530989482457e+004,-5.10255290091937e-001,-9.94795443731335e-002

1.97246540898671e+004,-5.10255259734922e-001,-1.00868228686590e-001

1.99999999999999e+004,-5.10255228524571e-001,-1.02276298380017e-001

2.02791895958005e+004,-5.10255196436996e-001,-1.03704024065545e-001

2.05622765331213e+004,-5.10255163447557e-001,-1.05151680133312e-001

2.08493152168224e+004,-5.10255129530792e-001,-1.06619544805374e-001

2.11403608112276e+004,-5.10255094660663e-001,-1.08107900186355e-001

2.14354692507258e+004,-5.10255058810517e-001,-1.09617032318584e-001

2.17346972505211e+004,-5.10255021952760e-001,-1.11147231238634e-001

2.20381023175322e+004,-5.10254984058963e-001,-1.12698791031919e-001

2.23457427614443e+004,-5.10254945100013e-001,-1.14272009889829e-001

2.26576777059159e+004,-5.10254905046223e-001,-1.15867190163642e-001

2.29739670999406e+004,-5.10254863866493e-001,-1.17484638429618e-001

2.32946717293690e+004,-5.10254821529444e-001,-1.19124665540557e-001

2.36198532285905e+004,-5.10254778002441e-001,-1.20787586690680e-001

2.39495740923785e+004,-5.10254733252036e-001,-1.22473721473210e-001

2.42838976879009e+004,-5.10254687243926e-001,-1.24183393943555e-001

2.46228882668982e+004,-5.10254639942766e-001,-1.25916932680675e-001

2.49666109780322e+004,-5.10254591312111e-001,-1.27674670851362e-001

2.53151318794055e+004,-5.10254541314799e-001,-1.29456946271553e-001

2.56685179512580e+004,-5.10254489912274e-001,-1.31264101475726e-001

2.60268371088386e+004,-5.10254437065028e-001,-1.33096483778635e-001

2.63901582154578e+004,-5.10254382732689e-001,-1.34954445343063e-001

2.67585510957221e+004,-5.10254326873343e-001,-1.36838343249765e-001

2.71320865489533e+004,-5.10254269444139e-001,-1.38748539563330e-001

2.75108363627948e+004,-5.10254210400911e-001,-1.40685401403358e-001

2.78948733270080e+004,-5.10254149698399e-001,-1.42649301014251e-001

2.82842712474618e+004,-5.10254087290102e-001,-1.44640615836202e-001

2.86791049603164e+004,-5.10254023127909e-001,-1.46659728580949e-001

2.90794503464061e+004,-5.10253957162529e-001,-1.48707027301567e-001

2.94853843458219e+004,-5.10253889343515e-001,-1.50782905467267e-001

2.98969849726987e+004,-5.10253819618677e-001,-1.52887762042833e-001

3.03143313302078e+004,-5.10253747934426e-001,-1.55022001561484e-001

3.07375036257601e+004,-5.10253674235793e-001,-1.57186034203605e-001

3.11665831864199e+004,-5.10253598466253e-001,-1.59380275876026e-001

3.16016524745350e+004,-5.10253520567593e-001,-1.61605148292946e-001

3.20427951035848e+004,-5.10253440479924e-001,-1.63861079054992e-001

3.24900958542493e+004,-5.10253358141864e-001,-1.66148501732285e-001

3.29436406907028e+004,-5.10253273490236e-001,-1.68467855947980e-001

3.34035167771346e+004,-5.10253186460005e-001,-1.70819587463025e-001

3.38698124945009e+004,-5.10253096984418e-001,-1.73204148261163e-001

3.43426174575100e+004,-5.10253004994829e-001,-1.75621996636302e-001

3.48220225318448e+004,-5.10252910420447e-001,-1.78073597281238e-001

3.53081198516260e+004,-5.10252813188952e-001,-1.80559421374313e-001

3.58010028371187e+004,-5.10252713225623e-001,-1.83079946673682e-001

3.63007662126863e+004,-5.10252610453716e-001,-1.85635657607208e-001

3.68075060249948e+004,-5.10252504794504e-001,-1.88227045364767e-001

3.73213196614721e+004,-5.10252396166658e-001,-1.90854607995886e-001

3.78423058690237e+004,-5.10252284487158e-001,-1.93518850500284e-001

3.83705647730104e+004,-5.10252169670155e-001,-1.96220284930521e-001

3.89061978964912e+004,-5.10252051627541e-001,-1.98959430487251e-001

3.94493081797342e+004,-5.10251930268930e-001,-2.01736813619132e-001

3.99999999999998e+004,-5.10251805501057e-001,-2.04552968125860e-001

4.05583791916010e+004,-5.10251677228289e-001,-2.07408435258998e-001

4.11245530662425e+004,-5.10251545352374e-001,-2.10303763826031e-001

4.16986304336447e+004,-5.10251409771974e-001,-2.13239510298078e-001

4.22807216224550e+004,-5.10251270383286e-001,-2.16216238913842e-001

4.28709385014515e+004,-5.10251127079316e-001,-2.19234521791028e-001

4.34693945010421e+004,-5.10250979750317e-001,-2.22294939033358e-001

4.40762046350642e+004,-5.10250828283211e-001,-2.25398078845399e-001

4.46914855228886e+004,-5.10250672562029e-001,-2.28544537642442e-001

4.53153554118317e+004,-5.10250512467271e-001,-2.31734920168524e-001

4.59479341998812e+004,-5.10250347876298e-001,-2.34969839609315e-001

4.65893434587380e+004,-5.10250178662911e-001,-2.38249917712806e-001

4.72397064571810e+004,-5.10250004697560e-001,-2.41575784906449e-001

4.78991481847569e+004,-5.10249825846860e-001,-2.44948080421488e-001

4.85677953758016e+004,-5.10249641973747e-001,-2.48367452412876e-001

4.92457765337964e+004,-5.10249452937425e-001,-2.51834558085273e-001

4.99332219560642e+004,-5.10249258593011e-001,-2.55350063819886e-001

5.06302637588109e+004,-5.10249058791747e-001,-2.58914645301385e-001

5.13370359025159e+004,-5.10248853380499e-001,-2.62528987649479e-001

5.20536742176771e+004,-5.10248642202066e-001,-2.66193785548661e-001

5.27803164309155e+004,-5.10248425094643e-001,-2.69909743384001e-001

5.35171021914442e+004,-5.10248201892055e-001,-2.73677575375046e-001

5.42641730979066e+004,-5.10247972423464e-001,-2.77498005713467e-001

5.50216727255895e+004,-5.10247736513124e-001,-2.81371768703780e-001

5.57897466540159e+004,-5.10247493980598e-001,-2.85299608901883e-001

5.65685424949235e+004,-5.10247244640189e-001,-2.89282281261013e-001

5.73582099206328e+004,-5.10246988301176e-001,-2.93320551275471e-001

5.81589006928121e+004,-5.10246724767376e-001,-2.97415195128299e-001

5.89707686916437e+004,-5.10246453837253e-001,-3.01566999840362e-001

5.97939699453972e+004,-5.10246175303597e-001,-3.05776763421959e-001

6.06286626604156e+004,-5.10245888953323e-001,-3.10045295026817e-001

6.14750072515201e+004,-5.10245594567564e-001,-3.14373415106724e-001

6.23331663728396e+004,-5.10245291921146e-001,-3.18761955570608e-001

6.32033049490698e+004,-5.10244980782884e-001,-3.23211759942888e-001

6.40855902071694e+004,-5.10244660914809e-001,-3.27723683528308e-001

6.49801917084985e+004,-5.10244332072635e-001,-3.32298593573810e-001

6.58872813814055e+004,-5.10243994005084e-001,-3.36937369437343e-001

6.68070335542691e+004,-5.10243646453806e-001,-3.41640902756828e-001

6.77396249890018e+004,-5.10243289153538e-001,-3.46410097619868e-001

6.86852349150199e+004,-5.10242921831252e-001,-3.51245870741358e-001

6.96440450636895e+004,-5.10242544206672e-001,-3.56149151635629e-001

7.06162397032520e+004,-5.10242155991450e-001,-3.61120882799339e-001

7.16020056742374e+004,-5.10241756889386e-001,-3.66162019889663e-001

7.26015324253724e+004,-5.10241346595911e-001,-3.71273531910746e-001

7.36150120499896e+004,-5.10240924798024e-001,-3.76456401398495e-001

7.46426393229441e+004,-5.10240491174020e-001,-3.81711624610639e-001

7.56846117380472e+004,-5.10240045393366e-001,-3.87040211717597e-001

7.67411295460207e+004,-5.10239587116088e-001,-3.92443186998607e-001

7.78123957929823e+004,-5.10239115992999e-001,-3.97921589037120e-001

7.88986163594682e+004,-5.10238631665021e-001,-4.03476470922259e-001

7.99999999999995e+004,-5.10238133763288e-001,-4.09108900449999e-001

8.11167583832018e+004,-5.10237621908631e-001,-4.14819960330014e-001

8.22491061324848e+004,-5.10237095711242e-001,-4.20610748394563e-001

8.33972608672892e+004,-5.10236554770666e-001,-4.26482377807943e-001

8.45614432449099e+004,-5.10235998675163e-001,-4.32435977283302e-001

8.57418770029029e+004,-5.10235427001798e-001,-4.38472691297884e-001

8.69387890020841e+004,-5.10234839315725e-001,-4.44593680314956e-001

8.81524092701283e+004,-5.10234235170176e-001,-4.50800121006532e-001

8.93829710457770e+004,-5.10233614105945e-001,-4.57093206480397e-001

9.06307108236633e+004,-5.10232975651136e-001,-4.63474146510023e-001

9.18958683997622e+004,-5.10232319320745e-001,-4.69944167767509e-001

9.31786869174758e+004,-5.10231644616536e-001,-4.76504514059057e-001

9.44794129143618e+004,-5.10230951026319e-001,-4.83156446566893e-001

9.57982963695136e+004,-5.10230238023725e-001,-4.89901244090237e-001

9.71355907516031e+004,-5.10229505068102e-001,-4.96740203291568e-001

9.84915530675926e+004,-5.10228751603576e-001,-5.03674638948842e-001

9.98664439121282e+004,-5.10227977059229e-001,-5.10705884206110e-001

1.01260527517622e+005,-5.10227180848085e-001,-5.17835290832771e-001

1.02674071805032e+005,-5.10226362367290e-001,-5.25064229482682e-001

1.04107348435354e+005,-5.10225520997244e-001,-5.32394089958704e-001

1.05560632861831e+005,-5.10224656101257e-001,-5.39826281481754e-001

1.07034204382888e+005,-5.10223767025285e-001,-5.47362232960079e-001

1.08528346195813e+005,-5.10222853097115e-001,-5.55003393267865e-001

1.10043345451179e+005,-5.10221913626200e-001,-5.62751231522665e-001

1.11579493308032e+005,-5.10220947903052e-001,-5.70607237368306e-001

1.13137084989847e+005,-5.10219955198604e-001,-5.78572921264821e-001

1.14716419841265e+005,-5.10218934763857e-001,-5.86649814776666e-001

1.16317801385624e+005,-5.10217885829324e-001,-5.94839470870600e-001

1.17941537383287e+005,-5.10216807604423e-001,-6.03143464213879e-001

1.19587939890794e+005,-5.10215699277043e-001,-6.11563391478520e-001

1.21257325320831e+005,-5.10214560012597e-001,-6.20100871650681e-001

1.22950014503040e+005,-5.10213388954099e-001,-6.28757546340314e-001

1.24666332745679e+005,-5.10212185220805e-001,-6.37535080101159e-001

1.26406609898139e+005,-5.10210947908241e-001,-6.46435160749925e-001

1.28171180414339e+005,-5.10209676087110e-001,-6.55459499693088e-001

1.29960383416997e+005,-5.10208368802841e-001,-6.64609832257461e-001

1.31774562762811e+005,-5.10207025075126e-001,-6.73887918024051e-001

1.33614067108538e+005,-5.10205643896630e-001,-6.83295541170363e-001

1.35479249978003e+005,-5.10204224233057e-001,-6.92834510812192e-001

1.37370469830040e+005,-5.10202765021825e-001,-7.02506661355422e-001

1.39288090127379e+005,-5.10201265171669e-001,-7.12313852849040e-001

1.41232479406504e+005,-5.10199723561818e-001,-7.22257971344877e-001

1.43204011348474e+005,-5.10198139041087e-001,-7.32340929263441e-001

1.45203064850745e+005,-5.10196510427347e-001,-7.42564665761131e-001

1.47230024099979e+005,-5.10194836506516e-001,-7.52931147107404e-001

1.49285278645888e+005,-5.10193116031841e-001,-7.63442367063144e-001

1.51369223476094e+005,-5.10191347722965e-001,-7.74100347268266e-001

1.53482259092041e+005,-5.10189530265222e-001,-7.84907137630620e-001

1.55624791585964e+005,-5.10187662308631e-001,-7.95864816723552e-001

1.57797232718936e+005,-5.10185742466948e-001,-8.06975492188561e-001

1.59999999999999e+005,-5.10183769316939e-001,-8.18241301141910e-001

1.62233516766403e+005,-5.10181741397288e-001,-8.29664410589387e-001

1.64498212264969e+005,-5.10179657207689e-001,-8.41247017844833e-001

1.66794521734578e+005,-5.10177515207810e-001,-8.52991350956233e-001

1.69122886489819e+005,-5.10175313816352e-001,-8.64899669137128e-001

1.71483754005805e+005,-5.10173051410089e-001,-8.76974263203161e-001

1.73877578004168e+005,-5.10170726322597e-001,-8.89217456017472e-001

1.76304818540256e+005,-5.10168336843408e-001,-9.01631602939528e-001

1.78765942091554e+005,-5.10165881216818e-001,-9.14219092281654e-001

1.81261421647326e+005,-5.10163357640827e-001,-9.26982345772523e-001

1.83791736799524e+005,-5.10160764265894e-001,-9.39923819026023e-001

1.86357373834951e+005,-5.10158099193871e-001,-9.53046002017931e-001

1.88958825828723e+005,-5.10155360476798e-001,-9.66351419568253e-001

1.91596592739027e+005,-5.10152546115733e-001,-9.79842631831266e-001

1.94271181503206e+005,-5.10149654059444e-001,-9.93522234792064e-001

1.96983106135185e+005,-5.10146682203144e-001,-1.00739286077090e+000

1.99732887824256e+005,-5.10143628387277e-001,-1.02145717893352e+000

2.02521055035243e+005,-5.10140490396301e-001,-1.03571789580897e+000

2.05348143610063e+005,-5.10137265957069e-001,-1.05017775581652e+000

2.08214696870707e+005,-5.10133952737882e-001,-1.06483954179711e+000

2.11121265723661e+005,-5.10130548346629e-001,-1.07970607555566e+000

2.14068408765776e+005,-5.10127050329886e-001,-1.09478021840750e+000

2.17056692391625e+005,-5.10123456171127e-001,-1.11006487173600e+000

2.20086690902357e+005,-5.10119763289442e-001,-1.12556297755623e+000

2.23158986616063e+005,-5.10115969037989e-001,-1.14127751908685e+000

2.26274169979693e+005,-5.10112070702594e-001,-1.15721152133016e+000

2.29432839682530e+005,-5.10108065500083e-001,-1.17336805166136e+000

2.32635602771247e+005,-5.10103950576970e-001,-1.18975022042423e+000

2.35883074766574e+005,-5.10099723007502e-001,-1.20636118153839e+000

2.39175879781588e+005,-5.10095379792567e-001,-1.22320413311111e+000

2.42514650641661e+005,-5.10090917857622e-001,-1.24028231806216e+000

2.45900029006080e+005,-5.10086334051376e-001,-1.25759902475385e+000

2.49332665491357e+005,-5.10081625143918e-001,-1.27515758763319e+000

2.52813219796278e+005,-5.10076787825220e-001,-1.29296138788060e+000

2.56342360828676e+005,-5.10071818703281e-001,-1.31101385406952e+000

2.59920766833993e+005,-5.10066714302435e-001,-1.32931846283524e+000

2.63549125525621e+005,-5.10061471061700e-001,-1.34787873955236e+000

2.67228134217075e+005,-5.10056085333042e-001,-1.36669825902271e+000

2.70958499956006e+005,-5.10050553379324e-001,-1.38578064617355e+000

2.74740939660078e+005,-5.10044871372839e-001,-1.40512957676445e+000

2.78576180254757e+005,-5.10039035393331e-001,-1.42474877810500e+000

2.82464958813007e+005,-5.10033041426208e-001,-1.44464202978318e+000

2.86408022696948e+005,-5.10026885360654e-001,-1.46481316440319e+000

2.90406129701488e+005,-5.10020562987881e-001,-1.48526606833460e+000

2.94460048199957e+005,-5.10014069999121e-001,-1.50600468247133e+000

2.98570557291775e+005,-5.10007401983900e-001,-1.52703300300302e+000

3.02738446952187e+005,-5.10000554427990e-001,-1.54835508219570e+000

3.06964518184081e+005,-5.09993522711696e-001,-1.56997502918427e+000

3.11249583171928e+005,-5.09986302107804e-001,-1.59189701077639e+000

3.15594465437872e+005,-5.09978887779794e-001,-1.61412525226845e+000

3.19999999999997e+005,-5.09971274779828e-001,-1.63666403827146e+000

3.24467033532806e+005,-5.09963458046922e-001,-1.65951771355045e+000

3.28996424529938e+005,-5.09955432404992e-001,-1.68269068387519e+000

3.33589043469155e+005,-5.09947192561069e-001,-1.70618741688219e+000

3.38245772979638e+005,-5.09938733103185e-001,-1.73001244295096e+000

3.42967508011610e+005,-5.09930048498773e-001,-1.75417035609028e+000

3.47755156008335e+005,-5.09921133092460e-001,-1.77866581483951e+000

3.52609637080511e+005,-5.09911981104590e-001,-1.80350354318035e+000

3.57531884183106e+005,-5.09902586628979e-001,-1.82868833146373e+000

3.62522843294651e+005,-5.09892943631331e-001,-1.85422503734854e+000

3.67583473599047e+005,-5.09883045947432e-001,-1.88011858675341e+000

3.72714747669902e+005,-5.09872887281292e-001,-1.90637397482332e+000

3.77917651657445e+005,-5.09862461203323e-001,-1.93299626690892e+000

3.83193185478053e+005,-5.09851761148736e-001,-1.95999059955945e+000

3.88542363006410e+005,-5.09840780415870e-001,-1.98736218153050e+000

3.93966212270369e+005,-5.09829512164333e-001,-2.01511629480560e+000

3.99465775648511e+005,-5.09817949413603e-001,-2.04325829563193e+000

4.05042110070485e+005,-5.09806085041303e-001,-2.07179361557144e+000

4.10696287220124e+005,-5.09793911781744e-001,-2.10072776256561e+000

4.16429393741414e+005,-5.09781422224392e-001,-2.13006632201567e+000

4.22242531447321e+005,-5.09768608812460e-001,-2.15981495787868e+000

4.28136817531551e+005,-5.09755463841527e-001,-2.18997941377740e+000

4.34113384783250e+005,-5.09741979458267e-001,-2.22056551412729e+000

4.40173381804713e+005,-5.09728147659023e-001,-2.25157916527800e+000

4.46317973232124e+005,-5.09713960288792e-001,-2.28302635667136e+000

4.52548339959385e+005,-5.09699409040111e-001,-2.31491316201497e+000

4.58865679365059e+005,-5.09684485451804e-001,-2.34724574047289e+000

4.65271205542494e+005,-5.09669180908155e-001,-2.38003033787207e+000

4.71766149533147e+005,-5.09653486638078e-001,-2.41327328792519e+000

4.78351759563174e+005,-5.09637393714067e-001,-2.44698101347154e+000

4.85029301283321e+005,-5.09620893051635e-001,-2.48116002773382e+000

4.91800058012158e+005,-5.09603975408559e-001,-2.51581693559250e+000

4.98665330982714e+005,-5.09586631384347e-001,-2.55095843487769e+000

5.05626439592555e+005,-5.09568851419796e-001,-2.58659131767856e+000

5.12684721657352e+005,-5.09550625796454e-001,-2.62272247167078e+000

5.19841533667984e+005,-5.09531944636525e-001,-2.65935888146158e+000

5.27098251051240e+005,-5.09512797902427e-001,-2.69650762995323e+000

5.34456268434150e+005,-5.09493175396808e-001,-2.73417589972523e+000

5.41916999912011e+005,-5.09473066762483e-001,-2.77237097443411e+000

