Freq.,VOut,OutRef

1.00000000000000e+004,-3.07697473866469e+001,-3.16608831757065e-001

1.01395947979003e+004,-3.07697489591947e+001,-3.21028499018950e-001

1.02811382665607e+004,-3.07697505759517e+001,-3.25509861377191e-001

1.04246576084112e+004,-3.07697522381611e+001,-3.30053780012562e-001

1.05701804056138e+004,-3.07697539471006e+001,-3.34661128127532e-001

1.07177346253629e+004,-3.07697557040839e+001,-3.39332791110889e-001

1.08673486252606e+004,-3.07697575104616e+001,-3.44069666708857e-001

1.10190511587661e+004,-3.07697593676223e+001,-3.48872665197188e-001

1.11728713807222e+004,-3.07697612769938e+001,-3.53742709556732e-001

1.13288388529580e+004,-3.07697632400436e+001,-3.58680735649683e-001

1.14869835499703e+004,-3.07697652582810e+001,-3.63687692399685e-001

1.16473358646846e+004,-3.07697673332573e+001,-3.68764541973913e-001

1.18099266142953e+004,-3.07697694665676e+001,-3.73912259968300e-001

1.19747870461893e+004,-3.07697716598518e+001,-3.79131835594745e-001

1.21419488439505e+004,-3.07697739147959e+001,-3.84424271870484e-001

1.23114441334492e+004,-3.07697762331333e+001,-3.89790585810731e-001

1.24833054890161e+004,-3.07697786166461e+001,-3.95231808625071e-001

1.26575659397028e+004,-3.07697810671666e+001,-4.00748985914308e-001

1.28342589756290e+004,-3.07697835865786e+001,-4.06343177870377e-001

1.30134185544193e+004,-3.07697861768185e+001,-4.12015459483433e-001

1.31950791077289e+004,-3.07697888398777e+001,-4.17766920743987e-001

1.33792755478611e+004,-3.07697915778030e+001,-4.23598666854938e-001

1.35660432744767e+004,-3.07697943926994e+001,-4.29511818441319e-001

1.37554181813974e+004,-3.07697972867304e+001,-4.35507511769419e-001

1.39474366635040e+004,-3.07698002621207e+001,-4.41586898960738e-001

1.41421356237309e+004,-3.07698033211576e+001,-4.47751148214229e-001

1.43395524801583e+004,-3.07698064661924e+001,-4.54001444032155e-001

1.45397251732031e+004,-3.07698096996426e+001,-4.60338987446910e-001

1.47426921729110e+004,-3.07698130239937e+001,-4.66764996249731e-001

1.49484924863494e+004,-3.07698164418012e+001,-4.73280705225882e-001

1.51571656651040e+004,-3.07698199556922e+001,-4.79887366391966e-001

1.53687518128801e+004,-3.07698235683678e+001,-4.86586249234793e-001

1.55832915932100e+004,-3.07698272826050e+001,-4.93378640957102e-001

1.58008262372675e+004,-3.07698311012585e+001,-5.00265846722902e-001

1.60213975517924e+004,-3.07698350272640e+001,-5.07249189907132e-001

1.62450479271247e+004,-3.07698390636390e+001,-5.14330012352351e-001

1.64718203453514e+004,-3.07698432134862e+001,-5.21509674623882e-001

1.67017583885674e+004,-3.07698474799955e+001,-5.28789556271521e-001

1.69349062472505e+004,-3.07698518664461e+001,-5.36171056094555e-001

1.71713087287550e+004,-3.07698563762099e+001,-5.43655592409748e-001

1.74110112659224e+004,-3.07698610127532e+001,-5.51244603323140e-001

1.76540599258131e+004,-3.07698657796399e+001,-5.58939547006655e-001

1.79005014185594e+004,-3.07698706805339e+001,-5.66741901977451e-001

1.81503831063432e+004,-3.07698757192023e+001,-5.74653167380676e-001

1.84037530124975e+004,-3.07698808995181e+001,-5.82674863278208e-001

1.86606598307361e+004,-3.07698862254629e+001,-5.90808530940256e-001

1.89211529345119e+004,-3.07698917011302e+001,-5.99055733139969e-001

1.91852823865052e+004,-3.07698973307290e+001,-6.07418054452726e-001

1.94530989482457e+004,-3.07699031185861e+001,-6.15897101561957e-001

1.97246540898671e+004,-3.07699090691501e+001,-6.24494503564831e-001

1.99999999999999e+004,-3.07699151869948e+001,-6.33211912286426e-001

2.02791895958005e+004,-3.07699214768222e+001,-6.42051002595873e-001

2.05622765331213e+004,-3.07699279434669e+001,-6.51013472725830e-001

2.08493152168224e+004,-3.07699345918988e+001,-6.60101044601127e-001

2.11403608112276e+004,-3.07699414272279e+001,-6.69315464166576e-001

2.14354692507258e+004,-3.07699484547078e+001,-6.78658501720593e-001

2.17346972505211e+004,-3.07699556797396e+001,-6.88131952257777e-001

2.20381023175322e+004,-3.07699631078762e+001,-6.97737635809837e-001

2.23457427614443e+004,-3.07699707448266e+001,-7.07477397795851e-001

2.26576777059159e+004,-3.07699785964603e+001,-7.17353109375112e-001

2.29739670999406e+004,-3.07699866688117e+001,-7.27366667806285e-001

2.32946717293690e+004,-3.07699949680847e+001,-7.37519996809855e-001

2.36198532285905e+004,-3.07700035006577e+001,-7.47815046937500e-001

2.39495740923785e+004,-3.07700122730883e+001,-7.58253795945039e-001

2.42838976879009e+004,-3.07700212921181e+001,-7.68838249172274e-001

2.46228882668982e+004,-3.07700305646787e+001,-7.79570439923764e-001

2.49666109780322e+004,-3.07700400978960e+001,-7.90452429863034e-001

2.53151318794055e+004,-3.07700498990964e+001,-8.01486309403544e-001

2.56685179512580e+004,-3.07700599758121e+001,-8.12674198109271e-001

2.60268371088386e+004,-3.07700703357869e+001,-8.24018245102086e-001

2.63901582154578e+004,-3.07700809869823e+001,-8.35520629471514e-001

2.67585510957221e+004,-3.07700919375835e+001,-8.47183560691867e-001

2.71320865489533e+004,-3.07701031960055e+001,-8.59009279045628e-001

2.75108363627948e+004,-3.07701147709001e+001,-8.71000056050585e-001

2.78948733270080e+004,-3.07701266711618e+001,-8.83158194897459e-001

2.82842712474618e+004,-3.07701389059353e+001,-8.95486030886038e-001

2.86791049603164e+004,-3.07701514846223e+001,-9.07985931875041e-001

2.90794503464061e+004,-3.07701644168883e+001,-9.20660298733486e-001

2.94853843458219e+004,-3.07701777126707e+001,-9.33511565799965e-001

2.98969849726987e+004,-3.07701913821859e+001,-9.46542201348360e-001

3.03143313302078e+004,-3.07702054359374e+001,-9.59754708058000e-001

3.07375036257601e+004,-3.07702198847237e+001,-9.73151623493989e-001

3.11665831864199e+004,-3.07702347396470e+001,-9.86735520590118e-001

3.16016524745350e+004,-3.07702500121209e+001,-1.00050900814161e+000

3.20427951035848e+004,-3.07702657138801e+001,-1.01447473130279e+000

3.24900958542493e+004,-3.07702818569886e+001,-1.02863537209257e+000

3.29436406907028e+004,-3.07702984538496e+001,-1.04299364990552e+000

3.34035167771346e+004,-3.07703155172144e+001,-1.05755232203281e+000

3.38698124945009e+004,-3.07703330601928e+001,-1.07231418418549e+000

3.43426174575100e+004,-3.07703510962626e+001,-1.08728207103147e+000

3.48220225318448e+004,-3.07703696392804e+001,-1.10245885673264e+000

3.53081198516260e+004,-3.07703887034917e+001,-1.11784745549691e+000

3.58010028371187e+004,-3.07704083035426e+001,-1.13345082212978e+000

3.63007662126863e+004,-3.07704284544899e+001,-1.14927195260147e+000

3.68075060249948e+004,-3.07704491718140e+001,-1.16531388461497e+000

3.73213196614721e+004,-3.07704704714297e+001,-1.18157969818635e+000

3.78423058690237e+004,-3.07704923696986e+001,-1.19807251623195e+000

3.83705647730104e+004,-3.07705148834422e+001,-1.21479550516166e+000

3.89061978964912e+004,-3.07705380299540e+001,-1.23175187548318e+000

3.94493081797342e+004,-3.07705618270135e+001,-1.24894488241256e+000

3.99999999999998e+004,-3.07705862928992e+001,-1.26637782649385e+000

4.05583791916010e+004,-3.07706114464030e+001,-1.28405405422726e+000

4.11245530662425e+004,-3.07706373068444e+001,-1.30197695870466e+000

4.16986304336447e+004,-3.07706638940853e+001,-1.32014998025681e+000

4.22807216224550e+004,-3.07706912285455e+001,-1.33857660710515e+000

4.28709385014515e+004,-3.07707193312178e+001,-1.35726037602581e+000

4.34693945010421e+004,-3.07707482236846e+001,-1.37620487302207e+000

4.40762046350642e+004,-3.07707779281342e+001,-1.39541373400357e+000

4.46914855228886e+004,-3.07708084673776e+001,-1.41489064547839e+000

4.53153554118317e+004,-3.07708398648665e+001,-1.43463934525117e+000

4.59479341998812e+004,-3.07708721447105e+001,-1.45466362313446e+000

4.65893434587380e+004,-3.07709053316961e+001,-1.47496732166454e+000

4.72397064571810e+004,-3.07709394513057e+001,-1.49555433683222e+000

4.78991481847569e+004,-3.07709745297367e+001,-1.51642861881951e+000

4.85677953758016e+004,-3.07710105939217e+001,-1.53759417274936e+000

4.92457765337964e+004,-3.07710476715492e+001,-1.55905505944303e+000

4.99332219560642e+004,-3.07710857910850e+001,-1.58081539618870e+000

5.06302637588109e+004,-3.07711249817934e+001,-1.60287935752063e+000

5.13370359025159e+004,-3.07711652737598e+001,-1.62525117600903e+000

5.20536742176771e+004,-3.07712066979138e+001,-1.64793514305963e+000

5.27803164309155e+004,-3.07712492860531e+001,-1.67093560972395e+000

5.35171021914442e+004,-3.07712930708670e+001,-1.69425698752171e+000

5.42641730979066e+004,-3.07713380859623e+001,-1.71790374927400e+000

5.50216727255895e+004,-3.07713843658882e+001,-1.74188042994481e+000

5.57897466540159e+004,-3.07714319461632e+001,-1.76619162749906e+000

5.65685424949235e+004,-3.07714808633020e+001,-1.79084200376724e+000

5.73582099206328e+004,-3.07715311548435e+001,-1.81583628532284e+000

5.81589006928121e+004,-3.07715828593790e+001,-1.84117926437477e+000

5.89707686916437e+004,-3.07716360165826e+001,-1.86687579966550e+000

5.97939699453972e+004,-3.07716906672404e+001,-1.89293081738738e+000

6.06286626604156e+004,-3.07717468532824e+001,-1.91934931210619e+000

6.14750072515201e+004,-3.07718046178140e+001,-1.94613634770075e+000

6.23331663728396e+004,-3.07718640051491e+001,-1.97329705831176e+000

6.32033049490698e+004,-3.07719250608437e+001,-2.00083664930542e+000

6.40855902071694e+004,-3.07719878317311e+001,-2.02876039824802e+000

6.49801917084985e+004,-3.07720523659568e+001,-2.05707365589579e+000

6.58872813814055e+004,-3.07721187130158e+001,-2.08578184719433e+000

6.68070335542691e+004,-3.07721869237901e+001,-2.11489047229387e+000

6.77396249890018e+004,-3.07722570505874e+001,-2.14440510757745e+000

6.86852349150199e+004,-3.07723291471809e+001,-2.17433140670073e+000

6.96440450636895e+004,-3.07724032688503e+001,-2.20467510164724e+000

7.06162397032520e+004,-3.07724794724238e+001,-2.23544200379730e+000

7.16020056742374e+004,-3.07725578163213e+001,-2.26663800500846e+000

7.26015324253724e+004,-3.07726383605987e+001,-2.29826907871390e+000

7.36150120499896e+004,-3.07727211669941e+001,-2.33034128103055e+000

7.46426393229441e+004,-3.07728062989737e+001,-2.36286075188582e+000

7.56846117380472e+004,-3.07728938217810e+001,-2.39583371615442e+000

7.67411295460207e+004,-3.07729838024857e+001,-2.42926648481426e+000

7.78123957929823e+004,-3.07730763100351e+001,-2.46316545611317e+000

7.88986163594682e+004,-3.07731714153057e+001,-2.49753711675329e+000

7.99999999999995e+004,-3.07732691911577e+001,-2.53238804308883e+000

8.11167583832018e+004,-3.07733697124898e+001,-2.56772490234050e+000

8.22491061324848e+004,-3.07734730562961e+001,-2.60355445382289e+000

8.33972608672892e+004,-3.07735793017245e+001,-2.63988355019072e+000

8.45614432449099e+004,-3.07736885301363e+001,-2.67671913869751e+000

8.57418770029029e+004,-3.07738008251682e+001,-2.71406826247245e+000

8.69387890020841e+004,-3.07739162727954e+001,-2.75193806181139e+000

8.81524092701283e+004,-3.07740349613965e+001,-2.79033577548538e+000

8.93829710457770e+004,-3.07741569818204e+001,-2.82926874206430e+000

9.06307108236633e+004,-3.07742824274551e+001,-2.86874440125747e+000

9.18958683997622e+004,-3.07744113942979e+001,-2.90877029527117e+000

9.31786869174758e+004,-3.07745439810280e+001,-2.94935407018117e+000

9.44794129143618e+004,-3.07746802890811e+001,-2.99050347732404e+000

9.57982963695136e+004,-3.07748204227258e+001,-3.03222637470413e+000

9.71355907516031e+004,-3.07749644891418e+001,-3.07453072841801e+000

9.84915530675926e+004,-3.07751125985013e+001,-3.11742461409586e+000

9.98664439121282e+004,-3.07752648640512e+001,-3.16091621836113e+000

1.01260527517622e+005,-3.07754214021989e+001,-3.20501384030532e+000

1.02674071805032e+005,-3.07755823325996e+001,-3.24972589298332e+000

1.04107348435354e+005,-3.07757477782458e+001,-3.29506090492422e+000

1.05560632861831e+005,-3.07759178655606e+001,-3.34102752166057e+000

1.07034204382888e+005,-3.07760927244914e+001,-3.38763450727643e+000

1.08528346195813e+005,-3.07762724886082e+001,-3.43489074597137e+000

1.10043345451179e+005,-3.07764572952034e+001,-3.48280524364463e+000

1.11579493308032e+005,-3.07766472853946e+001,-3.53138712949688e+000

1.13137084989847e+005,-3.07768426042301e+001,-3.58064565764941e+000

1.14716419841265e+005,-3.07770434007976e+001,-3.63059020878289e+000

1.16317801385624e+005,-3.07772498283351e+001,-3.68123029179447e+000

1.17941537383287e+005,-3.07774620443460e+001,-3.73257554547212e+000

1.19587939890794e+005,-3.07776802107159e+001,-3.78463574018972e+000

1.21257325320831e+005,-3.07779044938337e+001,-3.83742077961889e+000

1.22950014503040e+005,-3.07781350647152e+001,-3.89094070246114e+000

1.24666332745679e+005,-3.07783720991305e+001,-3.94520568419768e+000

1.26406609898139e+005,-3.07786157777346e+001,-4.00022603885894e+000

1.28171180414339e+005,-3.07788662862015e+001,-4.05601222081163e+000

1.29960383416997e+005,-3.07791238153619e+001,-4.11257482656760e+000

1.31774562762811e+005,-3.07793885613448e+001,-4.16992459660749e+000

1.33614067108538e+005,-3.07796607257224e+001,-4.22807241722755e+000

1.35479249978003e+005,-3.07799405156596e+001,-4.28702932240195e+000

1.37370469830040e+005,-3.07802281440665e+001,-4.34680649566676e+000

1.39288090127379e+005,-3.07805238297561e+001,-4.40741527202092e+000

1.41232479406504e+005,-3.07808277976050e+001,-4.46886713984684e+000

1.43204011348474e+005,-3.07811402787195e+001,-4.53117374285048e+000

1.45203064850745e+005,-3.07814615106050e+001,-4.59434688201924e+000

1.47230024099979e+005,-3.07817917373410e+001,-4.65839851759847e+000

1.49285278645888e+005,-3.07821312097596e+001,-4.72334077108792e+000

1.51369223476094e+005,-3.07824801856296e+001,-4.78918592725543e+000

1.53482259092041e+005,-3.07828389298448e+001,-4.85594643616995e+000

1.55624791585964e+005,-3.07832077146177e+001,-4.92363491525192e+000

1.57797232718936e+005,-3.07835868196781e+001,-4.99226415134328e+000

1.59999999999999e+005,-3.07839765324766e+001,-5.06184710279339e+000

1.62233516766403e+005,-3.07843771483939e+001,-5.13239690156516e+000

1.64498212264969e+005,-3.07847889709553e+001,-5.20392685535663e+000

1.66794521734578e+005,-3.07852123120507e+001,-5.27645044974218e+000

1.69122886489819e+005,-3.07856474921603e+001,-5.34998135032827e+000

1.71483754005805e+005,-3.07860948405863e+001,-5.42453340492899e+000

1.73877578004168e+005,-3.07865546956904e+001,-5.50012064575569e+000

1.76304818540256e+005,-3.07870274051376e+001,-5.57675729162469e+000

1.78765942091554e+005,-3.07875133261459e+001,-5.65445775018034e+000

1.81261421647326e+005,-3.07880128257427e+001,-5.73323662013387e+000

1.83791736799524e+005,-3.07885262810277e+001,-5.81310869351711e+000

1.86357373834951e+005,-3.07890540794422e+001,-5.89408895795186e+000

1.88958825828723e+005,-3.07895966190459e+001,-5.97619259893304e+000

1.91596592739027e+005,-3.07901543087996e+001,-6.05943500212678e+000

1.94271181503206e+005,-3.07907275688561e+001,-6.14383175568037e+000

1.96983106135185e+005,-3.07913168308580e+001,-6.22939865254681e+000

1.99732887824256e+005,-3.07919225382424e+001,-6.31615169282153e+000

2.02521055035243e+005,-3.07925451465546e+001,-6.40410708608974e+000

2.05348143610063e+005,-3.07931851237677e+001,-6.49328125378688e+000

2.08214696870707e+005,-3.07938429506119e+001,-6.58369083156790e+000

2.11121265723661e+005,-3.07945191209108e+001,-6.67535267168781e+000

2.14068408765776e+005,-3.07952141419265e+001,-6.76828384539050e+000

2.17056692391625e+005,-3.07959285347130e+001,-6.86250164530630e+000

2.20086690902357e+005,-3.07966628344779e+001,-6.95802358785737e+000

2.23158986616063e+005,-3.07974175909537e+001,-7.05486741566925e+000

2.26274169979693e+005,-3.07981933687769e+001,-7.15305109998868e+000

2.29432839682530e+005,-3.07989907478777e+001,-7.25259284310623e+000

2.32635602771247e+005,-3.07998103238776e+001,-7.35351108078274e+000

2.35883074766574e+005,-3.08006527084976e+001,-7.45582448467899e+000

2.39175879781588e+005,-3.08015185299753e+001,-7.55955196478656e+000

2.42514650641661e+005,-3.08024084334922e+001,-7.66471267185976e+000

2.45900029006080e+005,-3.08033230816115e+001,-7.77132599984745e+000

2.49332665491357e+005,-3.08042631547251e+001,-7.87941158832219e+000

2.52813219796278e+005,-3.08052293515118e+001,-7.98898932490693e+000

2.56342360828676e+005,-3.08062223894062e+001,-8.10007934769753e+000

2.59920766833993e+005,-3.08072430050774e+001,-8.21270204767865e+000

2.63549125525621e+005,-3.08082919549199e+001,-8.32687807113319e+000

2.67228134217075e+005,-3.08093700155549e+001,-8.44262832204315e+000

2.70958499956006e+005,-3.08104779843430e+001,-8.55997396447841e+000

2.74740939660078e+005,-3.08116166799085e+001,-8.67893642497616e+000

2.78576180254757e+005,-3.08127869426754e+001,-8.79953739490382e+000

2.82464958813007e+005,-3.08139896354154e+001,-8.92179883280886e+000

2.86408022696948e+005,-3.08152256438074e+001,-9.04574296674947e+000

2.90406129701488e+005,-3.08164958770102e+001,-9.17139229660702e+000

2.94460048199957e+005,-3.08178012682461e+001,-9.29876959637639e+000

2.98570557291775e+005,-3.08191427753989e+001,-9.42789791643396e+000

3.02738446952187e+005,-3.08205213816227e+001,-9.55880058577915e+000

3.06964518184081e+005,-3.08219380959655e+001,-9.69150121424893e+000

3.11249583171928e+005,-3.08233939540039e+001,-9.82602369470183e+000

3.15594465437872e+005,-3.08248900184925e+001,-9.96239220517018e+000

3.19999999999997e+005,-3.08264273800260e+001,-1.01006312109770e+001

3.24467033532806e+005,-3.08280071577149e+001,-1.02407654668161e+001

3.28996424529938e+005,-3.08296304998747e+001,-1.03828200187914e+001

3.33589043469155e+005,-3.08312985847289e+001,-1.05268202064149e+001

3.38245772979638e+005,-3.08330126211260e+001,-1.06727916645582e+001

3.42967508011610e+005,-3.08347738492707e+001,-1.08207603253565e+001

3.47755156008335e+005,-3.08365835414684e+001,-1.09707524200605e+001

3.52609637080511e+005,-3.08384430028851e+001,-1.11227944808352e+001

3.57531884183106e+005,-3.08403535723203e+001,-1.12769133425010e+001

3.62522843294651e+005,-3.08423166229956e+001,-1.14331361442139e+001

3.67583473599047e+005,-3.08443335633567e+001,-1.15914903310825e+001

3.72714747669902e+005,-3.08464058378907e+001,-1.17520036557176e+001

3.77917651657445e+005,-3.08485349279576e+001,-1.19147041797108e+001

3.83193185478053e+005,-3.08507223526364e+001,-1.20796202750402e+001

3.88542363006410e+005,-3.08529696695864e+001,-1.22467806253967e+001

3.93966212270369e+005,-3.08552784759222e+001,-1.24162142274302e+001

3.99465775648511e+005,-3.08576504091047e+001,-1.25879503919096e+001

4.05042110070485e+005,-3.08600871478456e+001,-1.27620187447943e+001

4.10696287220124e+005,-3.08625904130273e+001,-1.29384492282116e+001

4.16429393741414e+005,-3.08651619686373e+001,-1.31172721013383e+001

4.22242531447321e+005,-3.08678036227171e+001,-1.32985179411794e+001

4.28136817531551e+005,-3.08705172283254e+001,-1.34822176432424e+001

4.34113384783250e+005,-3.08733046845163e+001,-1.36684024221009e+001

4.40173381804713e+005,-3.08761679373313e+001,-1.38571038118443e+001

4.46317973232124e+005,-3.08791089808059e+001,-1.40483536664087e+001

4.52548339959385e+005,-3.08821298579899e+001,-1.42421841597842e+001

4.58865679365059e+005,-3.08852326619817e+001,-1.44386277860945e+001

4.65271205542494e+005,-3.08884195369770e+001,-1.46377173595436e+001

4.71766149533147e+005,-3.08916926793298e+001,-1.48394860142250e+001

4.78351759563174e+005,-3.08950543386275e+001,-1.50439672037888e+001

4.85029301283321e+005,-3.08985068187793e+001,-1.52511947009609e+001

4.91800058012158e+005,-3.09020524791164e+001,-1.54612025969113e+001

4.98665330982714e+005,-3.09056937355059e+001,-1.56740253004627e+001

5.05626439592555e+005,-3.09094330614757e+001,-1.58896975371394e+001

5.12684721657352e+005,-3.09132729893523e+001,-1.61082543480458e+001

5.19841533667984e+005,-3.09172161114089e+001,-1.63297310885740e+001

5.27098251051240e+005,-3.09212650810261e+001,-1.65541634269319e+001

5.34456268434150e+005,-3.09254226138615e+001,-1.67815873424881e+001

5.41916999912011e+005,-3.09296914890309e+001,-1.70120391239269e+001

