Freq.,VOut,OutRef

1.00000000000000e+004,-1.28880194226135e+001,-1.15852614401941e-001

1.01395947979003e+004,-1.28880194929842e+001,-1.17469853700773e-001

1.02811382665607e+004,-1.28880195653330e+001,-1.19109668694969e-001

1.04246576084112e+004,-1.28880196397158e+001,-1.20772374522543e-001

1.05701804056138e+004,-1.28880197161896e+001,-1.22458290723405e-001

1.07177346253629e+004,-1.28880197948131e+001,-1.24167741296517e-001

1.08673486252606e+004,-1.28880198756468e+001,-1.25901054764118e-001

1.10190511587661e+004,-1.28880199587527e+001,-1.27658564232639e-001

1.11728713807222e+004,-1.28880200441950e+001,-1.29440607458651e-001

1.13288388529580e+004,-1.28880201320390e+001,-1.31247526915522e-001

1.14869835499703e+004,-1.28880202223526e+001,-1.33079669853150e-001

1.16473358646846e+004,-1.28880203152048e+001,-1.34937388373152e-001

1.18099266142953e+004,-1.28880204106671e+001,-1.36821039488913e-001

1.19747870461893e+004,-1.28880205088130e+001,-1.38730985197325e-001

1.21419488439505e+004,-1.28880206097178e+001,-1.40667592549601e-001

1.23114441334492e+004,-1.28880207134593e+001,-1.42631233718172e-001

1.24833054890161e+004,-1.28880208201167e+001,-1.44622286074656e-001

1.26575659397028e+004,-1.28880209297724e+001,-1.46641132253503e-001

1.28342589756290e+004,-1.28880210425105e+001,-1.48688160232586e-001

1.30134185544193e+004,-1.28880211584177e+001,-1.50763763404728e-001

1.31950791077289e+004,-1.28880212775831e+001,-1.52868340654680e-001

1.33792755478611e+004,-1.28880214000981e+001,-1.55002296434484e-001

1.35660432744767e+004,-1.28880215260570e+001,-1.57166040840391e-001

1.37554181813974e+004,-1.28880216555566e+001,-1.59359989694499e-001

1.39474366635040e+004,-1.28880217886962e+001,-1.61584564623451e-001

1.41421356237309e+004,-1.28880219255784e+001,-1.63840193136680e-001

1.43395524801583e+004,-1.28880220663084e+001,-1.66127308712534e-001

1.45397251732031e+004,-1.28880222109939e+001,-1.68446350881372e-001

1.47426921729110e+004,-1.28880223597466e+001,-1.70797765304172e-001

1.49484924863494e+004,-1.28880225126805e+001,-1.73182003867077e-001

1.51571656651040e+004,-1.28880226699130e+001,-1.75599524762274e-001

1.53687518128801e+004,-1.28880228315652e+001,-1.78050792575114e-001

1.55832915932100e+004,-1.28880229977612e+001,-1.80536278378593e-001

1.58008262372675e+004,-1.28880231686287e+001,-1.83056459818723e-001

1.60213975517924e+004,-1.28880233442989e+001,-1.85611821210219e-001

1.62450479271247e+004,-1.28880235249070e+001,-1.88202853625658e-001

1.64718203453514e+004,-1.28880237105914e+001,-1.90830054994886e-001

1.67017583885674e+004,-1.28880239014950e+001,-1.93493930195245e-001

1.69349062472505e+004,-1.28880240977644e+001,-1.96194991151192e-001

1.71713087287550e+004,-1.28880242995504e+001,-1.98933756933816e-001

1.74110112659224e+004,-1.28880245070078e+001,-2.01710753858435e-001

1.76540599258131e+004,-1.28880247202966e+001,-2.04526515583628e-001

1.79005014185594e+004,-1.28880249395799e+001,-2.07381583222451e-001

1.81503831063432e+004,-1.28880251650266e+001,-2.10276505435697e-001

1.84037530124975e+004,-1.28880253968098e+001,-2.13211838542973e-001

1.86606598307361e+004,-1.28880256351074e+001,-2.16188146629879e-001

1.89211529345119e+004,-1.28880258801027e+001,-2.19206001653688e-001

1.91852823865052e+004,-1.28880261319836e+001,-2.22265983555997e-001

1.94530989482457e+004,-1.28880263909437e+001,-2.25368680370823e-001

1.97246540898671e+004,-1.28880266571820e+001,-2.28514688339925e-001

1.99999999999999e+004,-1.28880269309029e+001,-2.31704612028351e-001

2.02791895958005e+004,-1.28880272123165e+001,-2.34939064438095e-001

2.05622765331213e+004,-1.28880275016392e+001,-2.38218667124693e-001

2.08493152168224e+004,-1.28880277990929e+001,-2.41544050322089e-001

2.11403608112276e+004,-1.28880281049063e+001,-2.44915853057405e-001

2.14354692507258e+004,-1.28880284193141e+001,-2.48334723277545e-001

2.17346972505211e+004,-1.28880287425577e+001,-2.51801317972429e-001

2.20381023175322e+004,-1.28880290748857e+001,-2.55316303299830e-001

2.23457427614443e+004,-1.28880294165527e+001,-2.58880354717929e-001

2.26576777059159e+004,-1.28880297678214e+001,-2.62494157108008e-001

2.29739670999406e+004,-1.28880301289616e+001,-2.66158404911791e-001

2.32946717293690e+004,-1.28880305002504e+001,-2.69873802261668e-001

2.36198532285905e+004,-1.28880308819728e+001,-2.73641063118460e-001

2.39495740923785e+004,-1.28880312744221e+001,-2.77460911404168e-001

2.42838976879009e+004,-1.28880316778994e+001,-2.81334081146513e-001

2.46228882668982e+004,-1.28880320927146e+001,-2.85261316614619e-001

2.49666109780322e+004,-1.28880325191860e+001,-2.89243372466537e-001

2.53151318794055e+004,-1.28880329576411e+001,-2.93281013889629e-001

2.56685179512580e+004,-1.28880334084163e+001,-2.97375016752020e-001

2.60268371088386e+004,-1.28880338718578e+001,-3.01526167746341e-001

2.63901582154578e+004,-1.28880343483211e+001,-3.05735264546802e-001

2.67585510957221e+004,-1.28880348381720e+001,-3.10003115956834e-001

2.71320865489533e+004,-1.28880353417864e+001,-3.14330542066596e-001

2.75108363627948e+004,-1.28880358595509e+001,-3.18718374411343e-001

2.78948733270080e+004,-1.28880363918626e+001,-3.23167456129709e-001

2.82842712474618e+004,-1.28880369391302e+001,-3.27678642125677e-001

2.86791049603164e+004,-1.28880375017736e+001,-3.32252799232442e-001

2.90794503464061e+004,-1.28880380802242e+001,-3.36890806380428e-001

2.94853843458219e+004,-1.28880386749262e+001,-3.41593554762515e-001

2.98969849726987e+004,-1.28880392863356e+001,-3.46361948008695e-001

3.03143313302078e+004,-1.28880399149215e+001,-3.51196902356991e-001

3.07375036257601e+004,-1.28880405611661e+001,-3.56099346831576e-001

3.11665831864199e+004,-1.28880412255650e+001,-3.61070223417823e-001

3.16016524745350e+004,-1.28880419086280e+001,-3.66110487245215e-001

3.20427951035848e+004,-1.28880426108787e+001,-3.71221106771375e-001

3.24900958542493e+004,-1.28880433328558e+001,-3.76403063964537e-001

3.29436406907028e+004,-1.28880440751130e+001,-3.81657354495525e-001

3.34035167771346e+004,-1.28880448382193e+001,-3.86984987926819e-001

3.38698124945009e+004,-1.28880456227598e+001,-3.92386987906151e-001

3.43426174575100e+004,-1.28880464293362e+001,-3.97864392363237e-001

3.48220225318448e+004,-1.28880472585667e+001,-4.03418253708589e-001

3.53081198516260e+004,-1.28880481110869e+001,-4.09049639036270e-001

3.58010028371187e+004,-1.28880489875501e+001,-4.14759630327868e-001

3.63007662126863e+004,-1.28880498886285e+001,-4.20549324657483e-001

3.68075060249948e+004,-1.28880508150122e+001,-4.26419834407833e-001

3.73213196614721e+004,-1.28880517674113e+001,-4.32372287477455e-001

3.78423058690237e+004,-1.28880527465555e+001,-4.38407827500251e-001

3.83705647730104e+004,-1.28880537531950e+001,-4.44527614064796e-001

3.89061978964912e+004,-1.28880547881008e+001,-4.50732822935403e-001

3.94493081797342e+004,-1.28880558520658e+001,-4.57024646276632e-001

3.99999999999998e+004,-1.28880569459050e+001,-4.63404292883551e-001

4.05583791916010e+004,-1.28880580704559e+001,-4.69872988415050e-001

4.11245530662425e+004,-1.28880592265798e+001,-4.76431975621942e-001

4.16986304336447e+004,-1.28880604151617e+001,-4.83082514594206e-001

4.22807216224550e+004,-1.28880616371118e+001,-4.89825882994579e-001

4.28709385014515e+004,-1.28880628933654e+001,-4.96663376307951e-001

4.34693945010421e+004,-1.28880641848840e+001,-5.03596308086970e-001

4.40762046350642e+004,-1.28880655126562e+001,-5.10626010204889e-001

4.46914855228886e+004,-1.28880668776977e+001,-5.17753833111742e-001

4.53153554118317e+004,-1.28880682810532e+001,-5.24981146090029e-001

4.59479341998812e+004,-1.28880697237962e+001,-5.32309337518059e-001

4.65893434587380e+004,-1.28880712070302e+001,-5.39739815138426e-001

4.72397064571810e+004,-1.28880727318897e+001,-5.47274006322469e-001

4.78991481847569e+004,-1.28880742995406e+001,-5.54913358348402e-001

4.85677953758016e+004,-1.28880759111815e+001,-5.62659338674293e-001

4.92457765337964e+004,-1.28880775680445e+001,-5.70513435222048e-001

4.99332219560642e+004,-1.28880792713960e+001,-5.78477156659683e-001

5.06302637588109e+004,-1.28880810225377e+001,-5.86552032691807e-001

5.13370359025159e+004,-1.28880828228075e+001,-5.94739614351152e-001

5.20536742176771e+004,-1.28880846735808e+001,-6.03041474295677e-001

5.27803164309155e+004,-1.28880865762713e+001,-6.11459207108400e-001

5.35171021914442e+004,-1.28880885323319e+001,-6.19994429604703e-001

5.42641730979066e+004,-1.28880905432562e+001,-6.28648781137322e-001

5.50216727255895e+004,-1.28880926105793e+001,-6.37423923914582e-001

5.57897466540159e+004,-1.28880947358791e+001,-6.46321543314101e-001

5.65685424949235e+004,-1.28880969207772e+001,-6.55343348208141e-001

5.73582099206328e+004,-1.28880991669407e+001,-6.64491071286703e-001

5.81589006928121e+004,-1.28881014760828e+001,-6.73766469390735e-001

5.89707686916437e+004,-1.28881038499642e+001,-6.83171323849201e-001

5.97939699453972e+004,-1.28881062903950e+001,-6.92707440814090e-001

6.06286626604156e+004,-1.28881087992353e+001,-7.02376651611329e-001

6.14750072515201e+004,-1.28881113783970e+001,-7.12180813086151e-001

6.23331663728396e+004,-1.28881140298450e+001,-7.22121807960028e-001

6.32033049490698e+004,-1.28881167555989e+001,-7.32201545187109e-001

6.40855902071694e+004,-1.28881195577342e+001,-7.42421960322778e-001

6.49801917084985e+004,-1.28881224383840e+001,-7.52785015888360e-001

6.58872813814055e+004,-1.28881253997408e+001,-7.63292701748575e-001

6.68070335542691e+004,-1.28881284440575e+001,-7.73947035489487e-001

6.77396249890018e+004,-1.28881315736497e+001,-7.84750062803155e-001

6.86852349150199e+004,-1.28881347908972e+001,-7.95703857878486e-001

6.96440450636895e+004,-1.28881380982456e+001,-8.06810523795271e-001

7.06162397032520e+004,-1.28881414982080e+001,-8.18072192926370e-001

7.16020056742374e+004,-1.28881449933672e+001,-8.29491027342408e-001

7.26015324253724e+004,-1.28881485863776e+001,-8.41069219223722e-001

7.36150120499896e+004,-1.28881522799668e+001,-8.52808991278458e-001

7.46426393229441e+004,-1.28881560769376e+001,-8.64712597164717e-001

7.56846117380472e+004,-1.28881599801705e+001,-8.76782321920782e-001

7.67411295460207e+004,-1.28881639926253e+001,-8.89020482397298e-001

7.78123957929823e+004,-1.28881681173435e+001,-9.01429427700462e-001

7.88986163594682e+004,-1.28881723574505e+001,-9.14011539637144e-001

7.99999999999995e+004,-1.28881767161577e+001,-9.26769233167962e-001

8.11167583832018e+004,-1.28881811967651e+001,-9.39704956865971e-001

8.22491061324848e+004,-1.28881858026633e+001,-9.52821193381865e-001

8.33972608672892e+004,-1.28881905373366e+001,-9.66120459915079e-001

8.45614432449099e+004,-1.28881954043645e+001,-9.79605308692427e-001

8.57418770029029e+004,-1.28882004074253e+001,-9.93278327451619e-001

8.69387890020841e+004,-1.28882055502981e+001,-1.00714213993137e+000

8.81524092701283e+004,-1.28882108368656e+001,-1.02119940637125e+000

8.93829710457770e+004,-1.28882162711171e+001,-1.03545282401390e+000

9.06307108236633e+004,-1.28882218571511e+001,-1.04990512761674e+000

9.18958683997622e+004,-1.28882275991785e+001,-1.06455908996945e+000

9.31786869174758e+004,-1.28882335015250e+001,-1.07941752242004e+000

9.44794129143618e+004,-1.28882395686347e+001,-1.09448327540634e+000

9.57982963695136e+004,-1.28882458050735e+001,-1.10975923899405e+000

9.71355907516031e+004,-1.28882522155311e+001,-1.12524834342609e+000

9.84915530675926e+004,-1.28882588048258e+001,-1.14095355967281e+000

9.98664439121282e+004,-1.28882655779067e+001,-1.15687789999672e+000

1.01260527517622e+005,-1.28882725398579e+001,-1.17302441851882e+000

1.02674071805032e+005,-1.28882796959015e+001,-1.18939621179630e+000

1.04107348435354e+005,-1.28882870514016e+001,-1.20599641940633e+000

1.05560632861831e+005,-1.28882946118679e+001,-1.22282822453834e+000

1.07034204382888e+005,-1.28883023829593e+001,-1.23989485459400e+000

1.08528346195813e+005,-1.28883103704881e+001,-1.25719958179447e+000

1.10043345451179e+005,-1.28883185804239e+001,-1.27474572379744e+000

1.11579493308032e+005,-1.28883270188976e+001,-1.29253664432040e+000

1.13137084989847e+005,-1.28883356922054e+001,-1.31057575377429e+000

1.14716419841265e+005,-1.28883446068134e+001,-1.32886650990410e+000

1.16317801385624e+005,-1.28883537693619e+001,-1.34741241843746e+000

1.17941537383287e+005,-1.28883631866697e+001,-1.36621703374462e+000

1.19587939890794e+005,-1.28883728657388e+001,-1.38528395950352e+000

1.21257325320831e+005,-1.28883828137588e+001,-1.40461684937677e+000

1.22950014503040e+005,-1.28883930381124e+001,-1.42421940769479e+000

1.24666332745679e+005,-1.28884035463792e+001,-1.44409539015182e+000

1.26406609898139e+005,-1.28884143463418e+001,-1.46424860450591e+000

1.28171180414339e+005,-1.28884254459899e+001,-1.48468291129343e+000

1.29960383416997e+005,-1.28884368535266e+001,-1.50540222454803e+000

1.31774562762811e+005,-1.28884485773724e+001,-1.52641051253394e+000

1.33614067108538e+005,-1.28884606261718e+001,-1.54771179848457e+000

1.35479249978003e+005,-1.28884730087983e+001,-1.56931016135370e+000

1.37370469830040e+005,-1.28884857343603e+001,-1.59120973657459e+000

1.39288090127379e+005,-1.28884988122063e+001,-1.61341471683041e+000

1.41232479406504e+005,-1.28885122519318e+001,-1.63592935283357e+000

1.43204011348474e+005,-1.28885260633843e+001,-1.65875795411625e+000

1.45203064850745e+005,-1.28885402566703e+001,-1.68190488982999e+000

1.47230024099979e+005,-1.28885548421608e+001,-1.70537458955682e+000

1.49285278645888e+005,-1.28885698304984e+001,-1.72917154412982e+000

1.51369223476094e+005,-1.28885852326030e+001,-1.75330030646500e+000

1.53482259092041e+005,-1.28886010596793e+001,-1.77776549240372e+000

1.55624791585964e+005,-1.28886173232229e+001,-1.80257178156584e+000

1.57797232718936e+005,-1.28886340350273e+001,-1.82772391821413e+000

1.59999999999999e+005,-1.28886512071911e+001,-1.85322671212852e+000

1.62233516766403e+005,-1.28886688521249e+001,-1.87908503949361e+000

1.64498212264969e+005,-1.28886869825587e+001,-1.90530384379576e+000

1.66794521734578e+005,-1.28887056115488e+001,-1.93188813673267e+000

1.69122886489819e+005,-1.28887247524862e+001,-1.95884299913310e+000

1.71483754005805e+005,-1.28887444191030e+001,-1.98617358189090e+000

1.73877578004168e+005,-1.28887646254811e+001,-2.01388510690758e+000

1.76304818540256e+005,-1.28887853860594e+001,-2.04198286804912e+000

1.78765942091554e+005,-1.28888067156420e+001,-2.07047223211422e+000

1.81261421647326e+005,-1.28888286294062e+001,-2.09935863981458e+000

1.83791736799524e+005,-1.28888511429105e+001,-2.12864760676725e+000

1.86357373834951e+005,-1.28888742721033e+001,-2.15834472450011e+000

1.88958825828723e+005,-1.28888980333306e+001,-2.18845566146916e+000

1.91596592739027e+005,-1.28889224433448e+001,-2.21898616408903e+000

1.94271181503206e+005,-1.28889475193133e+001,-2.24994205777658e+000

1.96983106135185e+005,-1.28889732788270e+001,-2.28132924800632e+000

1.99732887824256e+005,-1.28889997399090e+001,-2.31315372137981e+000

2.02521055035243e+005,-1.28890269210236e+001,-2.34542154670897e+000

2.05348143610063e+005,-1.28890548410849e+001,-2.37813887611015e+000

2.08214696870707e+005,-1.28890835194655e+001,-2.41131194611595e+000

2.11121265723661e+005,-1.28891129760064e+001,-2.44494707879577e+000

2.14068408765776e+005,-1.28891432310248e+001,-2.47905068289438e+000

2.17056692391625e+005,-1.28891743053242e+001,-2.51362925498111e+000

2.20086690902357e+005,-1.28892062202028e+001,-2.54868938061630e+000

2.23158986616063e+005,-1.28892389974632e+001,-2.58423773552893e+000

2.26274169979693e+005,-1.28892726594209e+001,-2.62028108681080e+000

2.29432839682530e+005,-1.28893072289139e+001,-2.65682629412373e+000

2.32635602771247e+005,-1.28893427293118e+001,-2.69388031092300e+000

2.35883074766574e+005,-1.28893791845244e+001,-2.73145018569415e+000

2.39175879781588e+005,-1.28894166190114e+001,-2.76954306320553e+000

2.42514650641661e+005,-1.28894550577910e+001,-2.80816618577560e+000

2.45900029006080e+005,-1.28894945264487e+001,-2.84732689455598e+000

2.49332665491357e+005,-1.28895350511466e+001,-2.88703263083027e+000

2.52813219796278e+005,-1.28895766586316e+001,-2.92729093732719e+000

2.56342360828676e+005,-1.28896193762443e+001,-2.96810945955059e+000

2.59920766833993e+005,-1.28896632319274e+001,-3.00949594712583e+000

2.63549125525621e+005,-1.28897082542339e+001,-3.05145825516104e+000

2.67228134217075e+005,-1.28897544723352e+001,-3.09400434562664e+000

2.70958499956006e+005,-1.28898019160289e+001,-3.13714228874892e+000

2.74740939660078e+005,-1.28898506157467e+001,-3.18088026442277e+000

2.78576180254757e+005,-1.28899006025612e+001,-3.22522656364061e+000

2.82464958813007e+005,-1.28899519081937e+001,-3.27018958993701e+000

2.86408022696948e+005,-1.28900045650201e+001,-3.31577786085427e+000

2.90406129701488e+005,-1.28900586060780e+001,-3.36200000942173e+000

2.94460048199957e+005,-1.28901140650724e+001,-3.40886478565522e+000

2.98570557291775e+005,-1.28901709763809e+001,-3.45638105807476e+000

3.02738446952187e+005,-1.28902293750593e+001,-3.50455781523951e+000

3.06964518184081e+005,-1.28902892968461e+001,-3.55340416730189e+000

3.11249583171928e+005,-1.28903507781663e+001,-3.60292934758113e+000

3.15594465437872e+005,-1.28904138561350e+001,-3.65314271415593e+000

3.19999999999997e+005,-1.28904785685603e+001,-3.70405375147560e+000

3.24467033532806e+005,-1.28905449539455e+001,-3.75567207199244e+000

3.28996424529938e+005,-1.28906130514905e+001,-3.80800741781374e+000

3.33589043469155e+005,-1.28906829010922e+001,-3.86106966237451e+000

3.38245772979638e+005,-1.28907545433451e+001,-3.91486881213019e+000

3.42967508011610e+005,-1.28908280195397e+001,-3.96941500827222e+000

3.47755156008335e+005,-1.28909033716608e+001,-4.02471852846434e+000

3.52609637080511e+005,-1.28909806423846e+001,-4.08078978860131e+000

3.57531884183106e+005,-1.28910598750749e+001,-4.13763934458944e+000

3.62522843294651e+005,-1.28911411137779e+001,-4.19527789415123e+000

3.67583473599047e+005,-1.28912244032163e+001,-4.25371627865290e+000

3.72714747669902e+005,-1.28913097887815e+001,-4.31296548495597e+000

3.77917651657445e+005,-1.28913973165255e+001,-4.37303664729394e+000

3.83193185478053e+005,-1.28914870331504e+001,-4.43394104917232e+000

3.88542363006410e+005,-1.28915789859972e+001,-4.49569012529746e+000

3.93966212270369e+005,-1.28916732230330e+001,-4.55829546352851e+000

3.99465775648511e+005,-1.28917697928361e+001,-4.62176880685775e+000

4.05042110070485e+005,-1.28918687445805e+001,-4.68612205541973e+000

4.10696287220124e+005,-1.28919701280174e+001,-4.75136726852636e+000

4.16429393741414e+005,-1.28920739934564e+001,-4.81751666673293e+000

4.22242531447321e+005,-1.28921803917432e+001,-4.88458263393388e+000

4.28136817531551e+005,-1.28922893742371e+001,-4.95257771948858e+000

4.34113384783250e+005,-1.28924009927848e+001,-5.02151464037952e+000

4.40173381804713e+005,-1.28925152996936e+001,-5.09140628340257e+000

4.46317973232124e+005,-1.28926323477016e+001,-5.16226570739088e+000

4.52548339959385e+005,-1.28927521899455e+001,-5.23410614547446e+000

4.58865679365059e+005,-1.28928748799268e+001,-5.30694100737302e+000

4.65271205542494e+005,-1.28930004714754e+001,-5.38078388172791e+000

4.71766149533147e+005,-1.28931290187100e+001,-5.45564853847049e+000

4.78351759563174e+005,-1.28932605759971e+001,-5.53154893123053e+000

4.85029301283321e+005,-1.28933951979068e+001,-5.60849919978398e+000

4.91800058012158e+005,-1.28935329391656e+001,-5.68651367254331e+000

4.98665330982714e+005,-1.28936738546073e+001,-5.76560686909063e+000

5.05626439592555e+005,-1.28938179991206e+001,-5.84579350275501e+000

5.12684721657352e+005,-1.28939654275934e+001,-5.92708848323661e+000

5.19841533667984e+005,-1.28941161948556e+001,-6.00950691927694e+000

5.27098251051240e+005,-1.28942703556172e+001,-6.09306412138029e+000

5.34456268434150e+005,-1.28944279644048e+001,-6.17777560458357e+000

5.41916999912011e+005,-1.28945890754942e+001,-6.26365709128128e+000

