Freq.,VOut,OutRef

1.00000000000000e+004,-1.48197931346532e+001,-7.79341954507542e-002

1.01395947979003e+004,-1.48197931744913e+001,-7.90221154607986e-002

1.02811382665607e+004,-1.48197932154496e+001,-8.01252222316154e-002

1.04246576084112e+004,-1.48197932575591e+001,-8.12437277651498e-002

1.05701804056138e+004,-1.48197933008527e+001,-8.23778470140288e-002

1.07177346253629e+004,-1.48197933453631e+001,-8.35277979403131e-002

1.08673486252606e+004,-1.48197933911248e+001,-8.46938015422334e-002

1.10190511587661e+004,-1.48197934381732e+001,-8.58760819042674e-002

1.11728713807222e+004,-1.48197934865442e+001,-8.70748662405233e-002

1.13288388529580e+004,-1.48197935362750e+001,-8.82903849366980e-002

1.14869835499703e+004,-1.48197935874038e+001,-8.95228715931892e-002

1.16473358646846e+004,-1.48197936399701e+001,-9.07725630706160e-002

1.18099266142953e+004,-1.48197936940140e+001,-9.20396995395260e-002

1.19747870461893e+004,-1.48197937495774e+001,-9.33245245189130e-002

1.21419488439505e+004,-1.48197938067025e+001,-9.46272849309531e-002

1.23114441334492e+004,-1.48197938654337e+001,-9.59482311401818e-002

1.24833054890161e+004,-1.48197939258160e+001,-9.72876170089287e-002

1.26575659397028e+004,-1.48197939878957e+001,-9.86456999432547e-002

1.28342589756290e+004,-1.48197940517208e+001,-1.00022740940295e-001

1.30134185544193e+004,-1.48197941173398e+001,-1.01419004644783e-001

1.31950791077289e+004,-1.48197941848038e+001,-1.02834759389367e-001

1.33792755478611e+004,-1.48197942541642e+001,-1.04270277258104e-001

1.35660432744767e+004,-1.48197943254745e+001,-1.05725834129444e-001

1.37554181813974e+004,-1.48197943987895e+001,-1.07201709734125e-001

1.39474366635040e+004,-1.48197944741655e+001,-1.08698187708558e-001

1.41421356237309e+004,-1.48197945516606e+001,-1.10215555645320e-001

1.43395524801583e+004,-1.48197946313340e+001,-1.11754105156266e-001

1.45397251732031e+004,-1.48197947132472e+001,-1.13314131920302e-001

1.47426921729110e+004,-1.48197947974631e+001,-1.14895935743346e-001

1.49484924863494e+004,-1.48197948840464e+001,-1.16499820618999e-001

1.51571656651040e+004,-1.48197949730639e+001,-1.18126094780669e-001

1.53687518128801e+004,-1.48197950645837e+001,-1.19775070768455e-001

1.55832915932100e+004,-1.48197951586762e+001,-1.21447065483007e-001

1.58008262372675e+004,-1.48197952554138e+001,-1.23142400247279e-001

1.60213975517924e+004,-1.48197953548708e+001,-1.24861400871697e-001

1.62450479271247e+004,-1.48197954571237e+001,-1.26604397714189e-001

1.64718203453514e+004,-1.48197955622509e+001,-1.28371725743617e-001

1.67017583885674e+004,-1.48197956703335e+001,-1.30163724603233e-001

1.69349062472505e+004,-1.48197957814543e+001,-1.31980738680109e-001

1.71713087287550e+004,-1.48197958956989e+001,-1.33823117166361e-001

1.74110112659224e+004,-1.48197960131548e+001,-1.35691214130325e-001

1.76540599258131e+004,-1.48197961339127e+001,-1.37585388579445e-001

1.79005014185594e+004,-1.48197962580651e+001,-1.39506004536287e-001

1.81503831063432e+004,-1.48197963857075e+001,-1.41453431101110e-001

1.84037530124975e+004,-1.48197965169379e+001,-1.43428042529510e-001

1.86606598307361e+004,-1.48197966518573e+001,-1.45430218298088e-001

1.89211529345119e+004,-1.48197967905693e+001,-1.47460343183430e-001

1.91852823865052e+004,-1.48197969331806e+001,-1.49518807329658e-001

1.94530989482457e+004,-1.48197970798006e+001,-1.51606006330137e-001

1.97246540898671e+004,-1.48197972305420e+001,-1.53722341298468e-001

1.99999999999999e+004,-1.48197973855208e+001,-1.55868218946277e-001

2.02791895958005e+004,-1.48197975448560e+001,-1.58044051663806e-001

2.05622765331213e+004,-1.48197977086701e+001,-1.60250257596341e-001

2.08493152168224e+004,-1.48197978770889e+001,-1.62487260726620e-001

2.11403608112276e+004,-1.48197980502418e+001,-1.64755490955685e-001

2.14354692507258e+004,-1.48197982282618e+001,-1.67055384185361e-001

2.17346972505211e+004,-1.48197984112859e+001,-1.69387382399149e-001

2.20381023175322e+004,-1.48197985994546e+001,-1.71751933753814e-001

2.23457427614443e+004,-1.48197987929124e+001,-1.74149492659533e-001

2.26576777059159e+004,-1.48197989918083e+001,-1.76580519868278e-001

2.29739670999406e+004,-1.48197991962947e+001,-1.79045482565689e-001

2.32946717293690e+004,-1.48197994065288e+001,-1.81544854457368e-001

2.36198532285905e+004,-1.48197996226723e+001,-1.84079115859264e-001

2.39495740923785e+004,-1.48197998448912e+001,-1.86648753793474e-001

2.42838976879009e+004,-1.48198000733561e+001,-1.89254262080505e-001

2.46228882668982e+004,-1.48198003082427e+001,-1.91896141430893e-001

2.49666109780322e+004,-1.48198005497315e+001,-1.94574899545519e-001

2.53151318794055e+004,-1.48198007980077e+001,-1.97291051213495e-001

2.56685179512580e+004,-1.48198010532624e+001,-2.00045118405420e-001

2.60268371088386e+004,-1.48198013156915e+001,-2.02837630380481e-001

2.63901582154578e+004,-1.48198015854966e+001,-2.05669123783139e-001

2.67585510957221e+004,-1.48198018628850e+001,-2.08540142750514e-001

2.71320865489533e+004,-1.48198021480699e+001,-2.11451239011367e-001

2.75108363627948e+004,-1.48198024412702e+001,-2.14402971997452e-001

2.78948733270080e+004,-1.48198027427112e+001,-2.17395908947715e-001

2.82842712474618e+004,-1.48198030526245e+001,-2.20430625019377e-001

2.86791049603164e+004,-1.48198033712480e+001,-2.23507703395958e-001

2.90794503464061e+004,-1.48198036988265e+001,-2.26627735402241e-001

2.94853843458219e+004,-1.48198040356116e+001,-2.29791320614568e-001

2.98969849726987e+004,-1.48198043818622e+001,-2.32999066977481e-001

3.03143313302078e+004,-1.48198047378437e+001,-2.36251590923826e-001

3.07375036257601e+004,-1.48198051038300e+001,-2.39549517485325e-001

3.11665831864199e+004,-1.48198054801021e+001,-2.42893480420211e-001

3.16016524745350e+004,-1.48198058669488e+001,-2.46284122331826e-001

3.20427951035848e+004,-1.48198062646672e+001,-2.49722094791613e-001

3.24900958542493e+004,-1.48198066735628e+001,-2.53208058464882e-001

3.29436406907028e+004,-1.48198070939494e+001,-2.56742683237923e-001

3.34035167771346e+004,-1.48198075261501e+001,-2.60326648345340e-001

3.38698124945009e+004,-1.48198079704966e+001,-2.63960642501866e-001

3.43426174575100e+004,-1.48198084273301e+001,-2.67645364035203e-001

3.48220225318448e+004,-1.48198088970014e+001,-2.71381521018102e-001

3.53081198516260e+004,-1.48198093798712e+001,-2.75169831404810e-001

3.58010028371187e+004,-1.48198098763099e+001,-2.79011023171450e-001

3.63007662126863e+004,-1.48198103866989e+001,-2.82905834452037e-001

3.68075060249948e+004,-1.48198109114298e+001,-2.86855013682412e-001

3.73213196614721e+004,-1.48198114509057e+001,-2.90859319743386e-001

3.78423058690237e+004,-1.48198120055406e+001,-2.94919522106055e-001

3.83705647730104e+004,-1.48198125757601e+001,-2.99036400981081e-001

3.89061978964912e+004,-1.48198131620019e+001,-3.03210747467059e-001

3.94493081797342e+004,-1.48198137647162e+001,-3.07443363701224e-001

3.99999999999998e+004,-1.48198143843653e+001,-3.11735063017008e-001

4.05583791916010e+004,-1.48198150214250e+001,-3.16086670095794e-001

4.11245530662425e+004,-1.48198156763839e+001,-3.20499021130122e-001

4.16986304336447e+004,-1.48198163497447e+001,-3.24972963979337e-001

4.22807216224550e+004,-1.48198170420243e+001,-3.29509358335030e-001

4.28709385014515e+004,-1.48198177537537e+001,-3.34109075885406e-001

4.34693945010421e+004,-1.48198184854789e+001,-3.38773000483809e-001

4.40762046350642e+004,-1.48198192377615e+001,-3.43502028315129e-001

4.46914855228886e+004,-1.48198200111786e+001,-3.48297068071772e-001

4.53153554118317e+004,-1.48198208063234e+001,-3.53159041125132e-001

4.59479341998812e+004,-1.48198216238059e+001,-3.58088881703003e-001

4.65893434587380e+004,-1.48198224642532e+001,-3.63087537070470e-001

4.72397064571810e+004,-1.48198233283097e+001,-3.68155967710200e-001

4.78991481847569e+004,-1.48198242166384e+001,-3.73295147504662e-001

4.85677953758016e+004,-1.48198251299202e+001,-3.78506063928373e-001

4.92457765337964e+004,-1.48198260688557e+001,-3.83789718232468e-001

4.99332219560642e+004,-1.48198270341646e+001,-3.89147125638906e-001

5.06302637588109e+004,-1.48198280265873e+001,-3.94579315533813e-001

5.13370359025159e+004,-1.48198290468846e+001,-4.00087331667470e-001

5.20536742176771e+004,-1.48198300958384e+001,-4.05672232352369e-001

5.27803164309155e+004,-1.48198311742531e+001,-4.11335090666217e-001

5.35171021914442e+004,-1.48198322829551e+001,-4.17076994659109e-001

5.42641730979066e+004,-1.48198334227942e+001,-4.22899047560403e-001

5.50216727255895e+004,-1.48198345946438e+001,-4.28802367992602e-001

5.57897466540159e+004,-1.48198357994020e+001,-4.34788090183037e-001

5.65685424949235e+004,-1.48198370379919e+001,-4.40857364183960e-001

5.73582099206328e+004,-1.48198383113624e+001,-4.47011356090374e-001

5.81589006928121e+004,-1.48198396204888e+001,-4.53251248267317e-001

5.89707686916437e+004,-1.48198409663743e+001,-4.59578239571781e-001

5.97939699453972e+004,-1.48198423500494e+001,-4.65993545586729e-001

6.06286626604156e+004,-1.48198437725738e+001,-4.72498398852090e-001

6.14750072515201e+004,-1.48198452350369e+001,-4.79094049100338e-001

6.23331663728396e+004,-1.48198467385584e+001,-4.85781763497609e-001

6.32033049490698e+004,-1.48198482842894e+001,-4.92562826886325e-001

6.40855902071694e+004,-1.48198498734131e+001,-4.99438542029337e-001

6.49801917084985e+004,-1.48198515071458e+001,-5.06410229862910e-001

6.58872813814055e+004,-1.48198531867379e+001,-5.13479229746289e-001

6.68070335542691e+004,-1.48198549134745e+001,-5.20646899721397e-001

6.77396249890018e+004,-1.48198566886769e+001,-5.27914616769667e-001

6.86852349150199e+004,-1.48198585137030e+001,-5.35283777079800e-001

6.96440450636895e+004,-1.48198603899488e+001,-5.42755796310813e-001

7.06162397032520e+004,-1.48198623188492e+001,-5.50332109867312e-001

7.16020056742374e+004,-1.48198643018793e+001,-5.58014173169940e-001

7.26015324253724e+004,-1.48198663405552e+001,-5.65803461937912e-001

7.36150120499896e+004,-1.48198684364353e+001,-5.73701472469931e-001

7.46426393229441e+004,-1.48198705911216e+001,-5.81709721930189e-001

7.56846117380472e+004,-1.48198728062608e+001,-5.89829748638893e-001

7.67411295460207e+004,-1.48198750835452e+001,-5.98063112367708e-001

7.78123957929823e+004,-1.48198774247148e+001,-6.06411394636237e-001

7.88986163594682e+004,-1.48198798315575e+001,-6.14876199017582e-001

7.99999999999995e+004,-1.48198823059116e+001,-6.23459151441356e-001

8.11167583832018e+004,-1.48198848496662e+001,-6.32161900507690e-001

8.22491061324848e+004,-1.48198874647633e+001,-6.40986117801123e-001

8.33972608672892e+004,-1.48198901531985e+001,-6.49933498211695e-001

8.45614432449099e+004,-1.48198929170237e+001,-6.59005760255315e-001

8.57418770029029e+004,-1.48198957583472e+001,-6.68204646408252e-001

8.69387890020841e+004,-1.48198986793363e+001,-6.77531923433960e-001

8.81524092701283e+004,-1.48199016822185e+001,-6.86989382725759e-001

8.93829710457770e+004,-1.48199047692832e+001,-6.96578840645291e-001

9.06307108236633e+004,-1.48199079428836e+001,-7.06302138872305e-001

9.18958683997622e+004,-1.48199112054382e+001,-7.16161144754849e-001

9.31786869174758e+004,-1.48199145594324e+001,-7.26157751667292e-001

9.44794129143618e+004,-1.48199180074210e+001,-7.36293879370452e-001

9.57982963695136e+004,-1.48199215520296e+001,-7.46571474379033e-001

9.71355907516031e+004,-1.48199251959565e+001,-7.56992510333475e-001

9.84915530675926e+004,-1.48199289419752e+001,-7.67558988374266e-001

9.98664439121282e+004,-1.48199327929356e+001,-7.78272937528176e-001

1.01260527517622e+005,-1.48199367517671e+001,-7.89136415091534e-001

1.02674071805032e+005,-1.48199408214799e+001,-8.00151507023957e-001

1.04107348435354e+005,-1.48199450051677e+001,-8.11320328347368e-001

1.05560632861831e+005,-1.48199493060099e+001,-8.22645023546565e-001

1.07034204382888e+005,-1.48199537272738e+001,-8.34127766980809e-001

1.08528346195813e+005,-1.48199582723171e+001,-8.45770763296668e-001

1.10043345451179e+005,-1.48199629445902e+001,-8.57576247849018e-001

1.11579493308032e+005,-1.48199677476391e+001,-8.69546487126186e-001

1.13137084989847e+005,-1.48199726851075e+001,-8.81683779181220e-001

1.14716419841265e+005,-1.48199777607398e+001,-8.93990454070972e-001

1.16317801385624e+005,-1.48199829783838e+001,-9.06468874298758e-001

1.17941537383287e+005,-1.48199883419933e+001,-9.19121435263858e-001

1.19587939890794e+005,-1.48199938556309e+001,-9.31950565718131e-001

1.21257325320831e+005,-1.48199995234715e+001,-9.44958728227019e-001

1.22950014503040e+005,-1.48200053498047e+001,-9.58148419638253e-001

1.24666332745679e+005,-1.48200113390382e+001,-9.71522171556755e-001

1.26406609898139e+005,-1.48200174957008e+001,-9.85082550826226e-001

1.28171180414339e+005,-1.48200238244460e+001,-9.98832160015782e-001

1.29960383416997e+005,-1.48200303300550e+001,-1.01277363791514e+000

1.31774562762811e+005,-1.48200370174400e+001,-1.02690966003593e+000

1.33614067108538e+005,-1.48200438916483e+001,-1.04124293911896e+000

1.35479249978003e+005,-1.48200509578653e+001,-1.05577622564905e+000

1.37370469830040e+005,-1.48200582214185e+001,-1.07051230837804e+000

1.39288090127379e+005,-1.48200656877814e+001,-1.08545401485206e+000

1.41232479406504e+005,-1.48200733625769e+001,-1.10060421194866e+000

1.43204011348474e+005,-1.48200812515817e+001,-1.11596580642049e+000

1.45203064850745e+005,-1.48200893607302e+001,-1.13154174544496e+000

1.47230024099979e+005,-1.48200976961191e+001,-1.14733501718264e+000

1.49285278645888e+005,-1.48201062640106e+001,-1.16334865134457e+000

1.51369223476094e+005,-1.48201150708382e+001,-1.17958571976302e+000

1.53482259092041e+005,-1.48201241232099e+001,-1.19604933697492e+000

1.55624791585964e+005,-1.48201334279140e+001,-1.21274266080933e+000

1.57797232718936e+005,-1.48201429919226e+001,-1.22966889298591e+000

1.59999999999999e+005,-1.48201528223974e+001,-1.24683127971825e+000

1.62233516766403e+005,-1.48201629266943e+001,-1.26423311232774e+000

1.64498212264969e+005,-1.48201733123682e+001,-1.28187772786508e+000

1.66794521734578e+005,-1.48201839871786e+001,-1.29976850974036e+000

1.69122886489819e+005,-1.48201949590948e+001,-1.31790888836020e+000

1.71483754005805e+005,-1.48202062363012e+001,-1.33630234177515e+000

1.73877578004168e+005,-1.48202178272028e+001,-1.35495239633605e+000

1.76304818540256e+005,-1.48202297404313e+001,-1.37386262735574e+000

1.78765942091554e+005,-1.48202419848505e+001,-1.39303665978567e+000

1.81261421647326e+005,-1.48202545695624e+001,-1.41247816889504e+000

1.83791736799524e+005,-1.48202675039135e+001,-1.43219088096325e+000

1.86357373834951e+005,-1.48202807975006e+001,-1.45217857398103e+000

1.88958825828723e+005,-1.48202944601777e+001,-1.47244507835918e+000

1.91596592739027e+005,-1.48203085020621e+001,-1.49299427764850e+000

1.94271181503206e+005,-1.48203229335412e+001,-1.51383010926904e+000

1.96983106135185e+005,-1.48203377652796e+001,-1.53495656524813e+000

1.99732887824256e+005,-1.48203530082255e+001,-1.55637769296916e+000

2.02521055035243e+005,-1.48203686736183e+001,-1.57809759592933e+000

2.05348143610063e+005,-1.48203847729957e+001,-1.60012043450957e+000

2.08214696870707e+005,-1.48204013182014e+001,-1.62245042675139e+000

2.11121265723661e+005,-1.48204183213920e+001,-1.64509184914806e+000

2.14068408765776e+005,-1.48204357950455e+001,-1.66804903744179e+000

2.17056692391625e+005,-1.48204537519688e+001,-1.69132638743600e+000

2.20086690902357e+005,-1.48204722053061e+001,-1.71492835581373e+000

2.23158986616063e+005,-1.48204911685468e+001,-1.73885946097193e+000

2.26274169979693e+005,-1.48205106555342e+001,-1.76312428386146e+000

2.29432839682530e+005,-1.48205306804739e+001,-1.78772746884285e+000

2.32635602771247e+005,-1.48205512579425e+001,-1.81267372455029e+000

2.35883074766574e+005,-1.48205724028971e+001,-1.83796782476815e+000

2.39175879781588e+005,-1.48205941306835e+001,-1.86361460931922e+000

2.42514650641661e+005,-1.48206164570463e+001,-1.88961898496399e+000

2.45900029006080e+005,-1.48206393981381e+001,-1.91598592631221e+000

2.49332665491357e+005,-1.48206629705287e+001,-1.94272047674661e+000

2.52813219796278e+005,-1.48206871912158e+001,-1.96982774935812e+000

2.56342360828676e+005,-1.48207120776343e+001,-1.99731292789364e+000

2.59920766833993e+005,-1.48207376476667e+001,-2.02518126771723e+000

2.63549125525621e+005,-1.48207639196535e+001,-2.05343809678158e+000

2.67228134217075e+005,-1.48207909124039e+001,-2.08208881661499e+000

2.70958499956006e+005,-1.48208186452061e+001,-2.11113890331931e+000

2.74740939660078e+005,-1.48208471378387e+001,-2.14059390858174e+000

2.78576180254757e+005,-1.48208764105816e+001,-2.17045946069988e+000

2.82464958813007e+005,-1.48209064842273e+001,-2.20074126561949e+000

2.86408022696948e+005,-1.48209373800923e+001,-2.23144510798768e+000

2.90406129701488e+005,-1.48209691200287e+001,-2.26257685221745e+000

2.94460048199957e+005,-1.48210017264364e+001,-2.29414244356817e+000

2.98570557291775e+005,-1.48210352222747e+001,-2.32614790923890e+000

3.02738446952187e+005,-1.48210696310745e+001,-2.35859935947716e+000

3.06964518184081e+005,-1.48211049769511e+001,-2.39150298870104e+000

3.11249583171928e+005,-1.48211412846163e+001,-2.42486507663766e+000

3.15594465437872e+005,-1.48211785793913e+001,-2.45869198947424e+000

3.19999999999997e+005,-1.48212168872194e+001,-2.49299018102680e+000

3.24467033532806e+005,-1.48212562346795e+001,-2.52776619392249e+000

3.28996424529938e+005,-1.48212966489988e+001,-2.56302666079812e+000

3.33589043469155e+005,-1.48213381580665e+001,-2.59877830551469e+000

3.38245772979638e+005,-1.48213807904475e+001,-2.63502794438686e+000

3.42967508011610e+005,-1.48214245753955e+001,-2.67178248743083e+000

3.47755156008335e+005,-1.48214695428676e+001,-2.70904893962572e+000

3.52609637080511e+005,-1.48215157235378e+001,-2.74683440219481e+000

3.57531884183106e+005,-1.48215631488114e+001,-2.78514607390103e+000

3.62522843294651e+005,-1.48216118508394e+001,-2.82399125236175e+000

3.67583473599047e+005,-1.48216618625325e+001,-2.86337733537989e+000

3.72714747669902e+005,-1.48217132175763e+001,-2.90331182229275e+000

3.77917651657445e+005,-1.48217659504455e+001,-2.94380231534049e+000

3.83193185478053e+005,-1.48218200964192e+001,-2.98485652105027e+000

3.88542363006410e+005,-1.48218756915954e+001,-3.02648225164196e+000

3.93966212270369e+005,-1.48219327729063e+001,-3.06868742645021e+000

3.99465775648511e+005,-1.48219913781338e+001,-3.11148007336777e+000

4.05042110070485e+005,-1.48220515459243e+001,-3.15486833030715e+000

4.10696287220124e+005,-1.48221133158044e+001,-3.19886044668301e+000

4.16429393741414e+005,-1.48221767281962e+001,-3.24346478491446e+000

4.22242531447321e+005,-1.48222418244335e+001,-3.28868982194722e+000

4.28136817531551e+005,-1.48223086467766e+001,-3.33454415079892e+000

4.34113384783250e+005,-1.48223772384288e+001,-3.38103648212345e+000

4.40173381804713e+005,-1.48224476435521e+001,-3.42817564579843e+000

4.46317973232124e+005,-1.48225199072830e+001,-3.47597059253424e+000

4.52548339959385e+005,-1.48225940757487e+001,-3.52443039550659e+000

4.58865679365059e+005,-1.48226701960832e+001,-3.57356425201051e+000

4.65271205542494e+005,-1.48227483164435e+001,-3.62338148513956e+000

4.71766149533147e+005,-1.48228284860257e+001,-3.67389154548728e+000

4.78351759563174e+005,-1.48229107550817e+001,-3.72510401287492e+000

4.85029301283321e+005,-1.48229951749354e+001,-3.77702859810211e+000

4.91800058012158e+005,-1.48230817979991e+001,-3.82967514472435e+000

4.98665330982714e+005,-1.48231706777904e+001,-3.88305363085574e+000

5.05626439592555e+005,-1.48232618689489e+001,-3.93717417099794e+000

5.12684721657352e+005,-1.48233554272524e+001,-3.99204701789713e+000

5.19841533667984e+005,-1.48234514096347e+001,-4.04768256442721e+000

5.27098251051240e+005,-1.48235498742019e+001,-4.10409134550167e+000

5.34456268434150e+005,-1.48236508802498e+001,-4.16128404001499e+000

5.41916999912011e+005,-1.48237544882811e+001,-4.21927147281143e+000

