Freq.,VOut,OutRef

1.00000000000000e+004,-1.91159556463523e-001,-1.29577890292828e-002

1.01395947979003e+004,-1.91159554385569e-001,-1.31386731119525e-002

1.02811382665607e+004,-1.91159552249183e-001,-1.33220822465310e-002

1.04246576084112e+004,-1.91159550052881e-001,-1.35080516801594e-002

1.05701804056138e+004,-1.91159547794586e-001,-1.36966171557984e-002

1.07177346253629e+004,-1.91159545472864e-001,-1.38878149116316e-002

1.08673486252606e+004,-1.91159543085993e-001,-1.40816816923058e-002

1.10190511587661e+004,-1.91159540632094e-001,-1.42782547566461e-002

1.11728713807222e+004,-1.91159538108937e-001,-1.44775718850750e-002

1.13288388529580e+004,-1.91159535514981e-001,-1.46796713813071e-002

1.14869835499703e+004,-1.91159532848106e-001,-1.48845920866860e-002

1.16473358646846e+004,-1.91159530106362e-001,-1.50923733832397e-002

1.18099266142953e+004,-1.91159527287463e-001,-1.53030552050414e-002

1.19747870461893e+004,-1.91159524389316e-001,-1.55166780412073e-002

1.21419488439505e+004,-1.91159521409776e-001,-1.57332829470391e-002

1.23114441334492e+004,-1.91159518346316e-001,-1.59529115519934e-002

1.24833054890161e+004,-1.91159515196957e-001,-1.61756060635294e-002

1.26575659397028e+004,-1.91159511958914e-001,-1.64014092826873e-002

1.28342589756290e+004,-1.91159508629886e-001,-1.66303646042880e-002

1.30134185544193e+004,-1.91159505207290e-001,-1.68625160306887e-002

1.31950791077289e+004,-1.91159501688437e-001,-1.70979081782837e-002

1.33792755478611e+004,-1.91159498070664e-001,-1.73365862866002e-002

1.35660432744767e+004,-1.91159494351263e-001,-1.75785962251376e-002

1.37554181813974e+004,-1.91159490527402e-001,-1.78239845051263e-002

1.39474366635040e+004,-1.91159486595910e-001,-1.80727982879313e-002

1.41421356237309e+004,-1.91159482553970e-001,-1.83250853913029e-002

1.43395524801583e+004,-1.91159478398407e-001,-1.85808943018394e-002

1.45397251732031e+004,-1.91159474125832e-001,-1.88402741834646e-002

1.47426921729110e+004,-1.91159469733435e-001,-1.91032748824880e-002

1.49484924863494e+004,-1.91159465217518e-001,-1.93699469467570e-002

1.51571656651040e+004,-1.91159460574597e-001,-1.96403416266696e-002

1.53687518128801e+004,-1.91159455801117e-001,-1.99145108885448e-002

1.55832915932100e+004,-1.91159450893563e-001,-2.01925074232250e-002

1.58008262372675e+004,-1.91159445848098e-001,-2.04743846583637e-002

1.60213975517924e+004,-1.91159440660747e-001,-2.07601967679398e-002

1.62450479271247e+004,-1.91159435327599e-001,-2.10499986805825e-002

1.64718203453514e+004,-1.91159429844509e-001,-2.13438460928681e-002

1.67017583885674e+004,-1.91159424207330e-001,-2.16417954782423e-002

1.69349062472505e+004,-1.91159418411662e-001,-2.19439040992549e-002

1.71713087287550e+004,-1.91159412453185e-001,-2.22502300165090e-002

1.74110112659224e+004,-1.91159406327236e-001,-2.25608321022835e-002

1.76540599258131e+004,-1.91159400029069e-001,-2.28757700511475e-002

1.79005014185594e+004,-1.91159393553875e-001,-2.31951043897725e-002

1.81503831063432e+004,-1.91159386896664e-001,-2.35188964905015e-002

1.84037530124975e+004,-1.91159380052367e-001,-2.38472085820900e-002

1.86606598307361e+004,-1.91159373015704e-001,-2.41801037622267e-002

1.89211529345119e+004,-1.91159365781233e-001,-2.45176460096401e-002

1.91852823865052e+004,-1.91159358343525e-001,-2.48599001952408e-002

1.94530989482457e+004,-1.91159350696650e-001,-2.52069320975151e-002

1.97246540898671e+004,-1.91159342835043e-001,-2.55588084100894e-002

1.99999999999999e+004,-1.91159334752311e-001,-2.59155967618863e-002

2.02791895958005e+004,-1.91159326442509e-001,-2.62773657217570e-002

2.05622765331213e+004,-1.91159317899097e-001,-2.66441848186686e-002

2.08493152168224e+004,-1.91159309115630e-001,-2.70161245506362e-002

2.11403608112276e+004,-1.91159300085359e-001,-2.73932564000700e-002

2.14354692507258e+004,-1.91159290801190e-001,-2.77756528491254e-002

2.17346972505211e+004,-1.91159281256194e-001,-2.81633873885024e-002

2.20381023175322e+004,-1.91159271443034e-001,-2.85565345372503e-002

2.23457427614443e+004,-1.91159261353897e-001,-2.89551698553443e-002

2.26576777059159e+004,-1.91159250981286e-001,-2.93593699553234e-002

2.29739670999406e+004,-1.91159240317247e-001,-2.97692125201130e-002

2.32946717293690e+004,-1.91159229353484e-001,-3.01847763182235e-002

2.36198532285905e+004,-1.91159218081626e-001,-3.06061412162630e-002

2.39495740923785e+004,-1.91159206493118e-001,-3.10333881963013e-002

2.42838976879009e+004,-1.91159194578824e-001,-3.14665993723706e-002

2.46228882668982e+004,-1.91159182329855e-001,-3.19058580020991e-002

2.49666109780322e+004,-1.91159169736587e-001,-3.23512485085271e-002

2.53151318794055e+004,-1.91159156789476e-001,-3.28028564908986e-002

2.56685179512580e+004,-1.91159143478586e-001,-3.32607687443827e-002

2.60268371088386e+004,-1.91159129793724e-001,-3.37250732756411e-002

2.63901582154578e+004,-1.91159115724233e-001,-3.41958593207350e-002

2.67585510957221e+004,-1.91159101259537e-001,-3.46732173602203e-002

2.71320865489533e+004,-1.91159086388317e-001,-3.51572391394790e-002

2.75108363627948e+004,-1.91159071099310e-001,-3.56480176827132e-002

2.78948733270080e+004,-1.91159055380760e-001,-3.61456473145084e-002

2.82842712474618e+004,-1.91159039220486e-001,-3.66502236759739e-002

2.86791049603164e+004,-1.91159022606220e-001,-3.71618437427948e-002

2.90794503464061e+004,-1.91159005525200e-001,-3.76806058447340e-002

2.94853843458219e+004,-1.91158987964304e-001,-3.82066096844828e-002

2.98969849726987e+004,-1.91158969910106e-001,-3.87399563566151e-002

3.03143313302078e+004,-1.91158951348608e-001,-3.92807483681410e-002

3.07375036257601e+004,-1.91158932265690e-001,-3.98290896553745e-002

3.11665831864199e+004,-1.91158912646721e-001,-4.03850856066385e-002

3.16016524745350e+004,-1.91158892476648e-001,-4.09488430814645e-002

3.20427951035848e+004,-1.91158871739920e-001,-4.15204704318114e-002

3.24900958542493e+004,-1.91158850420684e-001,-4.21000775215461e-002

3.29436406907028e+004,-1.91158828502658e-001,-4.26877757484592e-002

3.34035167771346e+004,-1.91158805968966e-001,-4.32836780661796e-002

3.38698124945009e+004,-1.91158782802288e-001,-4.38878990051754e-002

3.43426174575100e+004,-1.91158758984924e-001,-4.45005546948002e-002

3.48220225318448e+004,-1.91158734498626e-001,-4.51217628855707e-002

3.53081198516260e+004,-1.91158709324590e-001,-4.57516429719378e-002

3.58010028371187e+004,-1.91158683443581e-001,-4.63903160154973e-002

3.63007662126863e+004,-1.91158656835687e-001,-4.70379047687200e-002

3.68075060249948e+004,-1.91158629480547e-001,-4.76945336968191e-002

3.73213196614721e+004,-1.91158601357190e-001,-4.83603290034563e-002

3.78423058690237e+004,-1.91158572444093e-001,-4.90354186539595e-002

3.83705647730104e+004,-1.91158542719046e-001,-4.97199324008957e-002

3.89061978964912e+004,-1.91158512159356e-001,-5.04140018076550e-002

3.94493081797342e+004,-1.91158480741609e-001,-5.11177602746808e-002

3.99999999999998e+004,-1.91158448441666e-001,-5.18313430659255e-002

4.05583791916010e+004,-1.91158415234810e-001,-5.25548873334911e-002

4.11245530662425e+004,-1.91158381095660e-001,-5.32885321429476e-002

4.16986304336447e+004,-1.91158345998105e-001,-5.40324185036551e-002

4.22807216224550e+004,-1.91158309915139e-001,-5.47866893930687e-002

4.28709385014515e+004,-1.91158272819206e-001,-5.55514897849955e-002

4.34693945010421e+004,-1.91158234681918e-001,-5.63269666769237e-002

4.40762046350642e+004,-1.91158195474105e-001,-5.71132691197520e-002

4.46914855228886e+004,-1.91158155165831e-001,-5.79105482443827e-002

4.53153554118317e+004,-1.91158113726134e-001,-5.87189572933773e-002

4.59479341998812e+004,-1.91158071123335e-001,-5.95386516481704e-002

4.65893434587380e+004,-1.91158027324935e-001,-6.03697888599816e-002

4.72397064571810e+004,-1.91157982297337e-001,-6.12125286797559e-002

4.78991481847569e+004,-1.91157936006089e-001,-6.20670330901232e-002

4.85677953758016e+004,-1.91157888415921e-001,-6.29334663336797e-002

4.92457765337964e+004,-1.91157839490313e-001,-6.38119949486605e-002

4.99332219560642e+004,-1.91157789192021e-001,-6.47027877965457e-002

5.06302637588109e+004,-1.91157737482470e-001,-6.56060160987708e-002

5.13370359025159e+004,-1.91157684322209e-001,-6.65218534665460e-002

5.20536742176771e+004,-1.91157629670643e-001,-6.74504759353555e-002

5.27803164309155e+004,-1.91157573485959e-001,-6.83920620001242e-002

5.35171021914442e+004,-1.91157515725232e-001,-6.93467926471015e-002

5.42641730979066e+004,-1.91157456344583e-001,-7.03148513893208e-002

5.50216727255895e+004,-1.91157395298368e-001,-7.12964243050345e-002

5.57897466540159e+004,-1.91157332540199e-001,-7.22917000683872e-002

5.65685424949235e+004,-1.91157268022173e-001,-7.33008699896348e-002

5.73582099206328e+004,-1.91157201694921e-001,-7.43241280511337e-002

5.81589006928121e+004,-1.91157133508048e-001,-7.53616709425983e-002

5.89707686916437e+004,-1.91157063409380e-001,-7.64136981025384e-002

5.97939699453972e+004,-1.91156991345612e-001,-7.74804117532045e-002

6.06286626604156e+004,-1.91156917261709e-001,-7.85620169422304e-002

6.14750072515201e+004,-1.91156841101200e-001,-7.96587215802452e-002

6.23331663728396e+004,-1.91156762806212e-001,-8.07707364808922e-002

6.32033049490698e+004,-1.91156682316956e-001,-8.18982754039131e-002

6.40855902071694e+004,-1.91156599572226e-001,-8.30415550928032e-002

6.49801917084985e+004,-1.91156514509032e-001,-8.42007953191237e-002

6.58872813814055e+004,-1.91156427062525e-001,-8.53762189241751e-002

6.68070335542691e+004,-1.91156337166278e-001,-8.65680518609126e-002

6.77396249890018e+004,-1.91156244751930e-001,-8.77765232383339e-002

6.86852349150199e+004,-1.91156149749112e-001,-8.90018653665766e-002

6.96440450636895e+004,-1.91156052085672e-001,-9.02443137992099e-002

7.06162397032520e+004,-1.91155951687361e-001,-9.15041073809441e-002

7.16020056742374e+004,-1.91155848477854e-001,-9.27814882927426e-002

7.26015324253724e+004,-1.91155742378950e-001,-9.40767020970729e-002

7.36150120499896e+004,-1.91155633309919e-001,-9.53899977888796e-002

7.46426393229441e+004,-1.91155521188037e-001,-9.67216278392340e-002

7.56846117380472e+004,-1.91155405928286e-001,-9.80718482472040e-002

7.67411295460207e+004,-1.91155287443276e-001,-9.94409185874057e-002

7.78123957929823e+004,-1.91155165643118e-001,-1.00829102060958e-001

7.88986163594682e+004,-1.91155040435515e-001,-1.02236665546379e-001

7.99999999999995e+004,-1.91154911725739e-001,-1.03663879648990e-001

8.11167583832018e+004,-1.91154779416207e-001,-1.05111018756787e-001

8.22491061324848e+004,-1.91154643406858e-001,-1.06578361089322e-001

8.33972608672892e+004,-1.91154503594787e-001,-1.08066188754335e-001

8.45614432449099e+004,-1.91154359874343e-001,-1.09574787800201e-001

8.57418770029029e+004,-1.91154212136718e-001,-1.11104448273291e-001

8.69387890020841e+004,-1.91154060270608e-001,-1.12655464270488e-001

8.81524092701283e+004,-1.91153904161049e-001,-1.14228134000479e-001

8.93829710457770e+004,-1.91153743690421e-001,-1.15822759836325e-001

9.06307108236633e+004,-1.91153578737625e-001,-1.17439648377973e-001

9.18958683997622e+004,-1.91153409178347e-001,-1.19079110508843e-001

9.31786869174758e+004,-1.91153234884779e-001,-1.20741461456932e-001

9.44794129143618e+004,-1.91153055725683e-001,-1.22427020855787e-001

9.57982963695136e+004,-1.91152871566322e-001,-1.24136112804264e-001

9.71355907516031e+004,-1.91152682268063e-001,-1.25869065932804e-001

9.84915530675926e+004,-1.91152487688713e-001,-1.27626213462576e-001

9.98664439121282e+004,-1.91152287682072e-001,-1.29407893273287e-001

1.01260527517622e+005,-1.91152082098032e-001,-1.31214447966411e-001

1.02674071805032e+005,-1.91151870782280e-001,-1.33046224932568e-001

1.04107348435354e+005,-1.91151653576558e-001,-1.34903576416873e-001

1.05560632861831e+005,-1.91151430318021e-001,-1.36786859589522e-001

1.07034204382888e+005,-1.91151200839612e-001,-1.38696436612274e-001

1.08528346195813e+005,-1.91150964969581e-001,-1.40632674710707e-001

1.10043345451179e+005,-1.91150722531794e-001,-1.42595946242466e-001

1.11579493308032e+005,-1.91150473345065e-001,-1.44586628772297e-001

1.13137084989847e+005,-1.91150217223503e-001,-1.46605105142692e-001

1.14716419841265e+005,-1.91149953976121e-001,-1.48651763548970e-001

1.16317801385624e+005,-1.91149683406798e-001,-1.50726997614202e-001

1.17941537383287e+005,-1.91149405314210e-001,-1.52831206465038e-001

1.19587939890794e+005,-1.91149119491476e-001,-1.54964794809517e-001

1.21257325320831e+005,-1.91148825726395e-001,-1.57128173013917e-001

1.22950014503040e+005,-1.91148523800792e-001,-1.59321757184865e-001

1.24666332745679e+005,-1.91148213490878e-001,-1.61545969246610e-001

1.26406609898139e+005,-1.91147894566810e-001,-1.63801237025070e-001

1.28171180414339e+005,-1.91147566792601e-001,-1.66087994329693e-001

1.29960383416997e+005,-1.91147229926050e-001,-1.68406681037363e-001

1.31774562762811e+005,-1.91146883718354e-001,-1.70757743178487e-001

1.33614067108538e+005,-1.91146527914268e-001,-1.73141633022131e-001

1.35479249978003e+005,-1.91146162251712e-001,-1.75558809164342e-001

1.37370469830040e+005,-1.91145786461663e-001,-1.78009736617205e-001

1.39288090127379e+005,-1.91145400268014e-001,-1.80494886898376e-001

1.41232479406504e+005,-1.91145003387370e-001,-1.83014738123007e-001

1.43204011348474e+005,-1.91144595528885e-001,-1.85569775096165e-001

1.45203064850745e+005,-1.91144176394043e-001,-1.88160489407104e-001

1.47230024099979e+005,-1.91143745676561e-001,-1.90787379524041e-001

1.49285278645888e+005,-1.91143303062076e-001,-1.93450950891781e-001

1.51369223476094e+005,-1.91142848228140e-001,-1.96151716028899e-001

1.53482259092041e+005,-1.91142380843681e-001,-1.98890194628050e-001

1.55624791585964e+005,-1.91141900569229e-001,-2.01666913656527e-001

1.57797232718936e+005,-1.91141407056470e-001,-2.04482407458059e-001

1.59999999999999e+005,-1.91140899948047e-001,-2.07337217857463e-001

1.62233516766403e+005,-1.91140378877376e-001,-2.10231894265703e-001

1.64498212264969e+005,-1.91139843468439e-001,-2.13166993786774e-001

1.66794521734578e+005,-1.91139293335617e-001,-2.16143081325101e-001

1.69122886489819e+005,-1.91138728083307e-001,-2.19160729696830e-001

1.71483754005805e+005,-1.91138147306034e-001,-2.22220519739886e-001

1.73877578004168e+005,-1.91137550587727e-001,-2.25323040428614e-001

1.76304818540256e+005,-1.91136937501952e-001,-2.28468888986497e-001

1.78765942091554e+005,-1.91136307611353e-001,-2.31658671004274e-001

1.81261421647326e+005,-1.91135660467722e-001,-2.34893000555959e-001

1.83791736799524e+005,-1.91134995611405e-001,-2.38172500320534e-001

1.86357373834951e+005,-1.91134312571287e-001,-2.41497801701879e-001

1.88958825828723e+005,-1.91133610864556e-001,-2.44869544952573e-001

1.91596592739027e+005,-1.91132889996321e-001,-2.48288379297888e-001

1.94271181503206e+005,-1.91132149459541e-001,-2.51754963063353e-001

1.96983106135185e+005,-1.91131388734489e-001,-2.55269963802712e-001

1.99732887824256e+005,-1.91130607288780e-001,-2.58834058428638e-001

2.02521055035243e+005,-1.91129804577009e-001,-2.62447933344295e-001

2.05348143610063e+005,-1.91128980040425e-001,-2.66112284577992e-001

2.08214696870707e+005,-1.91128133106631e-001,-2.69827817919189e-001

2.11121265723661e+005,-1.91127263189638e-001,-2.73595249055535e-001

2.14068408765776e+005,-1.91126369689165e-001,-2.77415303713913e-001

2.17056692391625e+005,-1.91125451990619e-001,-2.81288717802055e-001

2.20086690902357e+005,-1.91124509464849e-001,-2.85216237552107e-001

2.23158986616063e+005,-1.91123541467640e-001,-2.89198619667622e-001

2.26274169979693e+005,-1.91122547339845e-001,-2.93236631470330e-001

2.29432839682530e+005,-1.91121526406717e-001,-2.97331051051751e-001

2.32635602771247e+005,-1.91120477977747e-001,-3.01482667425685e-001

2.35883074766574e+005,-1.91119401346623e-001,-3.05692280681339e-001

2.39175879781588e+005,-1.91118295790657e-001,-3.09960702142314e-001

2.42514650641661e+005,-1.91117160570686e-001,-3.14288754523913e-001

2.45900029006080e+005,-1.91115994930776e-001,-3.18677272096095e-001

2.49332665491357e+005,-1.91114798097986e-001,-3.23127100846197e-001

2.52813219796278e+005,-1.91113569281989e-001,-3.27639098645845e-001

2.56342360828676e+005,-1.91112307674996e-001,-3.32214135418858e-001

2.59920766833993e+005,-1.91111012451342e-001,-3.36853093313196e-001

2.63549125525621e+005,-1.91109682767413e-001,-3.41556866872889e-001

2.67228134217075e+005,-1.91108317761274e-001,-3.46326363215580e-001

2.70958499956006e+005,-1.91106916552397e-001,-3.51162502210579e-001

2.74740939660078e+005,-1.91105478241643e-001,-3.56066216658630e-001

2.78576180254757e+005,-1.91104001910757e-001,-3.61038452478266e-001

2.82464958813007e+005,-1.91102486622503e-001,-3.66080168889133e-001

2.86408022696948e+005,-1.91100931420088e-001,-3.71192338603620e-001

2.90406129701488e+005,-1.91099335327268e-001,-3.76375948017091e-001

2.94460048199957e+005,-1.91097697348059e-001,-3.81631997402764e-001

2.98570557291775e+005,-1.91096016466573e-001,-3.86961501109207e-001

3.02738446952187e+005,-1.91094291646809e-001,-3.92365487760717e-001

3.06964518184081e+005,-1.91092521832652e-001,-3.97845000460097e-001

3.11249583171928e+005,-1.91090705947663e-001,-4.03401096994120e-001

3.15594465437872e+005,-1.91088842895043e-001,-4.09034850043657e-001

3.19999999999997e+005,-1.91086931557326e-001,-4.14747347395346e-001

3.24467033532806e+005,-1.91084970796740e-001,-4.20539692155487e-001

3.28996424529938e+005,-1.91082959454678e-001,-4.26413002969568e-001

3.33589043469155e+005,-1.91080896352010e-001,-4.32368414242883e-001

3.38245772979638e+005,-1.91078780289018e-001,-4.38407076364937e-001

3.42967508011610e+005,-1.91076610045410e-001,-4.44530155936905e-001

3.47755156008335e+005,-1.91074384380261e-001,-4.50738836002996e-001

3.52609637080511e+005,-1.91072102032254e-001,-4.57034316284569e-001

3.57531884183106e+005,-1.91069761719765e-001,-4.63417813416810e-001

3.62522843294651e+005,-1.91067362140899e-001,-4.69890561191070e-001

3.67583473599047e+005,-1.91064901973911e-001,-4.76453810797872e-001

3.72714747669902e+005,-1.91062379877132e-001,-4.83108831075688e-001

3.77917651657445e+005,-1.91059794489412e-001,-4.89856908761654e-001

3.83193185478053e+005,-1.91057144430464e-001,-4.96699348746668e-001

3.88542363006410e+005,-1.91054428300989e-001,-5.03637474334008e-001

3.93966212270369e+005,-1.91051644683222e-001,-5.10672627501352e-001

3.99465775648511e+005,-1.91048792141382e-001,-5.17806169166625e-001

4.05042110070485e+005,-1.91045869222123e-001,-5.25039479457177e-001

4.10696287220124e+005,-1.91042874454866e-001,-5.32373957984159e-001

4.16429393741414e+005,-1.91039806352788e-001,-5.39811024118207e-001

4.22242531447321e+005,-1.91036663413048e-001,-5.47352117271991e-001

4.28136817531551e+005,-1.91033444117766e-001,-5.54998697183865e-001

4.34113384783250e+005,-1.91030146934624e-001,-5.62752244207360e-001

4.40173381804713e+005,-1.91026770317764e-001,-5.70614259604083e-001

4.46317973232124e+005,-1.91023312708678e-001,-5.78586265840327e-001

4.52548339959385e+005,-1.91019772537136e-001,-5.86669806887763e-001

4.58865679365059e+005,-1.91016148222111e-001,-5.94866448529527e-001

4.65271205542494e+005,-1.91012438173019e-001,-6.03177778668502e-001

4.71766149533147e+005,-1.91008640790864e-001,-6.11605407640870e-001

4.78351759563174e+005,-1.91004754469360e-001,-6.20150968534065e-001

4.85029301283321e+005,-1.91000777596417e-001,-6.28816117508516e-001

4.91800058012158e+005,-1.90996708555442e-001,-6.37602534123717e-001

4.98665330982714e+005,-1.90992545726823e-001,-6.46511921669127e-001

5.05626439592555e+005,-1.90988287489497e-001,-6.55546007498986e-001

5.12684721657352e+005,-1.90983932222688e-001,-6.64706543371742e-001

5.19841533667984e+005,-1.90979478307530e-001,-6.73995305794045e-001

5.27098251051240e+005,-1.90974924129015e-001,-6.83414096368332e-001

5.34456268434150e+005,-1.90970268077825e-001,-6.92964742147019e-001

5.41916999912011e+005,-1.90965508552357e-001,-7.02649095989099e-001

