Freq.,VOut,OutRef

1.00000000000000e+004,-1.54919454223497e+001,-1.57264796334827e-001

1.01395947979003e+004,-1.54919456078255e+001,-1.59460127451123e-001

1.02811382665607e+004,-1.54919457985153e+001,-1.61686104094864e-001

1.04246576084112e+004,-1.54919459945660e+001,-1.63943154053367e-001

1.05701804056138e+004,-1.54919461961282e+001,-1.66231711087632e-001

1.07177346253629e+004,-1.54919464033569e+001,-1.68552215013398e-001

1.08673486252606e+004,-1.54919466164116e+001,-1.70905111783673e-001

1.10190511587661e+004,-1.54919468354555e+001,-1.73290853580719e-001

1.11728713807222e+004,-1.54919470606575e+001,-1.75709898893772e-001

1.13288388529580e+004,-1.54919472921906e+001,-1.78162712613970e-001

1.14869835499703e+004,-1.54919475302327e+001,-1.80649766123202e-001

1.16473358646846e+004,-1.54919477749667e+001,-1.83171537382321e-001

1.18099266142953e+004,-1.54919480265809e+001,-1.85728511021950e-001

1.19747870461893e+004,-1.54919482852685e+001,-1.88321178440666e-001

1.21419488439505e+004,-1.54919485512286e+001,-1.90950037893763e-001

1.23114441334492e+004,-1.54919488246654e+001,-1.93615594592280e-001

1.24833054890161e+004,-1.54919491057892e+001,-1.96318360800329e-001

1.26575659397028e+004,-1.54919493948162e+001,-1.99058855930595e-001

1.28342589756290e+004,-1.54919496919683e+001,-2.01837606647774e-001

1.30134185544193e+004,-1.54919499974740e+001,-2.04655146966957e-001

1.31950791077289e+004,-1.54919503115684e+001,-2.07512018356911e-001

1.33792755478611e+004,-1.54919506344924e+001,-2.10408769846886e-001

1.35660432744767e+004,-1.54919509664948e+001,-2.13345958125740e-001

1.37554181813974e+004,-1.54919513078304e+001,-2.16324147655880e-001

1.39474366635040e+004,-1.54919516587616e+001,-2.19343910778363e-001

1.41421356237309e+004,-1.54919520195583e+001,-2.22405827821762e-001

1.43395524801583e+004,-1.54919523904976e+001,-2.25510487216873e-001

1.45397251732031e+004,-1.54919527718649e+001,-2.28658485605285e-001

1.47426921729110e+004,-1.54919531639531e+001,-2.31850427959760e-001

1.49484924863494e+004,-1.54919535670637e+001,-2.35086927695329e-001

1.51571656651040e+004,-1.54919539815064e+001,-2.38368606789702e-001

1.53687518128801e+004,-1.54919544075997e+001,-2.41696095902880e-001

1.55832915932100e+004,-1.54919548456715e+001,-2.45070034495670e-001

1.58008262372675e+004,-1.54919552960579e+001,-2.48491070957781e-001

1.60213975517924e+004,-1.54919557591056e+001,-2.51959862725462e-001

1.62450479271247e+004,-1.54919562351702e+001,-2.55477076413554e-001

1.64718203453514e+004,-1.54919567246177e+001,-2.59043387942265e-001

1.67017583885674e+004,-1.54919572278242e+001,-2.62659482663581e-001

1.69349062472505e+004,-1.54919577451766e+001,-2.66326055497694e-001

1.71713087287550e+004,-1.54919582770723e+001,-2.70043811063035e-001

1.74110112659224e+004,-1.54919588239203e+001,-2.73813463814080e-001

1.76540599258131e+004,-1.54919593861408e+001,-2.77635738176029e-001

1.79005014185594e+004,-1.54919599641659e+001,-2.81511368687154e-001

1.81503831063432e+004,-1.54919605584398e+001,-2.85441100136033e-001

1.84037530124975e+004,-1.54919611694193e+001,-2.89425687707646e-001

1.86606598307361e+004,-1.54919617975739e+001,-2.93465897127811e-001

1.89211529345119e+004,-1.54919624433863e+001,-2.97562504809883e-001

1.91852823865052e+004,-1.54919631073530e+001,-3.01716298002142e-001

1.94530989482457e+004,-1.54919637899841e+001,-3.05928074943624e-001

1.97246540898671e+004,-1.54919644918043e+001,-3.10198645011900e-001

1.99999999999999e+004,-1.54919652133528e+001,-3.14528828883204e-001

2.02791895958005e+004,-1.54919659551843e+001,-3.18919458686113e-001

2.05622765331213e+004,-1.54919667178688e+001,-3.23371378164159e-001

2.08493152168224e+004,-1.54919675019923e+001,-3.27885442837882e-001

2.11403608112276e+004,-1.54919683081575e+001,-3.32462520167022e-001

2.14354692507258e+004,-1.54919691369838e+001,-3.37103489718664e-001

2.17346972505211e+004,-1.54919699891083e+001,-3.41809243334650e-001

2.20381023175322e+004,-1.54919708651855e+001,-3.46580685307065e-001

2.23457427614443e+004,-1.54919717658889e+001,-3.51418732544795e-001

2.26576777059159e+004,-1.54919726919105e+001,-3.56324314756642e-001

2.29739670999406e+004,-1.54919736439618e+001,-3.61298374625599e-001

2.32946717293690e+004,-1.54919746227744e+001,-3.66341867991019e-001

2.36198532285905e+004,-1.54919756291004e+001,-3.71455764032628e-001

2.39495740923785e+004,-1.54919766637131e+001,-3.76641045454785e-001

2.42838976879009e+004,-1.54919777274073e+001,-3.81898708679267e-001

2.46228882668982e+004,-1.54919788210005e+001,-3.87229764031354e-001

2.49666109780322e+004,-1.54919799453327e+001,-3.92635235937342e-001

2.53151318794055e+004,-1.54919811012681e+001,-3.98116163119236e-001

2.56685179512580e+004,-1.54919822896944e+001,-4.03673598797542e-001

2.60268371088386e+004,-1.54919835115251e+001,-4.09308610887642e-001

2.63901582154578e+004,-1.54919847676986e+001,-4.15022282210272e-001

2.67585510957221e+004,-1.54919860591802e+001,-4.20815710697007e-001

2.71320865489533e+004,-1.54919873869619e+001,-4.26690009601733e-001

2.75108363627948e+004,-1.54919887520639e+001,-4.32646307712420e-001

2.78948733270080e+004,-1.54919901555349e+001,-4.38685749570674e-001

2.82842712474618e+004,-1.54919915984530e+001,-4.44809495688960e-001

2.86791049603164e+004,-1.54919930819268e+001,-4.51018722774731e-001

2.90794503464061e+004,-1.54919946070958e+001,-4.57314623956334e-001

2.94853843458219e+004,-1.54919961751314e+001,-4.63698409011696e-001

2.98969849726987e+004,-1.54919977872385e+001,-4.70171304598340e-001

3.03143313302078e+004,-1.54919994446550e+001,-4.76734554493526e-001

3.07375036257601e+004,-1.54920011486542e+001,-4.83389419828833e-001

3.11665831864199e+004,-1.54920029005450e+001,-4.90137179332762e-001

3.16016524745350e+004,-1.54920047016728e+001,-4.96979129578753e-001

3.20427951035848e+004,-1.54920065534212e+001,-5.03916585229082e-001

3.24900958542493e+004,-1.54920084572123e+001,-5.10950879293348e-001

3.29436406907028e+004,-1.54920104145081e+001,-5.18083363378976e-001

3.34035167771346e+004,-1.54920124268121e+001,-5.25315407951683e-001

3.38698124945009e+004,-1.54920144956695e+001,-5.32648402601186e-001

3.43426174575100e+004,-1.54920166226690e+001,-5.40083756304545e-001

3.48220225318448e+004,-1.54920188094443e+001,-5.47622897696170e-001

3.53081198516260e+004,-1.54920210576744e+001,-5.55267275346089e-001

3.58010028371187e+004,-1.54920233690857e+001,-5.63018358032324e-001

3.63007662126863e+004,-1.54920257454532e+001,-5.70877635026060e-001

3.68075060249948e+004,-1.54920281886014e+001,-5.78846616375691e-001

3.73213196614721e+004,-1.54920307004061e+001,-5.86926833198496e-001

3.78423058690237e+004,-1.54920332827960e+001,-5.95119837970322e-001

3.83705647730104e+004,-1.54920359377536e+001,-6.03427204827961e-001

3.89061978964912e+004,-1.54920386673173e+001,-6.11850529866229e-001

3.94493081797342e+004,-1.54920414735824e+001,-6.20391431447700e-001

3.99999999999998e+004,-1.54920443587032e+001,-6.29051550511213e-001

4.05583791916010e+004,-1.54920473248945e+001,-6.37832550886080e-001

4.11245530662425e+004,-1.54920503744331e+001,-6.46736119612342e-001

4.16986304336447e+004,-1.54920535096597e+001,-6.55763967262606e-001

4.22807216224550e+004,-1.54920567329807e+001,-6.64917828270809e-001

4.28709385014515e+004,-1.54920600468699e+001,-6.74199461264091e-001

4.34693945010421e+004,-1.54920634538708e+001,-6.83610649399403e-001

4.40762046350642e+004,-1.54920669565978e+001,-6.93153200707276e-001

4.46914855228886e+004,-1.54920705577390e+001,-7.02828948434423e-001

4.53153554118317e+004,-1.54920742600577e+001,-7.12639751398155e-001

4.59479341998812e+004,-1.54920780663947e+001,-7.22587494340956e-001

4.65893434587380e+004,-1.54920819796704e+001,-7.32674088291756e-001

4.72397064571810e+004,-1.54920860028873e+001,-7.42901470931619e-001

4.78991481847569e+004,-1.54920901391318e+001,-7.53271606965483e-001

4.85677953758016e+004,-1.54920943915771e+001,-7.63786488496957e-001

4.92457765337964e+004,-1.54920987634851e+001,-7.74448135410704e-001

4.99332219560642e+004,-1.54921032582092e+001,-7.85258595759646e-001

5.06302637588109e+004,-1.54921078791970e+001,-7.96219946154819e-001

5.13370359025159e+004,-1.54921126299925e+001,-8.07334292165169e-001

5.20536742176771e+004,-1.54921175142389e+001,-8.18603768718670e-001

5.27803164309155e+004,-1.54921225356818e+001,-8.30030540511844e-001

5.35171021914442e+004,-1.54921276981715e+001,-8.41616802423535e-001

5.42641730979066e+004,-1.54921330056664e+001,-8.53364779933962e-001

5.50216727255895e+004,-1.54921384622353e+001,-8.65276729551953e-001

5.57897466540159e+004,-1.54921440720617e+001,-8.77354939244815e-001

5.65685424949235e+004,-1.54921498394455e+001,-8.89601728877386e-001

5.73582099206328e+004,-1.54921557688075e+001,-9.02019450653349e-001

5.81589006928121e+004,-1.54921618646921e+001,-9.14610489566874e-001

5.89707686916437e+004,-1.54921681317709e+001,-9.27377263858273e-001

5.97939699453972e+004,-1.54921745748465e+001,-9.40322225473416e-001

6.06286626604156e+004,-1.54921811988557e+001,-9.53447860536307e-001

6.14750072515201e+004,-1.54921880088734e+001,-9.66756689820844e-001

6.23331663728396e+004,-1.54921950101167e+001,-9.80251269233319e-001

6.32033049490698e+004,-1.54922022079487e+001,-9.93934190300246e-001

6.40855902071694e+004,-1.54922096078823e+001,-1.00780808066422e+000

6.49801917084985e+004,-1.54922172155848e+001,-1.02187560458327e+000

6.58872813814055e+004,-1.54922250368818e+001,-1.03613946344146e+000

6.68070335542691e+004,-1.54922330777622e+001,-1.05060239626318e+000

6.77396249890018e+004,-1.54922413443817e+001,-1.06526718023663e+000

6.86852349150199e+004,-1.54922498430688e+001,-1.08013663124159e+000

6.96440450636895e+004,-1.54922585803285e+001,-1.09521360438882e+000

7.06162397032520e+004,-1.54922675628474e+001,-1.11050099456274e+000

7.16020056742374e+004,-1.54922767974994e+001,-1.12600173697402e+000

7.26015324253724e+004,-1.54922862913500e+001,-1.14171880771829e+000

7.36150120499896e+004,-1.54922960516624e+001,-1.15765522434396e+000

7.46426393229441e+004,-1.54923060859024e+001,-1.17381404642595e+000

7.56846117380472e+004,-1.54923164017443e+001,-1.19019837614986e+000

7.67411295460207e+004,-1.54923270070767e+001,-1.20681135890006e+000

7.78123957929823e+004,-1.54923379100083e+001,-1.22365618386177e+000

7.88986163594682e+004,-1.54923491188740e+001,-1.24073608462470e+000

7.99999999999995e+004,-1.54923606422415e+001,-1.25805433979997e+000

8.11167583832018e+004,-1.54923724889172e+001,-1.27561427364296e+000

8.22491061324848e+004,-1.54923846679531e+001,-1.29341925668610e+000

8.33972608672892e+004,-1.54923971886538e+001,-1.31147270637855e+000

8.45614432449099e+004,-1.54924100605830e+001,-1.32977808773515e+000

8.57418770029029e+004,-1.54924232935710e+001,-1.34833891399692e+000

8.69387890020841e+004,-1.54924368977219e+001,-1.36715874729552e+000

8.81524092701283e+004,-1.54924508834214e+001,-1.38624119933034e+000

8.93829710457770e+004,-1.54924652613443e+001,-1.40558993205475e+000

9.06307108236633e+004,-1.54924800424625e+001,-1.42520865836918e+000

9.18958683997622e+004,-1.54924952380533e+001,-1.44510114282694e+000

9.31786869174758e+004,-1.54925108597078e+001,-1.46527120234639e+000

9.44794129143618e+004,-1.54925269193395e+001,-1.48572270693434e+000

9.57982963695136e+004,-1.54925434291931e+001,-1.50645958041998e+000

9.71355907516031e+004,-1.54925604018537e+001,-1.52748580119683e+000

9.84915530675926e+004,-1.54925778502561e+001,-1.54880540297650e+000

9.98664439121282e+004,-1.54925957876945e+001,-1.57042247555102e+000

1.01260527517622e+005,-1.54926142278323e+001,-1.59234116556688e+000

1.02674071805032e+005,-1.54926331847120e+001,-1.61456567730842e+000

1.04107348435354e+005,-1.54926526727661e+001,-1.63710027349178e+000

1.05560632861831e+005,-1.54926727068272e+001,-1.65994927607137e+000

1.07034204382888e+005,-1.54926933021394e+001,-1.68311706705383e+000

1.08528346195813e+005,-1.54927144743693e+001,-1.70660808932639e+000

1.10043345451179e+005,-1.54927362396176e+001,-1.73042684749303e+000

1.11579493308032e+005,-1.54927586144310e+001,-1.75457790872456e+000

1.13137084989847e+005,-1.54927816158143e+001,-1.77906590361889e+000

1.14716419841265e+005,-1.54928052612428e+001,-1.80389552707315e+000

1.16317801385624e+005,-1.54928295686755e+001,-1.82907153916570e+000

1.17941537383287e+005,-1.54928545565676e+001,-1.85459876605263e+000

1.19587939890794e+005,-1.54928802438846e+001,-1.88048210087486e+000

1.21257325320831e+005,-1.54929066501158e+001,-1.90672650467675e+000

1.22950014503040e+005,-1.54929337952887e+001,-1.93333700733706e+000

1.24666332745679e+005,-1.54929616999835e+001,-1.96031870851395e+000

1.26406609898139e+005,-1.54929903853480e+001,-1.98767677859978e+000

1.28171180414339e+005,-1.54930198731129e+001,-2.01541645969102e+000

1.29960383416997e+005,-1.54930501856079e+001,-2.04354306656799e+000

1.31774562762811e+005,-1.54930813457773e+001,-2.07206198769177e+000

1.33614067108538e+005,-1.54931133771973e+001,-2.10097868620979e+000

1.35479249978003e+005,-1.54931463040921e+001,-2.13029870097746e+000

1.37370469830040e+005,-1.54931801513520e+001,-2.16002764759198e+000

1.39288090127379e+005,-1.54932149445513e+001,-2.19017121944024e+000

1.41232479406504e+005,-1.54932507099661e+001,-2.22073518876015e+000

1.43204011348474e+005,-1.54932874745934e+001,-2.25172540771586e+000

1.45203064850745e+005,-1.54933252661708e+001,-2.28314780948610e+000

1.47230024099979e+005,-1.54933641131954e+001,-2.31500840936957e+000

1.49285278645888e+005,-1.54934040449448e+001,-2.34731330590066e+000

1.51369223476094e+005,-1.54934450914975e+001,-2.38006868198214e+000

1.53482259092041e+005,-1.54934872837544e+001,-2.41328080603215e+000

1.55624791585964e+005,-1.54935306534604e+001,-2.44695603314648e+000

1.57797232718936e+005,-1.54935752332270e+001,-2.48110080627350e+000

1.59999999999999e+005,-1.54936210565552e+001,-2.51572165740682e+000

1.62233516766403e+005,-1.54936681578587e+001,-2.55082520879266e+000

1.64498212264969e+005,-1.54937165724884e+001,-2.58641817415131e+000

1.66794521734578e+005,-1.54937663367568e+001,-2.62250735991548e+000

1.69122886489819e+005,-1.54938174879633e+001,-2.65909966648414e+000

1.71483754005805e+005,-1.54938700644202e+001,-2.69620208949261e+000

1.73877578004168e+005,-1.54939241054789e+001,-2.73382172109800e+000

1.76304818540256e+005,-1.54939796515574e+001,-2.77196575128138e+000

1.78765942091554e+005,-1.54940367441682e+001,-2.81064146916621e+000

1.81261421647326e+005,-1.54940954259462e+001,-2.84985626435438e+000

1.83791736799524e+005,-1.54941557406782e+001,-2.88961762827755e+000

1.86357373834951e+005,-1.54942177333329e+001,-2.92993315556634e+000

1.88958825828723e+005,-1.54942814500911e+001,-2.97081054543639e+000

1.91596592739027e+005,-1.54943469383770e+001,-3.01225760309164e+000

1.94271181503206e+005,-1.54944142468906e+001,-3.05428224114598e+000

1.96983106135185e+005,-1.54944834256397e+001,-3.09689248106125e+000

1.99732887824256e+005,-1.54945545259741e+001,-3.14009645460342e+000

2.02521055035243e+005,-1.54946276006192e+001,-3.18390240531813e+000

2.05348143610063e+005,-1.54947027037117e+001,-3.22831869002207e+000

2.08214696870707e+005,-1.54947798908346e+001,-3.27335378031485e+000

2.11121265723661e+005,-1.54948592190547e+001,-3.31901626410856e+000

2.14068408765776e+005,-1.54949407469594e+001,-3.36531484717519e+000

2.17056692391625e+005,-1.54950245346952e+001,-3.41225835471490e+000

2.20086690902357e+005,-1.54951106440067e+001,-3.45985573294149e+000

2.23158986616063e+005,-1.54951991382768e+001,-3.50811605068888e+000

2.26274169979693e+005,-1.54952900825673e+001,-3.55704850103479e+000

2.29432839682530e+005,-1.54953835436609e+001,-3.60666240294686e+000

2.32635602771247e+005,-1.54954795901034e+001,-3.65696720294593e+000

2.35883074766574e+005,-1.54955782922475e+001,-3.70797247679090e+000

2.39175879781588e+005,-1.54956797222972e+001,-3.75968793118396e+000

2.42514650641661e+005,-1.54957839543530e+001,-3.81212340549518e+000

2.45900029006080e+005,-1.54958910644586e+001,-3.86528887350762e+000

2.49332665491357e+005,-1.54960011306473e+001,-3.91919444518537e+000

2.52813219796278e+005,-1.54961142329913e+001,-3.97385036845906e+000

2.56342360828676e+005,-1.54962304536498e+001,-4.02926703103624e+000

2.59920766833993e+005,-1.54963498769199e+001,-4.08545496222982e+000

2.63549125525621e+005,-1.54964725892873e+001,-4.14242483481103e+000

2.67228134217075e+005,-1.54965986794787e+001,-4.20018746688155e+000

2.70958499956006e+005,-1.54967282385145e+001,-4.25875382376961e+000

2.74740939660078e+005,-1.54968613597634e+001,-4.31813501994769e+000

2.78576180254757e+005,-1.54969981389973e+001,-4.37834232097177e+000

2.82464958813007e+005,-1.54971386744473e+001,-4.43938714544498e+000

2.86408022696948e+005,-1.54972830668614e+001,-4.50128106700228e+000

2.90406129701488e+005,-1.54974314195620e+001,-4.56403581631948e+000

2.94460048199957e+005,-1.54975838385059e+001,-4.62766328314585e+000

2.98570557291775e+005,-1.54977404323441e+001,-4.69217551835849e+000

3.02738446952187e+005,-1.54979013124834e+001,-4.75758473604295e+000

3.06964518184081e+005,-1.54980665931487e+001,-4.82390331559621e+000

3.11249583171928e+005,-1.54982363914465e+001,-4.89114380385492e+000

3.15594465437872e+005,-1.54984108274294e+001,-4.95931891724794e+000

3.19999999999997e+005,-1.54985900241617e+001,-5.02844154397310e+000

3.24467033532806e+005,-1.54987741077858e+001,-5.09852474620144e+000

3.28996424529938e+005,-1.54989632075901e+001,-5.16958176230433e+000

3.33589043469155e+005,-1.54991574560779e+001,-5.24162600910715e+000

3.38245772979638e+005,-1.54993569890366e+001,-5.31467108417082e+000

3.42967508011610e+005,-1.54995619456092e+001,-5.38873076809714e+000

3.47755156008335e+005,-1.54997724683654e+001,-5.46381902686282e+000

3.52609637080511e+005,-1.54999887033752e+001,-5.53995001418029e+000

3.57531884183106e+005,-1.55002108002825e+001,-5.61713807388546e+000

3.62522843294651e+005,-1.55004389123801e+001,-5.69539774235400e+000

3.67583473599047e+005,-1.55006731966856e+001,-5.77474375094570e+000

3.72714747669902e+005,-1.55009138140189e+001,-5.85519102847772e+000

3.77917651657445e+005,-1.55011609290793e+001,-5.93675470372719e+000

3.83193185478053e+005,-1.55014147105256e+001,-6.01945010796301e+000

3.88542363006410e+005,-1.55016753310553e+001,-6.10329277750800e+000

3.93966212270369e+005,-1.55019429674861e+001,-6.18829845633196e+000

3.99465775648511e+005,-1.55022178008378e+001,-6.27448309867573e+000

4.05042110070485e+005,-1.55025000164151e+001,-6.36186287170685e+000

4.10696287220124e+005,-1.55027898038919e+001,-6.45045415820707e+000

4.16429393741414e+005,-1.55030873573961e+001,-6.54027355929414e+000

4.22242531447321e+005,-1.55033928755952e+001,-6.63133789717536e+000

4.28136817531551e+005,-1.55037065617839e+001,-6.72366421793697e+000

4.34113384783250e+005,-1.55040286239712e+001,-6.81726979436691e+000

4.40173381804713e+005,-1.55043592749694e+001,-6.91217212881378e+000

4.46317973232124e+005,-1.55046987324842e+001,-7.00838895608256e+000

4.52548339959385e+005,-1.55050472192050e+001,-7.10593824636646e+000

4.58865679365059e+005,-1.55054049628967e+001,-7.20483820821763e+000

4.65271205542494e+005,-1.55057721964921e+001,-7.30510729155552e+000

4.71766149533147e+005,-1.55061491581863e+001,-7.40676419071598e+000

4.78351759563174e+005,-1.55065360915304e+001,-7.50982784753978e+000

4.85029301283321e+005,-1.55069332455277e+001,-7.61431745450390e+000

4.91800058012158e+005,-1.55073408747303e+001,-7.72025245789344e+000

4.98665330982714e+005,-1.55077592393367e+001,-7.82765256101921e+000

5.05626439592555e+005,-1.55081886052909e+001,-7.93653772747824e+000

5.12684721657352e+005,-1.55086292443820e+001,-8.04692818445983e+000

5.19841533667984e+005,-1.55090814343458e+001,-8.15884442610025e+000

5.27098251051240e+005,-1.55095454589669e+001,-8.27230721688323e+000

5.34456268434150e+005,-1.55100216081825e+001,-8.38733759509096e+000

5.41916999912011e+005,-1.55105101781871e+001,-8.50395687630462e+000

