Freq.,VOut,OutRef

1.00000000000000e+004,-1.98214101331626e+001,-1.38592338235494e-001

1.01395947979003e+004,-1.98214104336066e+001,-1.40527009277694e-001

1.02811382665607e+004,-1.98214107424969e+001,-1.42488687070815e-001

1.04246576084112e+004,-1.98214110600711e+001,-1.44477748603998e-001

1.05701804056138e+004,-1.98214113865731e+001,-1.46494576129388e-001

1.07177346253629e+004,-1.98214117222539e+001,-1.48539557233957e-001

1.08673486252606e+004,-1.98214120673719e+001,-1.50613084913935e-001

1.10190511587661e+004,-1.98214124221920e+001,-1.52715557653686e-001

1.11728713807222e+004,-1.98214127869870e+001,-1.54847379498170e-001

1.13288388529580e+004,-1.98214131620375e+001,-1.57008960130180e-001

1.14869835499703e+004,-1.98214135476314e+001,-1.59200714955328e-001

1.16473358646846e+004,-1.98214139440657e+001,-1.61423065171652e-001

1.18099266142953e+004,-1.98214143516446e+001,-1.63676437861950e-001

1.19747870461893e+004,-1.98214147706816e+001,-1.65961266066606e-001

1.21419488439505e+004,-1.98214152014989e+001,-1.68277988871711e-001

1.23114441334492e+004,-1.98214156444275e+001,-1.70627051491174e-001

1.24833054890161e+004,-1.98214160998078e+001,-1.73008905354871e-001

1.26575659397028e+004,-1.98214165679902e+001,-1.75424008190733e-001

1.28342589756290e+004,-1.98214170493341e+001,-1.77872824119296e-001

1.30134185544193e+004,-1.98214175442097e+001,-1.80355823736327e-001

1.31950791077289e+004,-1.98214180529976e+001,-1.82873484205322e-001

1.33792755478611e+004,-1.98214185760885e+001,-1.85426289353319e-001

1.35660432744767e+004,-1.98214191138848e+001,-1.88014729756922e-001

1.37554181813974e+004,-1.98214196667995e+001,-1.90639302842710e-001

1.39474366635040e+004,-1.98214202352581e+001,-1.93300512976488e-001

1.41421356237309e+004,-1.98214208196971e+001,-1.95998871567595e-001

1.43395524801583e+004,-1.98214214205659e+001,-1.98734897161201e-001

1.45397251732031e+004,-1.98214220383262e+001,-2.01509115540599e-001

1.47426921729110e+004,-1.98214226734531e+001,-2.04322059825268e-001

1.49484924863494e+004,-1.98214233264346e+001,-2.07174270578757e-001

1.51571656651040e+004,-1.98214239977725e+001,-2.10066295907929e-001

1.53687518128801e+004,-1.98214246879829e+001,-2.12998691569159e-001

1.55832915932100e+004,-1.98214253975963e+001,-2.15972021076100e-001

1.58008262372675e+004,-1.98214261271582e+001,-2.18986855805991e-001

1.60213975517924e+004,-1.98214268772292e+001,-2.22043775112086e-001

1.62450479271247e+004,-1.98214276483858e+001,-2.25143366432905e-001

1.64718203453514e+004,-1.98214284412208e+001,-2.28286225405731e-001

1.67017583885674e+004,-1.98214292563434e+001,-2.31472955980743e-001

1.69349062472505e+004,-1.98214300943802e+001,-2.34704170536802e-001

1.71713087287550e+004,-1.98214309559754e+001,-2.37980489999289e-001

1.74110112659224e+004,-1.98214318417910e+001,-2.41302543960483e-001

1.76540599258131e+004,-1.98214327525078e+001,-2.44670970798139e-001

1.79005014185594e+004,-1.98214336888257e+001,-2.48086417800206e-001

1.81503831063432e+004,-1.98214346514647e+001,-2.51549541285456e-001

1.84037530124975e+004,-1.98214356411640e+001,-2.55061006737355e-001

1.86606598307361e+004,-1.98214366586847e+001,-2.58621488921192e-001

1.89211529345119e+004,-1.98214377048086e+001,-2.62231672022420e-001

1.91852823865052e+004,-1.98214387803397e+001,-2.65892249773573e-001

1.94530989482457e+004,-1.98214398861046e+001,-2.69603925588360e-001

1.97246540898671e+004,-1.98214410229530e+001,-2.73367412697298e-001

1.99999999999999e+004,-1.98214421917585e+001,-2.77183434284336e-001

2.02791895958005e+004,-1.98214433934195e+001,-2.81052723624502e-001

2.05622765331213e+004,-1.98214446288594e+001,-2.84976024226892e-001

2.08493152168224e+004,-1.98214458990275e+001,-2.88954089974832e-001

2.11403608112276e+004,-1.98214472049000e+001,-2.92987685273595e-001

2.14354692507258e+004,-1.98214485474802e+001,-2.97077585193774e-001

2.17346972505211e+004,-1.98214499278001e+001,-3.01224575621886e-001

2.20381023175322e+004,-1.98214513469201e+001,-3.05429453411623e-001

2.23457427614443e+004,-1.98214528059309e+001,-3.09693026535937e-001

2.26576777059159e+004,-1.98214543059536e+001,-3.14016114241125e-001

2.29739670999406e+004,-1.98214558481407e+001,-3.18399547206625e-001

2.32946717293690e+004,-1.98214574336773e+001,-3.22844167702232e-001

2.36198532285905e+004,-1.98214590637818e+001,-3.27350829749954e-001

2.39495740923785e+004,-1.98214607397065e+001,-3.31920399289159e-001

2.42838976879009e+004,-1.98214624627393e+001,-3.36553754340907e-001

2.46228882668982e+004,-1.98214642342041e+001,-3.41251785177688e-001

2.49666109780322e+004,-1.98214660554618e+001,-3.46015394493942e-001

2.53151318794055e+004,-1.98214679279120e+001,-3.50845497578519e-001

2.56685179512580e+004,-1.98214698529931e+001,-3.55743022491685e-001

2.60268371088386e+004,-1.98214718321843e+001,-3.60708910240508e-001

2.63901582154578e+004,-1.98214738670061e+001,-3.65744114963453e-001

2.67585510957221e+004,-1.98214759590217e+001,-3.70849604109377e-001

2.71320865489533e+004,-1.98214781098387e+001,-3.76026358624056e-001

2.75108363627948e+004,-1.98214803211091e+001,-3.81275373139722e-001

2.78948733270080e+004,-1.98214825945318e+001,-3.86597656165752e-001

2.82842712474618e+004,-1.98214849318532e+001,-3.91994230279211e-001

2.86791049603164e+004,-1.98214873348690e+001,-3.97466132324036e-001

2.90794503464061e+004,-1.98214898054251e+001,-4.03014413607790e-001

2.94853843458219e+004,-1.98214923454191e+001,-4.08640140105494e-001

2.98969849726987e+004,-1.98214949568025e+001,-4.14344392660139e-001

3.03143313302078e+004,-1.98214976415809e+001,-4.20128267193532e-001

3.07375036257601e+004,-1.98215004018166e+001,-4.25992874915693e-001

3.11665831864199e+004,-1.98215032396297e+001,-4.31939342534741e-001

3.16016524745350e+004,-1.98215061572000e+001,-4.37968812477015e-001

3.20427951035848e+004,-1.98215091567682e+001,-4.44082443102681e-001

3.24900958542493e+004,-1.98215122406382e+001,-4.50281408929445e-001

3.29436406907028e+004,-1.98215154111784e+001,-4.56566900857938e-001

3.34035167771346e+004,-1.98215186708239e+001,-4.62940126397074e-001

3.38698124945009e+004,-1.98215220220779e+001,-4.69402309897909e-001

3.43426174575100e+004,-1.98215254675141e+001,-4.75954692788315e-001

3.48220225318448e+004,-1.98215290097783e+001,-4.82598533808551e-001

3.53081198516260e+004,-1.98215326515907e+001,-4.89335109253988e-001

3.58010028371187e+004,-1.98215363957477e+001,-4.96165713218419e-001

3.63007662126863e+004,-1.98215402451244e+001,-5.03091657842875e-001

3.68075060249948e+004,-1.98215442026763e+001,-5.10114273566301e-001

3.73213196614721e+004,-1.98215482714422e+001,-5.17234909379270e-001

3.78423058690237e+004,-1.98215524545459e+001,-5.24454933083202e-001

3.83705647730104e+004,-1.98215567551991e+001,-5.31775731552356e-001

3.89061978964912e+004,-1.98215611767034e+001,-5.39198710998025e-001

3.94493081797342e+004,-1.98215657224533e+001,-5.46725297237764e-001

3.99999999999998e+004,-1.98215703959383e+001,-5.54356935969416e-001

4.05583791916010e+004,-1.98215752007460e+001,-5.62095093045632e-001

4.11245530662425e+004,-1.98215801405644e+001,-5.69941254755878e-001

4.16986304336447e+004,-1.98215852191853e+001,-5.77896928109354e-001

4.22807216224550e+004,-1.98215904405067e+001,-5.85963641123590e-001

4.28709385014515e+004,-1.98215958085359e+001,-5.94142943116816e-001

4.34693945010421e+004,-1.98216013273926e+001,-6.02436405002982e-001

4.40762046350642e+004,-1.98216070013123e+001,-6.10845619593109e-001

4.46914855228886e+004,-1.98216128346489e+001,-6.19372201899103e-001

4.53153554118317e+004,-1.98216188318788e+001,-6.28017789441781e-001

4.59479341998812e+004,-1.98216249976037e+001,-6.36784042564134e-001

4.65893434587380e+004,-1.98216313365542e+001,-6.45672644748669e-001

4.72397064571810e+004,-1.98216378535938e+001,-6.54685302938062e-001

4.78991481847569e+004,-1.98216445537222e+001,-6.63823747861047e-001

4.85677953758016e+004,-1.98216514420795e+001,-6.73089734362656e-001

4.92457765337964e+004,-1.98216585239495e+001,-6.82485041739931e-001

4.99332219560642e+004,-1.98216658047645e+001,-6.92011474080353e-001

5.06302637588109e+004,-1.98216732901086e+001,-7.01670860606193e-001

5.13370359025159e+004,-1.98216809857229e+001,-7.11465056023152e-001

5.20536742176771e+004,-1.98216888975092e+001,-7.21395940873804e-001

5.27803164309155e+004,-1.98216970315343e+001,-7.31465421897466e-001

5.35171021914442e+004,-1.98217053940354e+001,-7.41675432391586e-001

5.42641730979066e+004,-1.98217139914244e+001,-7.52027932580475e-001

5.50216727255895e+004,-1.98217228302927e+001,-7.62524909989378e-001

5.57897466540159e+004,-1.98217319174161e+001,-7.73168379822966e-001

5.65685424949235e+004,-1.98217412597608e+001,-7.83960385346759e-001

5.73582099206328e+004,-1.98217508644872e+001,-7.94902998280150e-001

5.81589006928121e+004,-1.98217607389570e+001,-8.05998319186016e-001

5.89707686916437e+004,-1.98217708907376e+001,-8.17248477872729e-001

5.97939699453972e+004,-1.98217813276081e+001,-8.28655633800186e-001

6.06286626604156e+004,-1.98217920575657e+001,-8.40221976486065e-001

6.14750072515201e+004,-1.98218030888311e+001,-8.51949725927812e-001

6.23331663728396e+004,-1.98218144298553e+001,-8.63841133018380e-001

6.32033049490698e+004,-1.98218260893256e+001,-8.75898479977905e-001

6.40855902071694e+004,-1.98218380761723e+001,-8.88124080785628e-001

6.49801917084985e+004,-1.98218503995757e+001,-9.00520281618398e-001

6.58872813814055e+004,-1.98218630689724e+001,-9.13089461296980e-001

6.68070335542691e+004,-1.98218760940634e+001,-9.25834031736352e-001

6.77396249890018e+004,-1.98218894848207e+001,-9.38756438402385e-001

6.86852349150199e+004,-1.98219032514950e+001,-9.51859160777384e-001

6.96440450636895e+004,-1.98219174046236e+001,-9.65144712827328e-001

7.06162397032520e+004,-1.98219319550383e+001,-9.78615643479662e-001

7.16020056742374e+004,-1.98219469138734e+001,-9.92274537104651e-001

7.26015324253724e+004,-1.98219622925745e+001,-1.00612401400497e+000

7.36150120499896e+004,-1.98219781029066e+001,-1.02016673091145e+000

7.46426393229441e+004,-1.98219943569636e+001,-1.03440538148364e+000

7.56846117380472e+004,-1.98220110671767e+001,-1.04884269682120e+000

7.67411295460207e+004,-1.98220282463244e+001,-1.06348144597778e+000

7.78123957929823e+004,-1.98220459075417e+001,-1.07832443648466e+000

7.88986163594682e+004,-1.98220640643302e+001,-1.09337451488014e+000

7.99999999999995e+004,-1.98220827305680e+001,-1.10863456724613e+000

8.11167583832018e+004,-1.98221019205207e+001,-1.12410751975186e+000

8.22491061324848e+004,-1.98221216488514e+001,-1.13979633920658e+000

8.33972608672892e+004,-1.98221419306319e+001,-1.15570403361629e+000

8.45614432449099e+004,-1.98221627813545e+001,-1.17183365275036e+000

8.57418770029029e+004,-1.98221842169429e+001,-1.18818828871574e+000

8.69387890020841e+004,-1.98222062537644e+001,-1.20477107653708e+000

8.81524092701283e+004,-1.98222289086425e+001,-1.22158519474598e+000

8.93829710457770e+004,-1.98222521988689e+001,-1.23863386597732e+000

9.06307108236633e+004,-1.98222761422167e+001,-1.25592035757460e+000

9.18958683997622e+004,-1.98223007569538e+001,-1.27344798220118e+000

9.31786869174758e+004,-1.98223260618561e+001,-1.29122009846209e+000

9.44794129143618e+004,-1.98223520762219e+001,-1.30924011153168e+000

9.57982963695136e+004,-1.98223788198862e+001,-1.32751147379109e+000

9.71355907516031e+004,-1.98224063132352e+001,-1.34603768547341e+000

9.84915530675926e+004,-1.98224345772216e+001,-1.36482229531807e+000

9.98664439121282e+004,-1.98224636333803e+001,-1.38386890123207e+000

1.01260527517622e+005,-1.98224935038442e+001,-1.40318115096131e+000

1.02674071805032e+005,-1.98225242113606e+001,-1.42276274277109e+000

1.04107348435354e+005,-1.98225557793082e+001,-1.44261742613285e+000

1.05560632861831e+005,-1.98225882317139e+001,-1.46274900242433e+000

1.07034204382888e+005,-1.98226215932712e+001,-1.48316132563259e+000

1.08528346195813e+005,-1.98226558893582e+001,-1.50385830307267e+000

1.10043345451179e+005,-1.98226911460559e+001,-1.52484389611036e+000

1.11579493308032e+005,-1.98227273901679e+001,-1.54612212089722e+000

1.13137084989847e+005,-1.98227646492399e+001,-1.56769704911418e+000

1.14716419841265e+005,-1.98228029515799e+001,-1.58957280872443e+000

1.16317801385624e+005,-1.98228423262789e+001,-1.61175358473484e+000

1.17941537383287e+005,-1.98228828032325e+001,-1.63424361997094e+000

1.19587939890794e+005,-1.98229244131623e+001,-1.65704721585707e+000

1.21257325320831e+005,-1.98229671876386e+001,-1.68016873320908e+000

1.22950014503040e+005,-1.98230111591037e+001,-1.70361259303566e+000

1.24666332745679e+005,-1.98230563608949e+001,-1.72738327735250e+000

1.26406609898139e+005,-1.98231028272690e+001,-1.75148533000266e+000

1.28171180414339e+005,-1.98231505934275e+001,-1.77592335749060e+000

1.29960383416997e+005,-1.98231996955416e+001,-1.80070202982456e+000

1.31774562762811e+005,-1.98232501707787e+001,-1.82582608136991e+000

1.33614067108538e+005,-1.98233020573290e+001,-1.85130031171553e+000

1.35479249978003e+005,-1.98233553944333e+001,-1.87712958654517e+000

1.37370469830040e+005,-1.98234102224111e+001,-1.90331883852687e+000

1.39288090127379e+005,-1.98234665826893e+001,-1.92987306820660e+000

1.41232479406504e+005,-1.98235245178327e+001,-1.95679734491751e+000

1.43204011348474e+005,-1.98235840715733e+001,-1.98409680769885e+000

1.45203064850745e+005,-1.98236452888425e+001,-2.01177666622440e+000

1.47230024099979e+005,-1.98237082158029e+001,-2.03984220174484e+000

1.49285278645888e+005,-1.98237728998808e+001,-2.06829876803967e+000

1.51369223476094e+005,-1.98238393898000e+001,-2.09715179238153e+000

1.53482259092041e+005,-1.98239077356166e+001,-2.12640677651153e+000

1.55624791585964e+005,-1.98239779887539e+001,-2.15606929762664e+000

1.57797232718936e+005,-1.98240502020391e+001,-2.18614500937801e+000

1.59999999999999e+005,-1.98241244297399e+001,-2.21663964288283e+000

1.62233516766403e+005,-1.98242007276032e+001,-2.24755900774520e+000

1.64498212264969e+005,-1.98242791528936e+001,-2.27890899309273e+000

1.66794521734578e+005,-1.98243597644335e+001,-2.31069556862193e+000

1.69122886489819e+005,-1.98244426226440e+001,-2.34292478565773e+000

1.71483754005805e+005,-1.98245277895871e+001,-2.37560277822419e+000

1.73877578004168e+005,-1.98246153290083e+001,-2.40873576412832e+000

1.76304818540256e+005,-1.98247053063806e+001,-2.44233004605579e+000

1.78765942091554e+005,-1.98247977889498e+001,-2.47639201267948e+000

1.81261421647326e+005,-1.98248928457802e+001,-2.51092813978042e+000

1.83791736799524e+005,-1.98249905478024e+001,-2.54594499138079e+000

1.86357373834951e+005,-1.98250909678611e+001,-2.58144922089094e+000

1.88958825828723e+005,-1.98251941807647e+001,-2.61744757226817e+000

1.91596592739027e+005,-1.98253002633361e+001,-2.65394688118906e+000

1.94271181503206e+005,-1.98254092944643e+001,-2.69095407623366e+000

1.96983106135185e+005,-1.98255213551575e+001,-2.72847618008400e+000

1.99732887824256e+005,-1.98256365285973e+001,-2.76652031073440e+000

2.02521055035243e+005,-1.98257549001944e+001,-2.80509368271634e+000

2.05348143610063e+005,-1.98258765576448e+001,-2.84420360833488e+000

2.08214696870707e+005,-1.98260015909884e+001,-2.88385749891945e+000

2.11121265723661e+005,-1.98261300926680e+001,-2.92406286608833e+000

2.14068408765776e+005,-1.98262621575899e+001,-2.96482732302436e+000

2.17056692391625e+005,-1.98263978831862e+001,-3.00615858576648e+000

2.20086690902357e+005,-1.98265373694780e+001,-3.04806447451358e+000

2.23158986616063e+005,-1.98266807191400e+001,-3.09055291494198e+000

2.26274169979693e+005,-1.98268280375667e+001,-3.13363193953653e+000

2.29432839682530e+005,-1.98269794329403e+001,-3.17730968893467e+000

2.32635602771247e+005,-1.98271350162993e+001,-3.22159441328607e+000

2.35883074766574e+005,-1.98272949016093e+001,-3.26649447362311e+000

2.39175879781588e+005,-1.98274592058347e+001,-3.31201834324791e+000

2.42514650641661e+005,-1.98276280490124e+001,-3.35817460913105e+000

2.45900029006080e+005,-1.98278015543266e+001,-3.40497197332551e+000

2.49332665491357e+005,-1.98279798481854e+001,-3.45241925439339e+000

2.52813219796278e+005,-1.98281630602989e+001,-3.50052538884739e+000

2.56342360828676e+005,-1.98283513237588e+001,-3.54929943260570e+000

2.59920766833993e+005,-1.98285447751195e+001,-3.59875056246080e+000

2.63549125525621e+005,-1.98287435544810e+001,-3.64888807756337e+000

2.67228134217075e+005,-1.98289478055733e+001,-3.69972140091829e+000

2.70958499956006e+005,-1.98291576758427e+001,-3.75126008089667e+000

2.74740939660078e+005,-1.98293733165388e+001,-3.80351379276067e+000

2.78576180254757e+005,-1.98295948828045e+001,-3.85649234020355e+000

2.82464958813007e+005,-1.98298225337665e+001,-3.91020565690353e+000

2.86408022696948e+005,-1.98300564326283e+001,-3.96466380809087e+000

2.90406129701488e+005,-1.98302967467643e+001,-4.01987699213139e+000

2.94460048199957e+005,-1.98305436478157e+001,-4.07585554212252e+000

2.98570557291775e+005,-1.98307973117883e+001,-4.13260992750521e+000

3.02738446952187e+005,-1.98310579191519e+001,-4.19015075568938e+000

3.06964518184081e+005,-1.98313256549414e+001,-4.24848877369409e+000

3.11249583171928e+005,-1.98316007088594e+001,-4.30763486980279e+000

3.15594465437872e+005,-1.98318832753805e+001,-4.36760007523337e+000

3.19999999999997e+005,-1.98321735538582e+001,-4.42839556582232e+000

3.24467033532806e+005,-1.98324717486319e+001,-4.49003266372507e+000

3.28996424529938e+005,-1.98327780691368e+001,-4.55252283913003e+000

3.33589043469155e+005,-1.98330927300156e+001,-4.61587771198853e+000

3.38245772979638e+005,-1.98334159512308e+001,-4.68010905376092e+000

3.42967508011610e+005,-1.98337479581795e+001,-4.74522878917664e+000

3.47755156008335e+005,-1.98340889818102e+001,-4.81124899801042e+000

3.52609637080511e+005,-1.98344392587403e+001,-4.87818191687523e+000

3.57531884183106e+005,-1.98347990313759e+001,-4.94603994103025e+000

3.62522843294651e+005,-1.98351685480332e+001,-5.01483562620589e+000

3.67583473599047e+005,-1.98355480630618e+001,-5.08458169044378e+000

3.72714747669902e+005,-1.98359378369686e+001,-5.15529101595633e+000

3.77917651657445e+005,-1.98363381365448e+001,-5.22697665100050e+000

3.83193185478053e+005,-1.98367492349933e+001,-5.29965181176994e+000

3.88542363006410e+005,-1.98371714120584e+001,-5.37332988430617e+000

3.93966212270369e+005,-1.98376049541567e+001,-5.44802442642585e+000

3.99465775648511e+005,-1.98380501545100e+001,-5.52374916966740e+000

4.05042110070485e+005,-1.98385073132796e+001,-5.60051802125632e+000

4.10696287220124e+005,-1.98389767377014e+001,-5.67834506609061e+000

4.16429393741414e+005,-1.98394587422240e+001,-5.75724456874463e+000

4.22242531447321e+005,-1.98399536486473e+001,-5.83723097549453e+000

4.28136817531551e+005,-1.98404617862628e+001,-5.91831891636403e+000

4.34113384783250e+005,-1.98409834919957e+001,-6.00052320719195e+000

4.40173381804713e+005,-1.98415191105479e+001,-6.08385885172154e+000

4.46317973232124e+005,-1.98420689945437e+001,-6.16834104371339e+000

4.52548339959385e+005,-1.98426335046756e+001,-6.25398516908118e+000

4.58865679365059e+005,-1.98432130098527e+001,-6.34080680805249e+000

4.65271205542494e+005,-1.98438078873498e+001,-6.42882173735432e+000

4.71766149533147e+005,-1.98444185229591e+001,-6.51804593242473e+000

4.78351759563174e+005,-1.98450453111423e+001,-6.60849556965208e+000

4.85029301283321e+005,-1.98456886551849e+001,-6.70018702864153e+000

4.91800058012158e+005,-1.98463489673523e+001,-6.79313689451068e+000

4.98665330982714e+005,-1.98470266690471e+001,-6.88736196021597e+000

5.05626439592555e+005,-1.98477221909681e+001,-6.98287922890953e+000

5.12684721657352e+005,-1.98484359732717e+001,-7.07970591632837e+000

5.19841533667984e+005,-1.98491684657344e+001,-7.17785945321813e+000

5.27098251051240e+005,-1.98499201279172e+001,-7.27735748779105e+000

5.34456268434150e+005,-1.98506914293329e+001,-7.37821788821972e+000

5.41916999912011e+005,-1.98514828496140e+001,-7.48045874516975e+000

