Freq.,VOut,OutRef

1.00000000000000e+004,-1.48517365847028e+001,-1.16116860151491e-001

1.01395947979003e+004,-1.48517366688233e+001,-1.17737789438723e-001

1.02811382665607e+004,-1.48517367553086e+001,-1.19381345985088e-001

1.04246576084112e+004,-1.48517368442252e+001,-1.21047845651276e-001

1.05701804056138e+004,-1.48517369356416e+001,-1.22737608708673e-001

1.07177346253629e+004,-1.48517370296278e+001,-1.24450959899480e-001

1.08673486252606e+004,-1.48517371262563e+001,-1.26188228496826e-001

1.10190511587661e+004,-1.48517372256013e+001,-1.27949748372961e-001

1.11728713807222e+004,-1.48517373277392e+001,-1.29735858058277e-001

1.13288388529580e+004,-1.48517374327483e+001,-1.31546900811423e-001

1.14869835499703e+004,-1.48517375407096e+001,-1.33383224679502e-001

1.16473358646846e+004,-1.48517376517058e+001,-1.35245182571029e-001

1.18099266142953e+004,-1.48517377658227e+001,-1.37133132316354e-001

1.19747870461893e+004,-1.48517378831474e+001,-1.39047436747116e-001

1.21419488439505e+004,-1.48517380037706e+001,-1.40988463754230e-001

1.23114441334492e+004,-1.48517381277847e+001,-1.42956586366868e-001

1.24833054890161e+004,-1.48517382552851e+001,-1.44952182819826e-001

1.26575659397028e+004,-1.48517383863698e+001,-1.46975636629295e-001

1.28342589756290e+004,-1.48517385211398e+001,-1.49027336661387e-001

1.30134185544193e+004,-1.48517386596982e+001,-1.51107677216099e-001

1.31950791077289e+004,-1.48517388021519e+001,-1.53217058091204e-001

1.33792755478611e+004,-1.48517389486104e+001,-1.55355884669358e-001

1.35660432744767e+004,-1.48517390991861e+001,-1.57524567990537e-001

1.37554181813974e+004,-1.48517392539946e+001,-1.59723524833158e-001

1.39474366635040e+004,-1.48517394131554e+001,-1.61953177790707e-001

1.41421356237309e+004,-1.48517395767903e+001,-1.64213955359425e-001

1.43395524801583e+004,-1.48517397450254e+001,-1.66506292013148e-001

1.45397251732031e+004,-1.48517399179897e+001,-1.68830628294087e-001

1.47426921729110e+004,-1.48517400958165e+001,-1.71187410889886e-001

1.49484924863494e+004,-1.48517402786424e+001,-1.73577092726103e-001

1.51571656651040e+004,-1.48517404666076e+001,-1.76000133050333e-001

1.53687518128801e+004,-1.48517406598569e+001,-1.78456997519222e-001

1.55832915932100e+004,-1.48517408585388e+001,-1.80948158290305e-001

1.58008262372675e+004,-1.48517410628059e+001,-1.83474094112064e-001

1.60213975517924e+004,-1.48517412728154e+001,-1.86035290413578e-001

1.62450479271247e+004,-1.48517414887283e+001,-1.88632239403334e-001

1.64718203453514e+004,-1.48517417107109e+001,-1.91265440158089e-001

1.67017583885674e+004,-1.48517419389336e+001,-1.93935398720863e-001

1.69349062472505e+004,-1.48517421735719e+001,-1.96642628197871e-001

1.71713087287550e+004,-1.48517424148062e+001,-1.99387648858991e-001

1.74110112659224e+004,-1.48517426628220e+001,-2.02170988234203e-001

1.76540599258131e+004,-1.48517429178095e+001,-2.04993181220394e-001

1.79005014185594e+004,-1.48517431799650e+001,-2.07854770176943e-001

1.81503831063432e+004,-1.48517434494898e+001,-2.10756305036044e-001

1.84037530124975e+004,-1.48517437265912e+001,-2.13698343404061e-001

1.86606598307361e+004,-1.48517440114821e+001,-2.16681450671441e-001

1.89211529345119e+004,-1.48517443043813e+001,-2.19706200122001e-001

1.91852823865052e+004,-1.48517446055141e+001,-2.22773173039295e-001

1.94530989482457e+004,-1.48517449151118e+001,-2.25882958821133e-001

1.97246540898671e+004,-1.48517452334124e+001,-2.29036155092738e-001

1.99999999999999e+004,-1.48517455606603e+001,-2.32233367821383e-001

2.02791895958005e+004,-1.48517458971072e+001,-2.35475211429871e-001

2.05622765331213e+004,-1.48517462430115e+001,-2.38762308921172e-001

2.08493152168224e+004,-1.48517465986393e+001,-2.42095291988866e-001

2.11403608112276e+004,-1.48517469642634e+001,-2.45474801149744e-001

2.14354692507258e+004,-1.48517473401651e+001,-2.48901485855352e-001

2.17346972505211e+004,-1.48517477266332e+001,-2.52376004625851e-001

2.20381023175322e+004,-1.48517481239647e+001,-2.55899025169840e-001

2.23457427614443e+004,-1.48517485324647e+001,-2.59471224518605e-001

2.26576777059159e+004,-1.48517489524473e+001,-2.63093289151294e-001

2.29739670999406e+004,-1.48517493842351e+001,-2.66765915128731e-001

2.32946717293690e+004,-1.48517498281598e+001,-2.70489808227608e-001

2.36198532285905e+004,-1.48517502845629e+001,-2.74265684074097e-001

2.39495740923785e+004,-1.48517507537945e+001,-2.78094268285706e-001

2.42838976879009e+004,-1.48517512362154e+001,-2.81976296604137e-001

2.46228882668982e+004,-1.48517517321963e+001,-2.85912515042141e-001

2.49666109780322e+004,-1.48517522421182e+001,-2.89903680024126e-001

2.53151318794055e+004,-1.48517527663730e+001,-2.93950558531688e-001

2.56685179512580e+004,-1.48517533053632e+001,-2.98053928251921e-001

2.60268371088386e+004,-1.48517538595032e+001,-3.02214577725720e-001

2.63901582154578e+004,-1.48517544292184e+001,-3.06433306500115e-001

2.67585510957221e+004,-1.48517550149467e+001,-3.10710925280416e-001

2.71320865489533e+004,-1.48517556171380e+001,-3.15048256087749e-001

2.75108363627948e+004,-1.48517562362549e+001,-3.19446132415120e-001

2.78948733270080e+004,-1.48517568727730e+001,-3.23905399388529e-001

2.82842712474618e+004,-1.48517575271814e+001,-3.28426913929418e-001

2.86791049603164e+004,-1.48517581999825e+001,-3.33011544918942e-001

2.90794503464061e+004,-1.48517588916933e+001,-3.37660173364109e-001

2.94853843458219e+004,-1.48517596028451e+001,-3.42373692568099e-001

2.98969849726987e+004,-1.48517603339841e+001,-3.47153008301223e-001

3.03143313302078e+004,-1.48517610856719e+001,-3.51999038973895e-001

3.07375036257601e+004,-1.48517618584858e+001,-3.56912715815793e-001

3.11665831864199e+004,-1.48517626530195e+001,-3.61894983050102e-001

3.16016524745350e+004,-1.48517634698830e+001,-3.66946798080744e-001

3.20427951035848e+004,-1.48517643097038e+001,-3.72069131670180e-001

3.24900958542493e+004,-1.48517651731268e+001,-3.77262968129937e-001

3.29436406907028e+004,-1.48517660608152e+001,-3.82529305506812e-001

3.34035167771346e+004,-1.48517669734505e+001,-3.87869155778446e-001

3.38698124945009e+004,-1.48517679117337e+001,-3.93283545041903e-001

3.43426174575100e+004,-1.48517688763852e+001,-3.98773513715684e-001

3.48220225318448e+004,-1.48517698681457e+001,-4.04340116736275e-001

3.53081198516260e+004,-1.48517708877768e+001,-4.09984423762532e-001

3.58010028371187e+004,-1.48517719360613e+001,-4.15707519379534e-001

3.63007662126863e+004,-1.48517730138041e+001,-4.21510503308115e-001

3.68075060249948e+004,-1.48517741218327e+001,-4.27394490614958e-001

3.73213196614721e+004,-1.48517752609976e+001,-4.33360611926860e-001

3.78423058690237e+004,-1.48517764321735e+001,-4.39410013647309e-001

3.83705647730104e+004,-1.48517776362594e+001,-4.45543858177580e-001

3.89061978964912e+004,-1.48517788741796e+001,-4.51763324138727e-001

3.94493081797342e+004,-1.48517801468844e+001,-4.58069606598240e-001

3.99999999999998e+004,-1.48517814553505e+001,-4.64463917299848e-001

4.05583791916010e+004,-1.48517828005826e+001,-4.70947484892825e-001

4.11245530662425e+004,-1.48517841836128e+001,-4.77521555173858e-001

4.16986304336447e+004,-1.48517856055026e+001,-4.84187391320237e-001

4.22807216224550e+004,-1.48517870673433e+001,-4.90946274134560e-001

4.28709385014515e+004,-1.48517885702566e+001,-4.97799502290962e-001

4.34693945010421e+004,-1.48517901153960e+001,-5.04748392582420e-001

4.40762046350642e+004,-1.48517917039468e+001,-5.11794280176464e-001

4.46914855228886e+004,-1.48517933371281e+001,-5.18938518866085e-001

4.53153554118317e+004,-1.48517950161928e+001,-5.26182481335558e-001

4.59479341998812e+004,-1.48517967424291e+001,-5.33527559419289e-001

4.65893434587380e+004,-1.48517985171613e+001,-5.40975164369952e-001

4.72397064571810e+004,-1.48518003417508e+001,-5.48526727128560e-001

4.78991481847569e+004,-1.48518022175971e+001,-5.56183698601513e-001

4.85677953758016e+004,-1.48518041461391e+001,-5.63947549935219e-001

4.92457765337964e+004,-1.48518061288558e+001,-5.71819772799311e-001

4.99332219560642e+004,-1.48518081672677e+001,-5.79801879675046e-001

5.06302637588109e+004,-1.48518102629381e+001,-5.87895404139853e-001

5.13370359025159e+004,-1.48518124174740e+001,-5.96101901167841e-001

5.20536742176771e+004,-1.48518146325272e+001,-6.04422947421992e-001

5.27803164309155e+004,-1.48518169097960e+001,-6.12860141561572e-001

5.35171021914442e+004,-1.48518192510263e+001,-6.21415104542148e-001

5.42641730979066e+004,-1.48518216580128e+001,-6.30089479932930e-001

5.50216727255895e+004,-1.48518241326004e+001,-6.38884934228040e-001

5.57897466540159e+004,-1.48518266766858e+001,-6.47803157164266e-001

5.65685424949235e+004,-1.48518292922187e+001,-6.56845862049554e-001

5.73582099206328e+004,-1.48518319812034e+001,-6.66014786086457e-001

5.81589006928121e+004,-1.48518347457004e+001,-6.75311690707727e-001

5.89707686916437e+004,-1.48518375878276e+001,-6.84738361912830e-001

5.97939699453972e+004,-1.48518405097625e+001,-6.94296610608916e-001

6.06286626604156e+004,-1.48518435137432e+001,-7.03988272960235e-001

6.14750072515201e+004,-1.48518466020709e+001,-7.13815210735946e-001

6.23331663728396e+004,-1.48518497771105e+001,-7.23779311670496e-001

6.32033049490698e+004,-1.48518530412936e+001,-7.33882489821708e-001

6.40855902071694e+004,-1.48518563971195e+001,-7.44126685939183e-001

6.49801917084985e+004,-1.48518598471576e+001,-7.54513867833830e-001

6.58872813814055e+004,-1.48518633940488e+001,-7.65046030757784e-001

6.68070335542691e+004,-1.48518670405082e+001,-7.75725197781226e-001

6.77396249890018e+004,-1.48518707893266e+001,-7.86553420183688e-001

6.86852349150199e+004,-1.48518746433726e+001,-7.97532777844873e-001

6.96440450636895e+004,-1.48518786055953e+001,-8.08665379641723e-001

7.06162397032520e+004,-1.48518826790258e+001,-8.19953363852654e-001

7.16020056742374e+004,-1.48518868667803e+001,-8.31398898565883e-001

7.26015324253724e+004,-1.48518911720615e+001,-8.43004182094688e-001

7.36150120499896e+004,-1.48518955981619e+001,-8.54771443396269e-001

7.46426393229441e+004,-1.48519001484657e+001,-8.66702942498712e-001

7.56846117380472e+004,-1.48519048264516e+001,-8.78800970933643e-001

7.67411295460207e+004,-1.48519096356954e+001,-8.91067852171764e-001

7.78123957929823e+004,-1.48519145798726e+001,-9.03505942068740e-001

7.88986163594682e+004,-1.48519196627610e+001,-9.16117629314204e-001

7.99999999999995e+004,-1.48519248882442e+001,-9.28905335887822e-001

8.11167583832018e+004,-1.48519302603136e+001,-9.41871517523155e-001

8.22491061324848e+004,-1.48519357830721e+001,-9.55018664174150e-001

8.33972608672892e+004,-1.48519414607366e+001,-9.68349300492214e-001

8.45614432449099e+004,-1.48519472976420e+001,-9.81865986307076e-001

8.57418770029029e+004,-1.48519532982433e+001,-9.95571317115802e-001

8.69387890020841e+004,-1.48519594671200e+001,-1.00946792457664e+000

8.81524092701283e+004,-1.48519658089788e+001,-1.02355847701312e+000

8.93829710457770e+004,-1.48519723286574e+001,-1.03784567992063e+000

9.06307108236633e+004,-1.48519790311281e+001,-1.05233227648311e+000

9.18958683997622e+004,-1.48519859215016e+001,-1.06702104809615e+000

9.31786869174758e+004,-1.48519930050304e+001,-1.08191481489624e+000

9.44794129143618e+004,-1.48520002871130e+001,-1.09701643629964e+000

9.57982963695136e+004,-1.48520077732982e+001,-1.11232881154350e+000

9.71355907516031e+004,-1.48520154692885e+001,-1.12785488024278e+000

9.84915530675926e+004,-1.48520233809450e+001,-1.14359762294479e+000

9.98664439121282e+004,-1.48520315142913e+001,-1.15956006170090e+000

1.01260527517622e+005,-1.48520398755183e+001,-1.17574526063828e+000

1.02674071805032e+005,-1.48520484709882e+001,-1.19215632654470e+000

1.04107348435354e+005,-1.48520573072401e+001,-1.20879640945803e+000

1.05560632861831e+005,-1.48520663909939e+001,-1.22566870326562e+000

1.07034204382888e+005,-1.48520757291557e+001,-1.24277644631207e+000

1.08528346195813e+005,-1.48520853288231e+001,-1.26012292201314e+000

1.10043345451179e+005,-1.48520951972898e+001,-1.27771145947993e+000

1.11579493308032e+005,-1.48521053420514e+001,-1.29554543415131e+000

1.13137084989847e+005,-1.48521157708109e+001,-1.31362826843434e+000

1.14716419841265e+005,-1.48521264914839e+001,-1.33196343235409e+000

1.16317801385624e+005,-1.48521375122050e+001,-1.35055444421089e+000

1.17941537383287e+005,-1.48521488413333e+001,-1.36940487124850e+000

1.19587939890794e+005,-1.48521604874585e+001,-1.38851833032957e+000

1.21257325320831e+005,-1.48521724594073e+001,-1.40789848862159e+000

1.22950014503040e+005,-1.48521847662499e+001,-1.42754906429147e+000

1.24666332745679e+005,-1.48521974173063e+001,-1.44747382720882e+000

1.26406609898139e+005,-1.48522104221531e+001,-1.46767659965986e+000

1.28171180414339e+005,-1.48522237906305e+001,-1.48816125707181e+000

1.29960383416997e+005,-1.48522375328498e+001,-1.50893172874283e+000

1.31774562762811e+005,-1.48522516591995e+001,-1.52999199858857e+000

1.33614067108538e+005,-1.48522661803542e+001,-1.55134610589170e+000

1.35479249978003e+005,-1.48522811072812e+001,-1.57299814606660e+000

1.37370469830040e+005,-1.48522964512489e+001,-1.59495227143209e+000

1.39288090127379e+005,-1.48523122238347e+001,-1.61721269199488e+000

1.41232479406504e+005,-1.48523284369330e+001,-1.63978367624339e+000

1.43204011348474e+005,-1.48523451027641e+001,-1.66266955195338e+000

1.45203064850745e+005,-1.48523622338826e+001,-1.68587470700233e+000

1.47230024099979e+005,-1.48523798431864e+001,-1.70940359019616e+000

1.49285278645888e+005,-1.48523979439256e+001,-1.73326071210709e+000

1.51369223476094e+005,-1.48524165497122e+001,-1.75745064592189e+000

1.53482259092041e+005,-1.48524356745293e+001,-1.78197802830132e+000

1.55624791585964e+005,-1.48524553327414e+001,-1.80684756025217e+000

1.57797232718936e+005,-1.48524755391036e+001,-1.83206400801035e+000

1.59999999999999e+005,-1.48524963087728e+001,-1.85763220393507e+000

1.62233516766403e+005,-1.48525176573179e+001,-1.88355704741547e+000

1.64498212264969e+005,-1.48525396007303e+001,-1.90984350578903e+000

1.66794521734578e+005,-1.48525621554356e+001,-1.93649661527322e+000

1.69122886489819e+005,-1.48525853383041e+001,-1.96352148190766e+000

1.71483754005805e+005,-1.48526091666634e+001,-1.99092328250983e+000

1.73877578004168e+005,-1.48526336583094e+001,-2.01870726564370e+000

1.76304818540256e+005,-1.48526588315188e+001,-2.04687875260000e+000

1.78765942091554e+005,-1.48526847050619e+001,-2.07544313839048e+000

1.81261421647326e+005,-1.48527112982146e+001,-2.10440589275494e+000

1.83791736799524e+005,-1.48527386307721e+001,-2.13377256118060e+000

1.86357373834951e+005,-1.48527667230619e+001,-2.16354876593608e+000

1.88958825828723e+005,-1.48527955959576e+001,-2.19374020711932e+000

1.91596592739027e+005,-1.48528252708930e+001,-2.22435266371652e+000

1.94271181503206e+005,-1.48528557698757e+001,-2.25539199467825e+000

1.96983106135185e+005,-1.48528871155028e+001,-2.28686414000717e+000

1.99732887824256e+005,-1.48529193309748e+001,-2.31877512186173e+000

2.02521055035243e+005,-1.48529524401118e+001,-2.35113104567225e+000

2.05348143610063e+005,-1.48529864673683e+001,-2.38393810127376e+000

2.08214696870707e+005,-1.48530214378496e+001,-2.41720256405220e+000

2.11121265723661e+005,-1.48530573773282e+001,-2.45093079610413e+000

2.14068408765776e+005,-1.48530943122600e+001,-2.48512924741577e+000

2.17056692391625e+005,-1.48531322698021e+001,-2.51980445705217e+000

2.20086690902357e+005,-1.48531712778293e+001,-2.55496305436517e+000

2.23158986616063e+005,-1.48532113649525e+001,-2.59061176021602e+000

2.26274169979693e+005,-1.48532525605368e+001,-2.62675738821308e+000

2.29432839682530e+005,-1.48532948947196e+001,-2.66340684596671e+000

2.32635602771247e+005,-1.48533383984298e+001,-2.70056713635878e+000

2.35883074766574e+005,-1.48533831034072e+001,-2.73824535883020e+000

2.39175879781588e+005,-1.48534290422219e+001,-2.77644871068272e+000

2.42514650641661e+005,-1.48534762482948e+001,-2.81518448840035e+000

2.45900029006080e+005,-1.48535247559175e+001,-2.85446008898483e+000

2.49332665491357e+005,-1.48535746002736e+001,-2.89428301131054e+000

2.52813219796278e+005,-1.48536258174599e+001,-2.93466085749397e+000

2.56342360828676e+005,-1.48536784445080e+001,-2.97560133428432e+000

2.59920766833993e+005,-1.48537325194066e+001,-3.01711225446833e+000

2.63549125525621e+005,-1.48537880811239e+001,-3.05920153829469e+000

2.67228134217075e+005,-1.48538451696303e+001,-3.10187721491721e+000

2.70958499956006e+005,-1.48539038259226e+001,-3.14514742385424e+000

2.74740939660078e+005,-1.48539640920465e+001,-3.18902041646902e+000

2.78576180254757e+005,-1.48540260111221e+001,-3.23350455746733e+000

2.82464958813007e+005,-1.48540896273675e+001,-3.27860832641412e+000

2.86408022696948e+005,-1.48541549861247e+001,-3.32434031927033e+000

2.90406129701488e+005,-1.48542221338844e+001,-3.37070924994888e+000

2.94460048199957e+005,-1.48542911183123e+001,-3.41772395188929e+000

2.98570557291775e+005,-1.48543619882755e+001,-3.46539337965420e+000

3.02738446952187e+005,-1.48544347938689e+001,-3.51372661054476e+000

3.06964518184081e+005,-1.48545095864426e+001,-3.56273284623634e+000

3.11249583171928e+005,-1.48545864186295e+001,-3.61242141443710e+000

3.15594465437872e+005,-1.48546653443735e+001,-3.66280177056435e+000

3.19999999999997e+005,-1.48547464189576e+001,-3.71388349944468e+000

3.24467033532806e+005,-1.48548296990331e+001,-3.76567631703538e+000

3.28996424529938e+005,-1.48549152426487e+001,-3.81819007216665e+000

3.33589043469155e+005,-1.48550031092803e+001,-3.87143474830714e+000

3.38245772979638e+005,-1.48550933598610e+001,-3.92542046535169e+000

3.42967508011610e+005,-1.48551860568115e+001,-3.98015748143139e+000

3.47755156008335e+005,-1.48552812640716e+001,-4.03565619474746e+000

3.52609637080511e+005,-1.48553790471308e+001,-4.09192714542826e+000

3.57531884183106e+005,-1.48554794730604e+001,-4.14898101741091e+000

3.62522843294651e+005,-1.48555826105455e+001,-4.20682864034573e+000

3.67583473599047e+005,-1.48556885299173e+001,-4.26548099152616e+000

3.72714747669902e+005,-1.48557973031864e+001,-4.32494919784423e+000

3.77917651657445e+005,-1.48559090040756e+001,-4.38524453777009e+000

3.83193185478053e+005,-1.48560237080534e+001,-4.44637844335808e+000

3.88542363006410e+005,-1.48561414923685e+001,-4.50836250227882e+000

3.93966212270369e+005,-1.48562624360836e+001,-4.57120845987843e+000

3.99465775648511e+005,-1.48563866201101e+001,-4.63492822126426e+000

4.05042110070485e+005,-1.48565141272433e+001,-4.69953385341784e+000

4.10696287220124e+005,-1.48566450421974e+001,-4.76503758733695e+000

4.16429393741414e+005,-1.48567794516415e+001,-4.83145182020581e+000

4.22242531447321e+005,-1.48569174442355e+001,-4.89878911759374e+000

4.28136817531551e+005,-1.48570591106658e+001,-4.96706221568447e+000

4.34113384783250e+005,-1.48572045436829e+001,-5.03628402353498e+000

4.40173381804713e+005,-1.48573538381376e+001,-5.10646762536481e+000

4.46317973232124e+005,-1.48575070910184e+001,-5.17762628287771e+000

4.52548339959385e+005,-1.48576644014892e+001,-5.24977343761452e+000

4.58865679365059e+005,-1.48578258709270e+001,-5.32292271333888e+000

4.65271205542494e+005,-1.48579916029601e+001,-5.39708791845595e+000

4.71766149533147e+005,-1.48581617035066e+001,-5.47228304846617e+000

4.78351759563174e+005,-1.48583362808132e+001,-5.54852228845156e+000

4.85029301283321e+005,-1.48585154454942e+001,-5.62582001560053e+000

4.91800058012158e+005,-1.48586993105712e+001,-5.70419080176565e+000

4.98665330982714e+005,-1.48588879915128e+001,-5.78364941606047e+000

5.05626439592555e+005,-1.48590816062746e+001,-5.86421082749391e+000

5.12684721657352e+005,-1.48592802753400e+001,-5.94589020764218e+000

5.19841533667984e+005,-1.48594841217611e+001,-6.02870293336122e+000

5.27098251051240e+005,-1.48596932711998e+001,-6.11266458953932e+000

5.34456268434150e+005,-1.48599078519700e+001,-6.19779097189078e+000

5.41916999912011e+005,-1.48601279950796e+001,-6.28409808979131e+000

