Freq.,VOut,OutRef

1.00000000000000e+004,-2.22694290261495e+001,-1.45629864548659e-001

1.01395947979003e+004,-2.22694293256960e+001,-1.47662778065489e-001

1.02811382665607e+004,-2.22694296336636e+001,-1.49724069844402e-001

1.04246576084112e+004,-2.22694299502895e+001,-1.51814136022051e-001

1.05701804056138e+004,-2.22694302758165e+001,-1.53933378270049e-001

1.07177346253629e+004,-2.22694306104953e+001,-1.56082203861819e-001

1.08673486252606e+004,-2.22694309545831e+001,-1.58261025758127e-001

1.10190511587661e+004,-2.22694313083443e+001,-1.60470262685465e-001

1.11728713807222e+004,-2.22694316720510e+001,-1.62710339212447e-001

1.13288388529580e+004,-2.22694320459825e+001,-1.64981685836868e-001

1.14869835499703e+004,-2.22694324304267e+001,-1.67284739062077e-001

1.16473358646846e+004,-2.22694328256787e+001,-1.69619941488491e-001

1.18099266142953e+004,-2.22694332320426e+001,-1.71987741892392e-001

1.19747870461893e+004,-2.22694336498306e+001,-1.74388595314917e-001

1.21419488439505e+004,-2.22694340793640e+001,-1.76822963147484e-001

1.23114441334492e+004,-2.22694345209730e+001,-1.79291313223478e-001

1.24833054890161e+004,-2.22694349749971e+001,-1.81794119906459e-001

1.26575659397028e+004,-2.22694354417851e+001,-1.84331864180907e-001

1.28342589756290e+004,-2.22694359216962e+001,-1.86905033744679e-001

1.30134185544193e+004,-2.22694364150989e+001,-1.89514123104590e-001

1.31950791077289e+004,-2.22694369223728e+001,-1.92159633668105e-001

1.33792755478611e+004,-2.22694374439076e+001,-1.94842073843837e-001

1.35660432744767e+004,-2.22694379801046e+001,-1.97561959133175e-001

1.37554181813974e+004,-2.22694385313756e+001,-2.00319812237007e-001

1.39474366635040e+004,-2.22694390981444e+001,-2.03116163151585e-001

1.41421356237309e+004,-2.22694396808468e+001,-2.05951549267710e-001

1.43395524801583e+004,-2.22694402799309e+001,-2.08826515479547e-001

1.45397251732031e+004,-2.22694408958569e+001,-2.11741614289192e-001

1.47426921729110e+004,-2.22694415290985e+001,-2.14697405905391e-001

1.49484924863494e+004,-2.22694421801422e+001,-2.17694458361963e-001

1.51571656651040e+004,-2.22694428494887e+001,-2.20733347616777e-001

1.53687518128801e+004,-2.22694435376524e+001,-2.23814657669352e-001

1.55832915932100e+004,-2.22694442451623e+001,-2.26938980670675e-001

1.58008262372675e+004,-2.22694449725624e+001,-2.30106917034719e-001

1.60213975517924e+004,-2.22694457204117e+001,-2.33319075559211e-001

1.62450479271247e+004,-2.22694464892851e+001,-2.36576073537087e-001

1.64718203453514e+004,-2.22694472797737e+001,-2.39878536877551e-001

1.67017583885674e+004,-2.22694480924850e+001,-2.43227100226973e-001

1.69349062472505e+004,-2.22694489280437e+001,-2.46622407089621e-001

1.71713087287550e+004,-2.22694497870922e+001,-2.50065109951093e-001

1.74110112659224e+004,-2.22694506702908e+001,-2.53555870403847e-001

1.76540599258131e+004,-2.22694515783183e+001,-2.57095359275705e-001

1.79005014185594e+004,-2.22694525118728e+001,-2.60684256756523e-001

1.81503831063432e+004,-2.22694534716718e+001,-2.64323252530556e-001

1.84037530124975e+004,-2.22694544584532e+001,-2.68013045907453e-001

1.86606598307361e+004,-2.22694554729754e+001,-2.71754345957894e-001

1.89211529345119e+004,-2.22694565160181e+001,-2.75547871649370e-001

1.91852823865052e+004,-2.22694575883832e+001,-2.79394351983662e-001

1.94530989482457e+004,-2.22694586908950e+001,-2.83294526136731e-001

1.97246540898671e+004,-2.22694598244009e+001,-2.87249143603134e-001

1.99999999999999e+004,-2.22694609897719e+001,-2.91258964337359e-001

2.02791895958005e+004,-2.22694621879042e+001,-2.95324758898422e-001

2.05622765331213e+004,-2.22694634197185e+001,-2.99447308601907e-001

2.08493152168224e+004,-2.22694646861616e+001,-3.03627405668954e-001

2.11403608112276e+004,-2.22694659882069e+001,-3.07865853375150e-001

2.14354692507258e+004,-2.22694673268553e+001,-3.12163466208632e-001

2.17346972505211e+004,-2.22694687031356e+001,-3.16521070023899e-001

2.20381023175322e+004,-2.22694701181058e+001,-3.20939502202099e-001

2.23457427614443e+004,-2.22694715728533e+001,-3.25419611811143e-001

2.26576777059159e+004,-2.22694730684963e+001,-3.29962259768951e-001

2.29739670999406e+004,-2.22694746061842e+001,-3.34568319007932e-001

2.32946717293690e+004,-2.22694761870991e+001,-3.39238674643806e-001

2.36198532285905e+004,-2.22694778124560e+001,-3.43974224143832e-001

2.39495740923785e+004,-2.22694794835040e+001,-3.48775877501954e-001

2.42838976879009e+004,-2.22694812015276e+001,-3.53644557410508e-001

2.46228882668982e+004,-2.22694829678472e+001,-3.58581199439285e-001

2.49666109780322e+004,-2.22694847838203e+001,-3.63586752213326e-001

2.53151318794055e+004,-2.22694866508425e+001,-3.68662177598178e-001

2.56685179512580e+004,-2.22694885703489e+001,-3.73808450880547e-001

2.60268371088386e+004,-2.22694905438147e+001,-3.79026560958470e-001

2.63901582154578e+004,-2.22694925727566e+001,-3.84317510530426e-001

2.67585510957221e+004,-2.22694946587339e+001,-3.89682316286528e-001

2.71320865489533e+004,-2.22694968033498e+001,-3.95122009105227e-001

2.75108363627948e+004,-2.22694990082523e+001,-4.00637634251614e-001

2.78948733270080e+004,-2.22695012751361e+001,-4.06230251575467e-001

2.82842712474618e+004,-2.22695036057434e+001,-4.11900935716177e-001

2.86791049603164e+004,-2.22695060018650e+001,-4.17650776310694e-001

2.90794503464061e+004,-2.22695084653427e+001,-4.23480878198794e-001

2.94853843458219e+004,-2.22695109980693e+001,-4.29392361639227e-001

2.98969849726987e+004,-2.22695136019913e+001,-4.35386362521122e-001

3.03143313302078e+004,-2.22695162791100e+001,-4.41464032583814e-001

3.07375036257601e+004,-2.22695190314822e+001,-4.47626539638550e-001

3.11665831864199e+004,-2.22695218612233e+001,-4.53875067790167e-001

3.16016524745350e+004,-2.22695247705078e+001,-4.60210817666193e-001

3.20427951035848e+004,-2.22695277615712e+001,-4.66635006646575e-001

3.24900958542493e+004,-2.22695308367120e+001,-4.73148869097289e-001

3.29436406907028e+004,-2.22695339982932e+001,-4.79753656605983e-001

3.34035167771346e+004,-2.22695372487441e+001,-4.86450638224971e-001

3.38698124945009e+004,-2.22695405905624e+001,-4.93241100710970e-001

3.43426174575100e+004,-2.22695440263161e+001,-5.00126348774115e-001

3.48220225318448e+004,-2.22695475586449e+001,-5.07107705328205e-001

3.53081198516260e+004,-2.22695511902631e+001,-5.14186511743484e-001

3.58010028371187e+004,-2.22695549239611e+001,-5.21364128104204e-001

3.63007662126863e+004,-2.22695587626075e+001,-5.28641933470192e-001

3.68075060249948e+004,-2.22695627091518e+001,-5.36021326139325e-001

3.73213196614721e+004,-2.22695667666262e+001,-5.43503723916763e-001

3.78423058690237e+004,-2.22695709381481e+001,-5.51090564388331e-001

3.83705647730104e+004,-2.22695752269223e+001,-5.58783305193681e-001

3.89061978964912e+004,-2.22695796362441e+001,-5.66583424305112e-001

3.94493081797342e+004,-2.22695841695008e+001,-5.74492420314431e-001

3.99999999999998e+004,-2.22695888301751e+001,-5.82511812716738e-001

4.05583791916010e+004,-2.22695936218477e+001,-5.90643142202950e-001

4.11245530662425e+004,-2.22695985481995e+001,-5.98887970955578e-001

4.16986304336447e+004,-2.22696036130150e+001,-6.07247882946669e-001

4.22807216224550e+004,-2.22696088201851e+001,-6.15724484241652e-001

4.28709385014515e+004,-2.22696141737097e+001,-6.24319403308063e-001

4.34693945010421e+004,-2.22696196777012e+001,-6.33034291326616e-001

4.40762046350642e+004,-2.22696253363874e+001,-6.41870822507205e-001

4.46914855228886e+004,-2.22696311541149e+001,-6.50830694409854e-001

4.53153554118317e+004,-2.22696371353525e+001,-6.59915628270427e-001

4.59479341998812e+004,-2.22696432846941e+001,-6.69127369328347e-001

4.65893434587380e+004,-2.22696496068629e+001,-6.78467687164023e-001

4.72397064571810e+004,-2.22696561067147e+001,-6.87938376032953e-001

4.78991481847569e+004,-2.22696627892416e+001,-6.97541255213287e-001

4.85677953758016e+004,-2.22696696595757e+001,-7.07278169353314e-001

4.92457765337964e+004,-2.22696767229935e+001,-7.17150988821196e-001

4.99332219560642e+004,-2.22696839849192e+001,-7.27161610067954e-001

5.06302637588109e+004,-2.22696914509299e+001,-7.37311955985123e-001

5.13370359025159e+004,-2.22696991267586e+001,-7.47603976277132e-001

5.20536742176771e+004,-2.22697070182996e+001,-7.58039647831495e-001

5.27803164309155e+004,-2.22697151316127e+001,-7.68620975097193e-001

5.35171021914442e+004,-2.22697234729276e+001,-7.79349990468609e-001

5.42641730979066e+004,-2.22697320486489e+001,-7.90228754673920e-001

5.50216727255895e+004,-2.22697408653611e+001,-8.01259357169061e-001

5.57897466540159e+004,-2.22697499298330e+001,-8.12443916537762e-001

5.65685424949235e+004,-2.22697592490242e+001,-8.23784580894100e-001

5.73582099206328e+004,-2.22697688300889e+001,-8.35283528295345e-001

5.81589006928121e+004,-2.22697786803821e+001,-8.46942967157769e-001

5.89707686916437e+004,-2.22697888074657e+001,-8.58765136676955e-001

5.97939699453972e+004,-2.22697992191133e+001,-8.70752307257409e-001

6.06286626604156e+004,-2.22698099233165e+001,-8.82906780945035e-001

6.14750072515201e+004,-2.22698209282915e+001,-8.95230891866182e-001

6.23331663728396e+004,-2.22698322424848e+001,-9.07727006674254e-001

6.32033049490698e+004,-2.22698438745798e+001,-9.20397525000866e-001

6.40855902071694e+004,-2.22698558335034e+001,-9.33244879913496e-001

6.49801917084985e+004,-2.22698681284331e+001,-9.46271538380141e-001

6.58872813814055e+004,-2.22698807688035e+001,-9.59480001739460e-001

6.68070335542691e+004,-2.22698937643141e+001,-9.72872806178182e-001

6.77396249890018e+004,-2.22699071249361e+001,-9.86452523213781e-001

6.86852349150199e+004,-2.22699208609205e+001,-1.00022176018522e+000

6.96440450636895e+004,-2.22699349828055e+001,-1.01418316075022e+000

7.06162397032520e+004,-2.22699495014250e+001,-1.02833940538786e+000

7.16020056742374e+004,-2.22699644279163e+001,-1.04269321191038e+000

7.26015324253724e+004,-2.22699797737292e+001,-1.05724733597976e+000

7.36150120499896e+004,-2.22699955506343e+001,-1.07200457163155e+000

7.46426393229441e+004,-2.22700117707320e+001,-1.08696775180968e+000

7.56846117380472e+004,-2.22700284464619e+001,-1.10213974890222e+000

7.67411295460207e+004,-2.22700455906121e+001,-1.11752347528918e+000

7.78123957929823e+004,-2.22700632163291e+001,-1.13312188389650e+000

7.88986163594682e+004,-2.22700813371277e+001,-1.14893796875703e+000

7.99999999999995e+004,-2.22700999669012e+001,-1.16497476557943e+000

8.11167583832018e+004,-2.22701191199321e+001,-1.18123535232576e+000

8.22491061324848e+004,-2.22701388109030e+001,-1.19772284979509e+000

8.33972608672892e+004,-2.22701590549077e+001,-1.21444042221611e+000

8.45614432449099e+004,-2.22701798674623e+001,-1.23139127784925e+000

8.57418770029029e+004,-2.22702012645179e+001,-1.24857866959258e+000

8.69387890020841e+004,-2.22702232624718e+001,-1.26600589560147e+000

8.81524092701283e+004,-2.22702458781802e+001,-1.28367629991345e+000

8.93829710457770e+004,-2.22702691289714e+001,-1.30159327308060e+000

9.06307108236633e+004,-2.22702930326586e+001,-1.31976025281248e+000

9.18958683997622e+004,-2.22703176075530e+001,-1.33818072462883e+000

9.31786869174758e+004,-2.22703428724787e+001,-1.35685822251691e+000

9.44794129143618e+004,-2.22703688467861e+001,-1.37579632960207e+000

9.57982963695136e+004,-2.22703955503669e+001,-1.39499867882481e+000

9.71355907516031e+004,-2.22704230036689e+001,-1.41446895362745e+000

9.84915530675926e+004,-2.22704512277120e+001,-1.43421088865111e+000

9.98664439121282e+004,-2.22704802441037e+001,-1.45422827043932e+000

1.01260527517622e+005,-2.22705100750553e+001,-1.47452493815557e+000

1.02674071805032e+005,-2.22705407433991e+001,-1.49510478430565e+000

1.04107348435354e+005,-2.22705722726054e+001,-1.51597175547248e+000

1.05560632861831e+005,-2.22706046868003e+001,-1.53712985306033e+000

1.07034204382888e+005,-2.22706380107837e+001,-1.55858313404932e+000

1.08528346195813e+005,-2.22706722700485e+001,-1.58033571175767e+000

1.10043345451179e+005,-2.22707074907992e+001,-1.60239175661759e+000

1.11579493308032e+005,-2.22707436999722e+001,-1.62475549695914e+000

1.13137084989847e+005,-2.22707809252555e+001,-1.64743121980530e+000

1.14716419841265e+005,-2.22708191951103e+001,-1.67042327167654e+000

1.16317801385624e+005,-2.22708585387916e+001,-1.69373605940854e+000

1.17941537383287e+005,-2.22708989863707e+001,-1.71737405097761e+000

1.19587939890794e+005,-2.22709405687578e+001,-1.74134177633921e+000

1.21257325320831e+005,-2.22709833177248e+001,-1.76564382827718e+000

1.22950014503040e+005,-2.22710272659297e+001,-1.79028486326310e+000

1.24666332745679e+005,-2.22710724469406e+001,-1.81526960232785e+000

1.26406609898139e+005,-2.22711188952611e+001,-1.84060283194489e+000

1.28171180414339e+005,-2.22711666463561e+001,-1.86628940492427e+000

1.29960383416997e+005,-2.22712157366783e+001,-1.89233424131870e+000

1.31774562762811e+005,-2.22712662036955e+001,-1.91874232934210e+000

1.33614067108538e+005,-2.22713180859186e+001,-1.94551872629805e+000

1.35479249978003e+005,-2.22713714229302e+001,-1.97266855952381e+000

1.37370469830040e+005,-2.22714262554145e+001,-2.00019702734268e+000

1.39288090127379e+005,-2.22714826251870e+001,-2.02810940003196e+000

1.41232479406504e+005,-2.22715405752263e+001,-2.05641102080184e+000

1.43204011348474e+005,-2.22716001497058e+001,-2.08510730678575e+000

1.45203064850745e+005,-2.22716613940263e+001,-2.11420375004732e+000

1.47230024099979e+005,-2.22717243548501e+001,-2.14370591859557e+000

1.49285278645888e+005,-2.22717890801356e+001,-2.17361945741692e+000

1.51369223476094e+005,-2.22718556191723e+001,-2.20395008951852e+000

1.53482259092041e+005,-2.22719240226183e+001,-2.23470361698433e+000

1.55624791585964e+005,-2.22719943425368e+001,-2.26588592204712e+000

1.57797232718936e+005,-2.22720666324352e+001,-2.29750296817175e+000

1.59999999999999e+005,-2.22721409473042e+001,-2.32956080115229e+000

1.62233516766403e+005,-2.22722173436588e+001,-2.36206555022550e+000

1.64498212264969e+005,-2.22722958795794e+001,-2.39502342919516e+000

1.66794521734578e+005,-2.22723766147552e+001,-2.42844073757201e+000

1.69122886489819e+005,-2.22724596105273e+001,-2.46232386172879e+000

1.71483754005805e+005,-2.22725449299344e+001,-2.49667927606824e+000

1.73877578004168e+005,-2.22726326377586e+001,-2.53151354420583e+000

1.76304818540256e+005,-2.22727228005729e+001,-2.56683332016892e+000

1.78765942091554e+005,-2.22728154867904e+001,-2.60264534960802e+000

1.81261421647326e+005,-2.22729107667132e+001,-2.63895647102583e+000

1.83791736799524e+005,-2.22730087125849e+001,-2.67577361701901e+000

1.86357373834951e+005,-2.22731093986423e+001,-2.71310381553691e+000

1.88958825828723e+005,-2.22732129011698e+001,-2.75095419115516e+000

1.91596592739027e+005,-2.22733192985546e+001,-2.78933196636393e+000

1.94271181503206e+005,-2.22734286713440e+001,-2.82824446287296e+000

1.96983106135185e+005,-2.22735411023029e+001,-2.86769910293279e+000

1.99732887824256e+005,-2.22736566764746e+001,-2.90770341066998e+000

2.02521055035243e+005,-2.22737754812414e+001,-2.94826501343978e+000

2.05348143610063e+005,-2.22738976063881e+001,-2.98939164319527e+000

2.08214696870707e+005,-2.22740231441660e+001,-3.03109113787236e+000

2.11121265723661e+005,-2.22741521893597e+001,-3.07337144279064e+000

2.14068408765776e+005,-2.22742848393551e+001,-3.11624061207079e+000

2.17056692391625e+005,-2.22744211942083e+001,-3.15970681007169e+000

2.20086690902357e+005,-2.22745613567180e+001,-3.20377831283887e+000

2.23158986616063e+005,-2.22747054324982e+001,-3.24846350957468e+000

2.26274169979693e+005,-2.22748535300534e+001,-3.29377090412383e+000

2.29432839682530e+005,-2.22750057608562e+001,-3.33970911647530e+000

2.32635602771247e+005,-2.22751622394253e+001,-3.38628688428293e+000

2.35883074766574e+005,-2.22753230834075e+001,-3.43351306440256e+000

2.39175879781588e+005,-2.22754884136599e+001,-3.48139663444736e+000

2.42514650641661e+005,-2.22756583543358e+001,-3.52994669435978e+000

2.45900029006080e+005,-2.22758330329711e+001,-3.57917246800262e+000

2.49332665491357e+005,-2.22760125805744e+001,-3.62908330476702e+000

2.52813219796278e+005,-2.22761971317182e+001,-3.67968868119858e+000

2.56342360828676e+005,-2.22763868246331e+001,-3.73099820264203e+000

2.59920766833993e+005,-2.22765818013037e+001,-3.78302160490324e+000

2.63549125525621e+005,-2.22767822075676e+001,-3.83576875593055e+000

2.67228134217075e+005,-2.22769881932159e+001,-3.88924965751346e+000

2.70958499956006e+005,-2.22771999120973e+001,-3.94347444700078e+000

2.74740939660078e+005,-2.22774175222238e+001,-3.99845339903682e+000

2.78576180254757e+005,-2.22776411858791e+001,-4.05419692731594e+000

2.82464958813007e+005,-2.22778710697302e+001,-4.11071558635664e+000

2.86408022696948e+005,-2.22781073449413e+001,-4.16802007329421e+000

2.90406129701488e+005,-2.22783501872904e+001,-4.22612122969169e+000

2.94460048199957e+005,-2.22785997772885e+001,-4.28503004337103e+000

2.98570557291775e+005,-2.22788563003025e+001,-4.34475765026252e+000

3.02738446952187e+005,-2.22791199466799e+001,-4.40531533627358e+000

3.06964518184081e+005,-2.22793909118778e+001,-4.46671453917680e+000

3.11249583171928e+005,-2.22796693965932e+001,-4.52896685051730e+000

3.15594465437872e+005,-2.22799556068984e+001,-4.59208401753982e+000

3.19999999999997e+005,-2.22802497543777e+001,-4.65607794513538e+000

3.24467033532806e+005,-2.22805520562688e+001,-4.72096069780598e+000

3.28996424529938e+005,-2.22808627356065e+001,-4.78674450165174e+000

3.33589043469155e+005,-2.22811820213705e+001,-4.85344174637501e+000

3.38245772979638e+005,-2.22815101486360e+001,-4.92106498730552e+000

3.42967508011610e+005,-2.22818473587280e+001,-4.98962694744565e+000

3.47755156008335e+005,-2.22821938993796e+001,-5.05914051953489e+000

3.52609637080511e+005,-2.22825500248934e+001,-5.12961876813420e+000

3.57531884183106e+005,-2.22829159963063e+001,-5.20107493173124e+000

3.62522843294651e+005,-2.22832920815593e+001,-5.27352242486495e+000

3.67583473599047e+005,-2.22836785556702e+001,-5.34697484027006e+000

3.72714747669902e+005,-2.22840757009098e+001,-5.42144595104302e+000

3.77917651657445e+005,-2.22844838069837e+001,-5.49694971282628e+000

3.83193185478053e+005,-2.22849031712166e+001,-5.57350026601494e+000

3.88542363006410e+005,-2.22853340987415e+001,-5.65111193798201e+000

3.93966212270369e+005,-2.22857769026931e+001,-5.72979924532592e+000

3.99465775648511e+005,-2.22862319044056e+001,-5.80957689613598e+000

4.05042110070485e+005,-2.22866994336144e+001,-5.89045979228160e+000

4.10696287220124e+005,-2.22871798286630e+001,-5.97246303171908e+000

4.16429393741414e+005,-2.22876734367144e+001,-6.05560191082106e+000

4.22242531447321e+005,-2.22881806139663e+001,-6.13989192672645e+000

4.28136817531551e+005,-2.22887017258723e+001,-6.22534877971011e+000

4.34113384783250e+005,-2.22892371473677e+001,-6.31198837557404e+000

4.40173381804713e+005,-2.22897872630990e+001,-6.39982682806071e+000

4.46317973232124e+005,-2.22903524676608e+001,-6.48888046128500e+000

4.52548339959385e+005,-2.22909331658356e+001,-6.57916581218910e+000

4.58865679365059e+005,-2.22915297728408e+001,-6.67069963301732e+000

4.65271205542494e+005,-2.22921427145795e+001,-6.76349889381393e+000

4.71766149533147e+005,-2.22927724278981e+001,-6.85758078493939e+000

4.78351759563174e+005,-2.22934193608488e+001,-6.95296271961084e+000

4.85029301283321e+005,-2.22940839729584e+001,-7.04966233646215e+000

4.91800058012158e+005,-2.22947667355027e+001,-7.14769750212600e+000

4.98665330982714e+005,-2.22954681317870e+001,-7.24708631383720e+000

5.05626439592555e+005,-2.22961886574330e+001,-7.34784710205862e+000

5.12684721657352e+005,-2.22969288206719e+001,-7.44999843312684e+000

5.19841533667984e+005,-2.22976891426440e+001,-7.55355911192151e+000

5.27098251051240e+005,-2.22984701577049e+001,-7.65854818455501e+000

5.34456268434150e+005,-2.22992724137390e+001,-7.76498494108446e+000

5.41916999912011e+005,-2.23000964724794e+001,-7.87288891824498e+000

