Freq.,VOut,OutRef

1.00000000000000e+004,-2.71520674187894e+001,-1.94980050018942e-001

1.01395947979003e+004,-2.71520680386513e+001,-1.97701860949545e-001

1.02811382665607e+004,-2.71520686759396e+001,-2.00461666556073e-001

1.04246576084112e+004,-2.71520693311442e+001,-2.03259997208032e-001

1.05701804056138e+004,-2.71520700047687e+001,-2.06097390679230e-001

1.07177346253629e+004,-2.71520706973310e+001,-2.08974392247692e-001

1.08673486252606e+004,-2.71520714093634e+001,-2.11891554803556e-001

1.10190511587661e+004,-2.71520721414135e+001,-2.14849438952496e-001

1.11728713807222e+004,-2.71520728940437e+001,-2.17848613127844e-001

1.13288388529580e+004,-2.71520736678329e+001,-2.20889653695229e-001

1.14869835499703e+004,-2.71520744633756e+001,-2.23973145066247e-001

1.16473358646846e+004,-2.71520752812835e+001,-2.27099679808065e-001

1.18099266142953e+004,-2.71520761221855e+001,-2.30269858760258e-001

1.19747870461893e+004,-2.71520769867277e+001,-2.33484291148960e-001

1.21419488439505e+004,-2.71520778755751e+001,-2.36743594701649e-001

1.23114441334492e+004,-2.71520787894106e+001,-2.40048395770379e-001

1.24833054890161e+004,-2.71520797289367e+001,-2.43399329449064e-001

1.26575659397028e+004,-2.71520806948759e+001,-2.46797039693599e-001

1.28342589756290e+004,-2.71520816879704e+001,-2.50242179451525e-001

1.30134185544193e+004,-2.71520827089839e+001,-2.53735410780784e-001

1.31950791077289e+004,-2.71520837587010e+001,-2.57277404982632e-001

1.33792755478611e+004,-2.71520848379288e+001,-2.60868842725234e-001

1.35660432744767e+004,-2.71520859474967e+001,-2.64510414179438e-001

1.37554181813974e+004,-2.71520870882580e+001,-2.68202819146718e-001

1.39474366635040e+004,-2.71520882610892e+001,-2.71946767198539e-001

1.41421356237309e+004,-2.71520894668919e+001,-2.75742977808076e-001

1.43395524801583e+004,-2.71520907065933e+001,-2.79592180489074e-001

1.45397251732031e+004,-2.71520919811460e+001,-2.83495114940643e-001

1.47426921729110e+004,-2.71520932915300e+001,-2.87452531182052e-001

1.49484924863494e+004,-2.71520946387524e+001,-2.91465189703178e-001

1.51571656651040e+004,-2.71520960238488e+001,-2.95533861606742e-001

1.53687518128801e+004,-2.71520974478840e+001,-2.99659328757200e-001

1.55832915932100e+004,-2.71520989119525e+001,-3.03842383932267e-001

1.58008262372675e+004,-2.71521004171798e+001,-3.08083830972977e-001

1.60213975517924e+004,-2.71521019647228e+001,-3.12384484939485e-001

1.62450479271247e+004,-2.71521035557712e+001,-3.16745172267184e-001

1.64718203453514e+004,-2.71521051915479e+001,-3.21166730926765e-001

1.67017583885674e+004,-2.71521068733103e+001,-3.25650010581315e-001

1.69349062472505e+004,-2.71521086023510e+001,-3.30195872753579e-001

1.71713087287550e+004,-2.71521103799992e+001,-3.34805190989402e-001

1.74110112659224e+004,-2.71521122076211e+001,-3.39478851026088e-001

1.76540599258131e+004,-2.71521140866217e+001,-3.44217750961073e-001

1.79005014185594e+004,-2.71521160184452e+001,-3.49022801425676e-001

1.81503831063432e+004,-2.71521180045764e+001,-3.53894925761229e-001

1.84037530124975e+004,-2.71521200465421e+001,-3.58835060192795e-001

1.86606598307361e+004,-2.71521221459117e+001,-3.63844154010593e-001

1.89211529345119e+004,-2.71521243042989e+001,-3.68923169754296e-001

1.91852823865052e+004,-2.71521265233626e+001,-3.74073083394632e-001

1.94530989482457e+004,-2.71521288048085e+001,-3.79294884522739e-001

1.97246540898671e+004,-2.71521311503902e+001,-3.84589576538648e-001

1.99999999999999e+004,-2.71521335619105e+001,-3.89958176844597e-001

2.02791895958005e+004,-2.71521360412230e+001,-3.95401717040710e-001

2.05622765331213e+004,-2.71521385902332e+001,-4.00921243122289e-001

2.08493152168224e+004,-2.71521412109003e+001,-4.06517815681921e-001

2.11403608112276e+004,-2.71521439052386e+001,-4.12192510110619e-001

2.14354692507258e+004,-2.71521466753189e+001,-4.17946416805024e-001

2.17346972505211e+004,-2.71521495232702e+001,-4.23780641378997e-001

2.20381023175322e+004,-2.71521524512814e+001,-4.29696304872384e-001

2.23457427614443e+004,-2.71521554616030e+001,-4.35694543967425e-001

2.26576777059159e+004,-2.71521585565485e+001,-4.41776511208209e-001

2.29739670999406e+004,-2.71521617384967e+001,-4.47943375219347e-001

2.32946717293690e+004,-2.71521650098931e+001,-4.54196320931562e-001

2.36198532285905e+004,-2.71521683732518e+001,-4.60536549810152e-001

2.39495740923785e+004,-2.71521718311579e+001,-4.66965280081763e-001

2.42838976879009e+004,-2.71521753862688e+001,-4.73483746972265e-001

2.46228882668982e+004,-2.71521790413166e+001,-4.80093202941538e-001

2.49666109780322e+004,-2.71521827991105e+001,-4.86794917923073e-001

2.53151318794055e+004,-2.71521866625385e+001,-4.93590179568922e-001

2.56685179512580e+004,-2.71521906345696e+001,-5.00480293495855e-001

2.60268371088386e+004,-2.71521947182562e+001,-5.07466583536623e-001

2.63901582154578e+004,-2.71521989167368e+001,-5.14550391991955e-001

2.67585510957221e+004,-2.71522032332377e+001,-5.21733079890789e-001

2.71320865489533e+004,-2.71522076710763e+001,-5.29016027247346e-001

2.75108363627948e+004,-2.71522122336627e+001,-5.36400633329232e-001

2.78948733270080e+004,-2.71522169245033e+001,-5.43888316924111e-001

2.82842712474618e+004,-2.71522217472027e+001,-5.51480516611272e-001

2.86791049603164e+004,-2.71522267054669e+001,-5.59178691038846e-001

2.90794503464061e+004,-2.71522318031061e+001,-5.66984319200966e-001

2.94853843458219e+004,-2.71522370440373e+001,-5.74898900724317e-001

2.98969849726987e+004,-2.71522424322879e+001,-5.82923956151541e-001

3.03143313302078e+004,-2.71522479719983e+001,-5.91061027237207e-001

3.07375036257601e+004,-2.71522536674250e+001,-5.99311677239480e-001

3.11665831864199e+004,-2.71522595229444e+001,-6.07677491220925e-001

3.16016524745350e+004,-2.71522655430559e+001,-6.16160076351862e-001

3.20427951035848e+004,-2.71522717323851e+001,-6.24761062219304e-001

3.24900958542493e+004,-2.71522780956874e+001,-6.33482101137642e-001

3.29436406907028e+004,-2.71522846378522e+001,-6.42324868465529e-001

3.34035167771346e+004,-2.71522913639060e+001,-6.51291062926659e-001

3.38698124945009e+004,-2.71522982790166e+001,-6.60382406935569e-001

3.43426174575100e+004,-2.71523053884969e+001,-6.69600646925554e-001

3.48220225318448e+004,-2.71523126978090e+001,-6.78947553686829e-001

3.53081198516260e+004,-2.71523202125685e+001,-6.88424922699817e-001

3.58010028371187e+004,-2.71523279385489e+001,-6.98034574483373e-001

3.63007662126863e+004,-2.71523358816854e+001,-7.07778354942427e-001

3.68075060249948e+004,-2.71523440480805e+001,-7.17658135718340e-001

3.73213196614721e+004,-2.71523524440077e+001,-7.27675814549959e-001

3.78423058690237e+004,-2.71523610759167e+001,-7.37833315635929e-001

3.83705647730104e+004,-2.71523699504386e+001,-7.48132590001393e-001

3.89061978964912e+004,-2.71523790743905e+001,-7.58575615872775e-001

3.94493081797342e+004,-2.71523884547810e+001,-7.69164399055161e-001

3.99999999999998e+004,-2.71523980988158e+001,-7.79900973314743e-001

4.05583791916010e+004,-2.71524080139023e+001,-7.90787400770232e-001

4.11245530662425e+004,-2.71524182076565e+001,-8.01825772284730e-001

4.16986304336447e+004,-2.71524286879081e+001,-8.13018207865260e-001

4.22807216224550e+004,-2.71524394627067e+001,-8.24366857069084e-001

4.28709385014515e+004,-2.71524505403277e+001,-8.35873899413389e-001

4.34693945010421e+004,-2.71524619292789e+001,-8.47541544792304e-001

4.40762046350642e+004,-2.71524736383073e+001,-8.59372033897481e-001

4.46914855228886e+004,-2.71524856764052e+001,-8.71367638647391e-001

4.53153554118317e+004,-2.71524980528172e+001,-8.83530662620761e-001

4.59479341998812e+004,-2.71525107770477e+001,-8.95863441494641e-001

4.65893434587380e+004,-2.71525238588679e+001,-9.08368343492251e-001

4.72397064571810e+004,-2.71525373083232e+001,-9.21047769833332e-001

4.78991481847569e+004,-2.71525511357408e+001,-9.33904155193198e-001

4.85677953758016e+004,-2.71525653517380e+001,-9.46939968165483e-001

4.92457765337964e+004,-2.71525799672302e+001,-9.60157711734111e-001

4.99332219560642e+004,-2.71525949934389e+001,-9.73559923749730e-001

5.06302637588109e+004,-2.71526104419005e+001,-9.87149177414400e-001

5.13370359025159e+004,-2.71526263244754e+001,-1.00092808176979e+000

5.20536742176771e+004,-2.71526426533566e+001,-1.01489928219626e+000

5.27803164309155e+004,-2.71526594410793e+001,-1.02906546091483e+000

5.35171021914442e+004,-2.71526767005304e+001,-1.04342933749961e+000

5.42641730979066e+004,-2.71526944449585e+001,-1.05799366939333e+000

5.50216727255895e+004,-2.71527126879838e+001,-1.07276125243365e+000

5.57897466540159e+004,-2.71527314436086e+001,-1.08773492138414e+000

5.65685424949235e+004,-2.71527507262278e+001,-1.10291755047419e+000

5.73582099206328e+004,-2.71527705506405e+001,-1.11831205394432e+000

5.81589006928121e+004,-2.71527909320606e+001,-1.13392138660049e+000

5.89707686916437e+004,-2.71528118861288e+001,-1.14974854437559e+000

5.97939699453972e+004,-2.71528334289243e+001,-1.16579656489896e+000

6.06286626604156e+004,-2.71528555769775e+001,-1.18206852807164e+000

6.14750072515201e+004,-2.71528783472819e+001,-1.19856755665288e+000

6.23331663728396e+004,-2.71529017573079e+001,-1.21529681685029e+000

6.32033049490698e+004,-2.71529258250157e+001,-1.23225951892230e+000

6.40855902071694e+004,-2.71529505688686e+001,-1.24945891778669e+000

6.49801917084985e+004,-2.71529760078478e+001,-1.26689831363668e+000

6.58872813814055e+004,-2.71530021614666e+001,-1.28458105256553e+000

6.68070335542691e+004,-2.71530290497850e+001,-1.30251052720261e+000

6.77396249890018e+004,-2.71530566934254e+001,-1.32069017735252e+000

6.86852349150199e+004,-2.71530851135878e+001,-1.33912349064885e+000

6.96440450636895e+004,-2.71531143320667e+001,-1.35781400321162e+000

7.06162397032520e+004,-2.71531443712668e+001,-1.37676530031689e+000

7.16020056742374e+004,-2.71531752542207e+001,-1.39598101707398e+000

7.26015324253724e+004,-2.71532070046061e+001,-1.41546483911212e+000

7.36150120499896e+004,-2.71532396467640e+001,-1.43522050327613e+000

7.46426393229441e+004,-2.71532732057171e+001,-1.45525179833082e+000

7.56846117380472e+004,-2.71533077071888e+001,-1.47556256567737e+000

7.67411295460207e+004,-2.71533431776228e+001,-1.49615670007485e+000

7.78123957929823e+004,-2.71533796442031e+001,-1.51703815037648e+000

7.88986163594682e+004,-2.71534171348747e+001,-1.53821092027153e+000

7.99999999999995e+004,-2.71534556783649e+001,-1.55967906903844e+000

8.11167583832018e+004,-2.71534953042050e+001,-1.58144671230954e+000

8.22491061324848e+004,-2.71535360427527e+001,-1.60351802284375e+000

8.33972608672892e+004,-2.71535779252150e+001,-1.62589723131035e+000

8.45614432449099e+004,-2.71536209836721e+001,-1.64858862708352e+000

8.57418770029029e+004,-2.71536652511015e+001,-1.67159655904656e+000

8.69387890020841e+004,-2.71537107614032e+001,-1.69492543640710e+000

8.81524092701283e+004,-2.71537575494251e+001,-1.71857972952320e+000

8.93829710457770e+004,-2.71538056509895e+001,-1.74256397074077e+000

9.06307108236633e+004,-2.71538551029201e+001,-1.76688275524039e+000

9.18958683997622e+004,-2.71539059430700e+001,-1.79154074189666e+000

9.31786869174758e+004,-2.71539582103503e+001,-1.81654265414830e+000

9.44794129143618e+004,-2.71540119447592e+001,-1.84189328088001e+000

9.57982963695136e+004,-2.71540671874125e+001,-1.86759747731524e+000

9.71355907516031e+004,-2.71541239805746e+001,-1.89366016591999e+000

9.84915530675926e+004,-2.71541823676900e+001,-1.92008633732077e+000

9.98664439121282e+004,-2.71542423934167e+001,-1.94688105123105e+000

1.01260527517622e+005,-2.71543041036592e+001,-1.97404943739290e+000

1.02674071805032e+005,-2.71543675456035e+001,-2.00159669652785e+000

1.04107348435354e+005,-2.71544327677522e+001,-2.02952810130347e+000

1.05560632861831e+005,-2.71544998199615e+001,-2.05784899730779e+000

1.07034204382888e+005,-2.71545687534783e+001,-2.08656480404063e+000

1.08528346195813e+005,-2.71546396209784e+001,-2.11568101591512e+000

1.10043345451179e+005,-2.71547124766070e+001,-2.14520320327192e+000

1.11579493308032e+005,-2.71547873760181e+001,-2.17513701340789e+000

1.13137084989847e+005,-2.71548643764174e+001,-2.20548817161587e+000

1.14716419841265e+005,-2.71549435366041e+001,-2.23626248223913e+000

1.16317801385624e+005,-2.71550249170156e+001,-2.26746582973886e+000

1.17941537383287e+005,-2.71551085797724e+001,-2.29910417977353e+000

1.19587939890794e+005,-2.71551945887247e+001,-2.33118358029386e+000

1.21257325320831e+005,-2.71552830094999e+001,-2.36371016265029e+000

1.22950014503040e+005,-2.71553739095516e+001,-2.39669014271446e+000

1.24666332745679e+005,-2.71554673582101e+001,-2.43012982201469e+000

1.26406609898139e+005,-2.71555634267339e+001,-2.46403558888493e+000

1.28171180414339e+005,-2.71556621883625e+001,-2.49841391962907e+000

1.29960383416997e+005,-2.71557637183713e+001,-2.53327137969804e+000

1.31774562762811e+005,-2.71558680941272e+001,-2.56861462488278e+000

1.33614067108538e+005,-2.71559753951462e+001,-2.60445040251985e+000

1.35479249978003e+005,-2.71560857031522e+001,-2.64078555271424e+000

1.37370469830040e+005,-2.71561991021377e+001,-2.67762700957397e+000

1.39288090127379e+005,-2.71563156784260e+001,-2.71498180246222e+000

1.41232479406504e+005,-2.71564355207346e+001,-2.75285705726282e+000

1.43204011348474e+005,-2.71565587202415e+001,-2.79125999766057e+000

1.45203064850745e+005,-2.71566853706514e+001,-2.83019794643901e+000

1.47230024099979e+005,-2.71568155682658e+001,-2.86967832679001e+000

1.49285278645888e+005,-2.71569494120530e+001,-2.90970866364259e+000

1.51369223476094e+005,-2.71570870037216e+001,-2.95029658500353e+000

1.53482259092041e+005,-2.71572284477946e+001,-2.99144982331666e+000

1.55624791585964e+005,-2.71573738516862e+001,-3.03317621683591e+000

1.57797232718936e+005,-2.71575233257807e+001,-3.07548371101519e+000

1.59999999999999e+005,-2.71576769835129e+001,-3.11838035991295e+000

1.62233516766403e+005,-2.71578349414512e+001,-3.16187432761473e+000

1.64498212264969e+005,-2.71579973193822e+001,-3.20597388966955e+000

1.66794521734578e+005,-2.71581642403987e+001,-3.25068743454361e+000

1.69122886489819e+005,-2.71583358309883e+001,-3.29602346509053e+000

1.71483754005805e+005,-2.71585122211261e+001,-3.34199060003630e+000

1.73877578004168e+005,-2.71586935443682e+001,-3.38859757548256e+000

1.76304818540256e+005,-2.71588799379489e+001,-3.43585324642542e+000

1.78765942091554e+005,-2.71590715428795e+001,-3.48376658828931e+000

1.81261421647326e+005,-2.71592685040505e+001,-3.53234669848000e+000

1.83791736799524e+005,-2.71594709703353e+001,-3.58160279795220e+000

1.86357373834951e+005,-2.71596790946978e+001,-3.63154423279485e+000

1.88958825828723e+005,-2.71598930343021e+001,-3.68218047583183e+000

1.91596592739027e+005,-2.71601129506247e+001,-3.73352112824052e+000

1.94271181503206e+005,-2.71603390095703e+001,-3.78557592118703e+000

1.96983106135185e+005,-2.71605713815902e+001,-3.83835471747687e+000

1.99732887824256e+005,-2.71608102418035e+001,-3.89186751322375e+000

2.02521055035243e+005,-2.71610557701217e+001,-3.94612443953408e+000

2.05348143610063e+005,-2.71613081513763e+001,-4.00113576420878e+000

2.08214696870707e+005,-2.71615675754495e+001,-4.05691189346202e+000

2.11121265723661e+005,-2.71618342374084e+001,-4.11346337365504e+000

2.14068408765776e+005,-2.71621083376425e+001,-4.17080089304940e+000

2.17056692391625e+005,-2.71623900820042e+001,-4.22893528357337e+000

2.20086690902357e+005,-2.71626796819537e+001,-4.28787752260854e+000

2.23158986616063e+005,-2.71629773547068e+001,-4.34763873478943e+000

2.26274169979693e+005,-2.71632833233859e+001,-4.40823019382291e+000

2.29432839682530e+005,-2.71635978171762e+001,-4.46966332432100e+000

2.32635602771247e+005,-2.71639210714843e+001,-4.53194970365156e+000

2.35883074766574e+005,-2.71642533281014e+001,-4.59510106380560e+000

2.39175879781588e+005,-2.71645948353700e+001,-4.65912929327916e+000

2.42514650641661e+005,-2.71649458483553e+001,-4.72404643897233e+000

2.45900029006080e+005,-2.71653066290201e+001,-4.78986470810410e+000

2.49332665491357e+005,-2.71656774464042e+001,-4.85659647014205e+000

2.52813219796278e+005,-2.71660585768083e+001,-4.92425425874862e+000

2.56342360828676e+005,-2.71664503039815e+001,-4.99285077374226e+000

2.59920766833993e+005,-2.71668529193145e+001,-5.06239888307415e+000

2.63549125525621e+005,-2.71672667220360e+001,-5.13291162481969e+000

2.67228134217075e+005,-2.71676920194149e+001,-5.20440220918501e+000

2.70958499956006e+005,-2.71681291269665e+001,-5.27688402052823e+000

2.74740939660078e+005,-2.71685783686636e+001,-5.35037061939534e+000

2.78576180254757e+005,-2.71690400771530e+001,-5.42487574456995e+000

2.82464958813007e+005,-2.71695145939764e+001,-5.50041331513701e+000

2.86408022696948e+005,-2.71700022697969e+001,-5.57699743256105e+000

2.90406129701488e+005,-2.71705034646299e+001,-5.65464238277718e+000

2.94460048199957e+005,-2.71710185480805e+001,-5.73336263829513e+000

2.98570557291775e+005,-2.71715478995849e+001,-5.81317286031712e+000

3.02738446952187e+005,-2.71720919086583e+001,-5.89408790086742e+000

3.06964518184081e+005,-2.71726509751481e+001,-5.97612280493472e+000

3.11249583171928e+005,-2.71732255094920e+001,-6.05929281262650e+000

3.15594465437872e+005,-2.71738159329833e+001,-6.14361336133481e+000

3.19999999999997e+005,-2.71744226780403e+001,-6.22910008791334e+000

3.24467033532806e+005,-2.71750461884834e+001,-6.31576883086538e+000

3.28996424529938e+005,-2.71756869198168e+001,-6.40363563254282e+000

3.33589043469155e+005,-2.71763453395171e+001,-6.49271674135452e+000

3.38245772979638e+005,-2.71770219273277e+001,-6.58302861398475e+000

3.42967508011610e+005,-2.71777171755602e+001,-6.67458791762149e+000

3.47755156008335e+005,-2.71784315894013e+001,-6.76741153219246e+000

3.52609637080511e+005,-2.71791656872270e+001,-6.86151655261084e+000

3.57531884183106e+005,-2.71799200009229e+001,-6.95692029102798e+000

3.62522843294651e+005,-2.71806950762114e+001,-7.05364027909475e+000

3.67583473599047e+005,-2.71814914729862e+001,-7.15169427022873e+000

3.72714747669902e+005,-2.71823097656525e+001,-7.25110024188851e+000

3.77917651657445e+005,-2.71831505434756e+001,-7.35187639785509e+000

3.83193185478053e+005,-2.71840144109361e+001,-7.45404117051698e+000

3.88542363006410e+005,-2.71849019880914e+001,-7.55761322316183e+000

3.93966212270369e+005,-2.71858139109466e+001,-7.66261145227224e+000

3.99465775648511e+005,-2.71867508318305e+001,-7.76905498982539e+000

4.05042110070485e+005,-2.71877134197810e+001,-7.87696320559643e+000

4.10696287220124e+005,-2.71887023609373e+001,-7.98635570946447e+000

4.16429393741414e+005,-2.71897183589398e+001,-8.09725235372168e+000

4.22242531447321e+005,-2.71907621353381e+001,-8.20967323538351e+000

4.28136817531551e+005,-2.71918344300071e+001,-8.32363869850005e+000

4.34113384783250e+005,-2.71929360015712e+001,-8.43916933646911e+000

4.40173381804713e+005,-2.71940676278362e+001,-8.55628599434852e+000

4.46317973232124e+005,-2.71952301062304e+001,-8.67500977116801e+000

4.52548339959385e+005,-2.71964242542534e+001,-8.79536202224003e+000

4.58865679365059e+005,-2.71976509099339e+001,-8.91736436146955e+000

4.65271205542494e+005,-2.71989109322965e+001,-9.04103866366033e+000

4.71766149533147e+005,-2.72002052018363e+001,-9.16640706681933e+000

4.78351759563174e+005,-2.72015346210039e+001,-9.29349197445691e+000

4.85029301283321e+005,-2.72029001146986e+001,-9.42231605788276e+000

4.91800058012158e+005,-2.72043026307713e+001,-9.55290225849764e+000

4.98665330982714e+005,-2.72057431405364e+001,-9.68527379007842e+000

5.05626439592555e+005,-2.72072226392939e+001,-9.81945414105810e+000

5.12684721657352e+005,-2.72087421468614e+001,-9.95546707679759e+000

5.19841533667984e+005,-2.72103027081149e+001,-1.00933366418509e+001

5.27098251051240e+005,-2.72119053935410e+001,-1.02330871622213e+001

5.34456268434150e+005,-2.72135512997990e+001,-1.03747432476080e+001

5.41916999912011e+005,-2.72152415502935e+001,-1.05183297936435e+001

