Freq.,VOut,OutRef

1.00000000000000e+004,-8.18954956077623e+000,-1.73909775166477e-001

1.01395947979003e+004,-8.18954931832610e+000,-1.76337466910135e-001

1.02811382665607e+004,-8.18954906905959e+000,-1.78799048042823e-001

1.04246576084112e+004,-8.18954881278531e+000,-1.81294991644637e-001

1.05701804056138e+004,-8.18954854930608e+000,-1.83825777402144e-001

1.07177346253629e+004,-8.18954827841950e+000,-1.86391891695964e-001

1.08673486252606e+004,-8.18954799991728e+000,-1.88993827698224e-001

1.10190511587661e+004,-8.18954771358520e+000,-1.91632085465396e-001

1.11728713807222e+004,-8.18954741920313e+000,-1.94307172034637e-001

1.13288388529580e+004,-8.18954711654490e+000,-1.97019601519694e-001

1.14869835499703e+004,-8.18954680537774e+000,-1.99769895213203e-001

1.16473358646846e+004,-8.18954648546240e+000,-2.02558581684677e-001

1.18099266142953e+004,-8.18954615655301e+000,-2.05386196881120e-001

1.19747870461893e+004,-8.18954581839679e+000,-2.08253284231578e-001

1.21419488439505e+004,-8.18954547073358e+000,-2.11160394753010e-001

1.23114441334492e+004,-8.18954511329613e+000,-2.14108087153376e-001

1.24833054890161e+004,-8.18954474580972e+000,-2.17096927939148e-001

1.26575659397028e+004,-8.18954436799191e+000,-2.20127491525826e-001

1.28342589756290e+004,-8.18954397955207e+000,-2.23200360348680e-001

1.30134185544193e+004,-8.18954358019160e+000,-2.26316124973200e-001

1.31950791077289e+004,-8.18954316960369e+000,-2.29475384207301e-001

1.33792755478611e+004,-8.18954274747237e+000,-2.32678745221548e-001

1.35660432744767e+004,-8.18954231347329e+000,-2.35926823660191e-001

1.37554181813974e+004,-8.18954186727276e+000,-2.39220243762317e-001

1.39474366635040e+004,-8.18954140852775e+000,-2.42559638481845e-001

1.41421356237309e+004,-8.18954093688566e+000,-2.45945649607554e-001

1.43395524801583e+004,-8.18954045198376e+000,-2.49378927889529e-001

1.45397251732031e+004,-8.18953995344930e+000,-2.52860133160813e-001

1.47426921729110e+004,-8.18953944089911e+000,-2.56389934465940e-001

1.49484924863494e+004,-8.18953891393918e+000,-2.59969010189133e-001

1.51571656651040e+004,-8.18953837216409e+000,-2.63598048187227e-001

1.53687518128801e+004,-8.18953781515761e+000,-2.67277745915994e-001

1.55832915932100e+004,-8.18953724249151e+000,-2.71008810569721e-001

1.58008262372675e+004,-8.18953665372533e+000,-2.74791959215802e-001

1.60213975517924e+004,-8.18953604840662e+000,-2.78627918930303e-001

1.62450479271247e+004,-8.18953542607006e+000,-2.82517426939911e-001

1.64718203453514e+004,-8.18953478623690e+000,-2.86461230765257e-001

1.67017583885674e+004,-8.18953412841555e+000,-2.90460088358672e-001

1.69349062472505e+004,-8.18953345210024e+000,-2.94514768256180e-001

1.71713087287550e+004,-8.18953275677083e+000,-2.98626049723236e-001

1.74110112659224e+004,-8.18953204189291e+000,-3.02794722902077e-001

1.76540599258131e+004,-8.18953130691686e+000,-3.07021588966738e-001

1.79005014185594e+004,-8.18953055127762e+000,-3.11307460275801e-001

1.81503831063432e+004,-8.18952977439428e+000,-3.15653160528204e-001

1.84037530124975e+004,-8.18952897566960e+000,-3.20059524922115e-001

1.86606598307361e+004,-8.18952815448947e+000,-3.24527400315796e-001

1.89211529345119e+004,-8.18952731022263e+000,-3.29057645389412e-001

1.91852823865052e+004,-8.18952644221979e+000,-3.33651130812333e-001

1.94530989482457e+004,-8.18952554981400e+000,-3.38308739405261e-001

1.97246540898671e+004,-8.18952463231890e+000,-3.43031366317228e-001

1.99999999999999e+004,-8.18952368902923e+000,-3.47819919191967e-001

2.02791895958005e+004,-8.18952271921981e+000,-3.52675318344637e-001

2.05622765331213e+004,-8.18952172214492e+000,-3.57598496939679e-001

2.08493152168224e+004,-8.18952069703809e+000,-3.62590401167548e-001

2.11403608112276e+004,-8.18951964311138e+000,-3.67651990427650e-001

2.14354692507258e+004,-8.18951855955423e+000,-3.72784237516090e-001

2.17346972505211e+004,-8.18951744553372e+000,-3.77988128807439e-001

2.20381023175322e+004,-8.18951630019337e+000,-3.83264664447452e-001

2.23457427614443e+004,-8.18951512265269e+000,-3.88614858543997e-001

2.26576777059159e+004,-8.18951391200635e+000,-3.94039739363467e-001

2.29739670999406e+004,-8.18951266732369e+000,-3.99540349527340e-001

2.32946717293690e+004,-8.18951138764759e+000,-4.05117746213909e-001

2.36198532285905e+004,-8.18951007199430e+000,-4.10773001359617e-001

2.39495740923785e+004,-8.18950871935248e+000,-4.16507201865482e-001

2.42838976879009e+004,-8.18950732868199e+000,-4.22321449808670e-001

2.46228882668982e+004,-8.18950589891369e+000,-4.28216862651432e-001

2.49666109780322e+004,-8.18950442894858e+000,-4.34194573455795e-001

2.53151318794055e+004,-8.18950291765625e+000,-4.40255731105123e-001

2.56685179512580e+004,-8.18950136387487e+000,-4.46401500520834e-001

2.60268371088386e+004,-8.18949976640994e+000,-4.52633062888028e-001

2.63901582154578e+004,-8.18949812403334e+000,-4.58951615882705e-001

2.67585510957221e+004,-8.18949643548220e+000,-4.65358373903265e-001

2.71320865489533e+004,-8.18949469945849e+000,-4.71854568300658e-001

2.75108363627948e+004,-8.18949291462741e+000,-4.78441447619190e-001

2.78948733270080e+004,-8.18949107961689e+000,-4.85120277832527e-001

2.82842712474618e+004,-8.18948919301590e+000,-4.91892342592135e-001

2.86791049603164e+004,-8.18948725337409e+000,-4.98758943468762e-001

2.90794503464061e+004,-8.18948525920029e+000,-5.05721400205550e-001

2.94853843458219e+004,-8.18948320896112e+000,-5.12781050973323e-001

2.98969849726987e+004,-8.18948110108056e+000,-5.19939252623104e-001

3.03143313302078e+004,-8.18947893393768e+000,-5.27197380953632e-001

3.07375036257601e+004,-8.18947670586663e+000,-5.34556830968705e-001

3.11665831864199e+004,-8.18947441515417e+000,-5.42019017151577e-001

3.16016524745350e+004,-8.18947206003919e+000,-5.49585373734101e-001

3.20427951035848e+004,-8.18946963871090e+000,-5.57257354972695e-001

3.24900958542493e+004,-8.18946714930780e+000,-5.65036435427919e-001

3.29436406907028e+004,-8.18946458991588e+000,-5.72924110249094e-001

3.34035167771346e+004,-8.18946195856734e+000,-5.80921895461373e-001

3.38698124945009e+004,-8.18945925323918e+000,-5.89031328256376e-001

3.43426174575100e+004,-8.18945647185128e+000,-5.97253967290002e-001

3.48220225318448e+004,-8.18945361226516e+000,-6.05591392980665e-001

3.53081198516260e+004,-8.18945067228239e+000,-6.14045207811921e-001

3.58010028371187e+004,-8.18944764964229e+000,-6.22617036645574e-001

3.63007662126863e+004,-8.18944454202109e+000,-6.31308527027915e-001

3.68075060249948e+004,-8.18944134702934e+000,-6.40121349511892e-001

3.73213196614721e+004,-8.18943806221053e+000,-6.49057197975713e-001

3.78423058690237e+004,-8.18943468503924e+000,-6.58117789948452e-001

3.83705647730104e+004,-8.18943121291864e+000,-6.67304866943452e-001

3.89061978964912e+004,-8.18942764317924e+000,-6.76620194790139e-001

3.94493081797342e+004,-8.18942397307633e+000,-6.86065563975113e-001

3.99999999999998e+004,-8.18942019978811e+000,-6.95642789986014e-001

4.05583791916010e+004,-8.18941632041335e+000,-7.05353713662272e-001

4.11245530662425e+004,-8.18941233196920e+000,-7.15200201548529e-001

4.16986304336447e+004,-8.18940823138901e+000,-7.25184146252880e-001

4.22807216224550e+004,-8.18940401552000e+000,-7.35307466811685e-001

4.28709385014515e+004,-8.18939968112053e+000,-7.45572109060082e-001

4.34693945010421e+004,-8.18939522485800e+000,-7.55980046004205e-001

4.40762046350642e+004,-8.18939064330593e+000,-7.66533278203264e-001

4.46914855228886e+004,-8.18938593294144e+000,-7.77233834153297e-001

4.53153554118317e+004,-8.18938109014293e+000,-7.88083770676046e-001

4.59479341998812e+004,-8.18937611118655e+000,-7.99085173318708e-001

4.65893434587380e+004,-8.18937099224399e+000,-8.10240156751543e-001

4.72397064571810e+004,-8.18936572937920e+000,-8.21550865177653e-001

4.78991481847569e+004,-8.18936031854550e+000,-8.33019472743370e-001

4.85677953758016e+004,-8.18935475558231e+000,-8.44648183959282e-001

4.92457765337964e+004,-8.18934903621207e+000,-8.56439234123101e-001

4.99332219560642e+004,-8.18934315603711e+000,-8.68394889749370e-001

5.06302637588109e+004,-8.18933711053578e+000,-8.80517449008311e-001

5.13370359025159e+004,-8.18933089505950e+000,-8.92809242165851e-001

5.20536742176771e+004,-8.18932450482896e+000,-9.05272632032876e-001

5.27803164309155e+004,-8.18931793493028e+000,-9.17910014422446e-001

5.35171021914442e+004,-8.18931118031155e+000,-9.30723818607539e-001

5.42641730979066e+004,-8.18930423577869e+000,-9.43716507791879e-001

5.50216727255895e+004,-8.18929709599166e+000,-9.56890579582280e-001

5.57897466540159e+004,-8.18928975546008e+000,-9.70248566471835e-001

5.65685424949235e+004,-8.18928220853923e+000,-9.83793036325927e-001

5.73582099206328e+004,-8.18927444942578e+000,-9.97526592877082e-001

5.81589006928121e+004,-8.18926647215291e+000,-1.01145187622828e+000

5.89707686916437e+004,-8.18925827058614e+000,-1.02557156335971e+000

5.97939699453972e+004,-8.18924983841859e+000,-1.03988836864438e+000

6.06286626604156e+004,-8.18924116916566e+000,-1.05440504437381e+000

6.14750072515201e+004,-8.18923225616081e+000,-1.06912438128449e+000

6.23331663728396e+004,-8.18922309254948e+000,-1.08404920910025e+000

6.32033049490698e+004,-8.18921367128483e+000,-1.09918239707286e+000

6.40855902071694e+004,-8.18920398512144e+000,-1.11452685453906e+000

6.49801917084985e+004,-8.18919402661029e+000,-1.13008553147896e+000

6.58872813814055e+004,-8.18918378809282e+000,-1.14586141908577e+000

6.68070335542691e+004,-8.18917326169491e+000,-1.16185755034318e+000

6.77396249890018e+004,-8.18916243932118e+000,-1.17807700060753e+000

6.86852349150199e+004,-8.18915131264844e+000,-1.19452288820377e+000

6.96440450636895e+004,-8.18913987311929e+000,-1.21119837502577e+000

7.06162397032520e+004,-8.18912811193571e+000,-1.22810666714609e+000

7.16020056742374e+004,-8.18911602005227e+000,-1.24525101543321e+000

7.26015324253724e+004,-8.18910358816895e+000,-1.26263471618146e+000

7.36150120499896e+004,-8.18909080672421e+000,-1.28026111174436e+000

7.46426393229441e+004,-8.18907766588746e+000,-1.29813359118144e+000

7.56846117380472e+004,-8.18906415555158e+000,-1.31625559091072e+000

7.67411295460207e+004,-8.18905026532528e+000,-1.33463059537236e+000

7.78123957929823e+004,-8.18903598452466e+000,-1.35326213770257e+000

7.88986163594682e+004,-8.18902130216545e+000,-1.37215380041368e+000

7.99999999999995e+004,-8.18900620695434e+000,-1.39130921608692e+000

8.11167583832018e+004,-8.18899068728027e+000,-1.41073206807357e+000

8.22491061324848e+004,-8.18897473120534e+000,-1.43042609120768e+000

8.33972608672892e+004,-8.18895832645618e+000,-1.45039507252385e+000

8.45614432449099e+004,-8.18894146041374e+000,-1.47064285199319e+000

8.57418770029029e+004,-8.18892412010400e+000,-1.49117332326250e+000

8.69387890020841e+004,-8.18890629218799e+000,-1.51199043440720e+000

8.81524092701283e+004,-8.18888796295142e+000,-1.53309818869401e+000

8.93829710457770e+004,-8.18886911829401e+000,-1.55450064535627e+000

9.06307108236633e+004,-8.18884974371873e+000,-1.57620192037720e+000

9.18958683997622e+004,-8.18882982432068e+000,-1.59820618728633e+000

9.31786869174758e+004,-8.18880934477558e+000,-1.62051767796599e+000

9.44794129143618e+004,-8.18878828932779e+000,-1.64314068347131e+000

9.57982963695136e+004,-8.18876664177825e+000,-1.66607955485939e+000

9.71355907516031e+004,-8.18874438547227e+000,-1.68933870403052e+000

9.84915530675926e+004,-8.18872150328623e+000,-1.71292260458379e+000

9.98664439121282e+004,-8.18869797761467e+000,-1.73683579268183e+000

1.01260527517622e+005,-8.18867379035668e+000,-1.76108286792925e+000

1.02674071805032e+005,-8.18864892290175e+000,-1.78566849426417e+000

1.04107348435354e+005,-8.18862335611568e+000,-1.81059740086088e+000

1.05560632861831e+005,-8.18859707032575e+000,-1.83587438304539e+000

1.07034204382888e+005,-8.18857004530538e+000,-1.86150430322656e+000

1.08528346195813e+005,-8.18854226025868e+000,-1.88749209183730e+000

1.10043345451179e+005,-8.18851369380439e+000,-1.91384274829097e+000

1.11579493308032e+005,-8.18848432395940e+000,-1.94056134195013e+000

1.13137084989847e+005,-8.18845412812157e+000,-1.96765301311190e+000

1.14716419841265e+005,-8.18842308305267e+000,-1.99512297400233e+000

1.16317801385624e+005,-8.18839116486015e+000,-2.02297650979096e+000

1.17941537383287e+005,-8.18835834897876e+000,-2.05121897961488e+000

1.19587939890794e+005,-8.18832461015161e+000,-2.07985581762071e+000

1.21257325320831e+005,-8.18828992241071e+000,-2.10889253401918e+000

1.22950014503040e+005,-8.18825425905678e+000,-2.13833471615724e+000

1.24666332745679e+005,-8.18821759263881e+000,-2.16818802960248e+000

1.26406609898139e+005,-8.18817989493278e+000,-2.19845821924569e+000

1.28171180414339e+005,-8.18814113691978e+000,-2.22915111041854e+000

1.29960383416997e+005,-8.18810128876369e+000,-2.26027261002630e+000

1.31774562762811e+005,-8.18806031978817e+000,-2.29182870769784e+000

1.33614067108538e+005,-8.18801819845277e+000,-2.32382547695233e+000

1.35479249978003e+005,-8.18797489232880e+000,-2.35626907638151e+000

1.37370469830040e+005,-8.18793036807399e+000,-2.38916575085086e+000

1.39288090127379e+005,-8.18788459140700e+000,-2.42252183271562e+000

1.41232479406504e+005,-8.18783752708070e+000,-2.45634374305698e+000

1.43204011348474e+005,-8.18778913885502e+000,-2.49063799293401e+000

1.45203064850745e+005,-8.18773938946894e+000,-2.52541118465506e+000

1.47230024099979e+005,-8.18768824061153e+000,-2.56067001306703e+000

1.49285278645888e+005,-8.18763565289255e+000,-2.59642126686319e+000

1.51369223476094e+005,-8.18758158581171e+000,-2.63267182990993e+000

1.53482259092041e+005,-8.18752599772762e+000,-2.66942868259295e+000

1.55624791585964e+005,-8.18746884582530e+000,-2.70669890318354e+000

1.57797232718936e+005,-8.18741008608317e+000,-2.74448966922420e+000

1.59999999999999e+005,-8.18734967323898e+000,-2.78280825893343e+000

1.62233516766403e+005,-8.18728756075470e+000,-2.82166205263330e+000

1.64498212264969e+005,-8.18722370078058e+000,-2.86105853419606e+000

1.66794521734578e+005,-8.18715804411806e+000,-2.90100529251183e+000

1.69122886489819e+005,-8.18709054018150e+000,-2.94151002298016e+000

1.71483754005805e+005,-8.18702113695926e+000,-2.98258052901998e+000

1.73877578004168e+005,-8.18694978097327e+000,-3.02422472360384e+000

1.76304818540256e+005,-8.18687641723746e+000,-3.06645063081559e+000

1.78765942091554e+005,-8.18680098921544e+000,-3.10926638742761e+000

1.81261421647326e+005,-8.18672343877629e+000,-3.15268024450559e+000

1.83791736799524e+005,-8.18664370614980e+000,-3.19670056903349e+000

1.86357373834951e+005,-8.18656172988002e+000,-3.24133584556443e+000

1.88958825828723e+005,-8.18647744677755e+000,-3.28659467789539e+000

1.91596592739027e+005,-8.18639079187051e+000,-3.33248579076734e+000

1.94271181503206e+005,-8.18630169835420e+000,-3.37901803159001e+000

1.96983106135185e+005,-8.18621009753916e+000,-3.42620037219268e+000

1.99732887824256e+005,-8.18611591879800e+000,-3.47404191060111e+000

2.02521055035243e+005,-8.18601908951033e+000,-3.52255187284145e+000

2.05348143610063e+005,-8.18591953500668e+000,-3.57173961476954e+000

2.08214696870707e+005,-8.18581717851026e+000,-3.62161462393080e+000

2.11121265723661e+005,-8.18571194107735e+000,-3.67218652144490e+000

2.14068408765776e+005,-8.18560374153609e+000,-3.72346506392093e+000

2.17056692391625e+005,-8.18549249642339e+000,-3.77546014540015e+000

2.20086690902357e+005,-8.18537811991982e+000,-3.82818179933068e+000

2.23158986616063e+005,-8.18526052378330e+000,-3.88164020056764e+000

2.26274169979693e+005,-8.18513961728018e+000,-3.93584566740933e+000

2.29432839682530e+005,-8.18501530711472e+000,-3.99080866366050e+000

2.32635602771247e+005,-8.18488749735675e+000,-4.04653980072786e+000

2.35883074766574e+005,-8.18475608936676e+000,-4.10304983975010e+000

2.39175879781588e+005,-8.18462098171939e+000,-4.16034969375739e+000

2.42514650641661e+005,-8.18448207012430e+000,-4.21845042986685e+000

2.45900029006080e+005,-8.18433924734524e+000,-4.27736327151020e+000

2.49332665491357e+005,-8.18419240311632e+000,-4.33709960069829e+000

2.52813219796278e+005,-8.18404142405640e+000,-4.39767096031759e+000

2.56342360828676e+005,-8.18388619358065e+000,-4.45908905646581e+000

2.59920766833993e+005,-8.18372659180992e+000,-4.52136576082210e+000

2.63549125525621e+005,-8.18356249547718e+000,-4.58451311305599e+000

2.67228134217075e+005,-8.18339377783162e+000,-4.64854332327279e+000

2.70958499956006e+005,-8.18322030853998e+000,-4.71346877449908e+000

2.74740939660078e+005,-8.18304195358482e+000,-4.77930202520722e+000

2.78576180254757e+005,-8.18285857516033e+000,-4.84605581187981e+000

2.82464958813007e+005,-8.18267003156475e+000,-4.91374305161607e+000

2.86408022696948e+005,-8.18247617709007e+000,-4.98237684477920e+000

2.90406129701488e+005,-8.18227686190843e+000,-5.05197047768741e+000

2.94460048199957e+005,-8.18207193195533e+000,-5.12253742534798e+000

2.98570557291775e+005,-8.18186122880961e+000,-5.19409135423574e+000

3.02738446952187e+005,-8.18164458956997e+000,-5.26664612511753e+000

3.06964518184081e+005,-8.18142184672800e+000,-5.34021579592298e+000

3.11249583171928e+005,-8.18119282803762e+000,-5.41481462466187e+000

3.15594465437872e+005,-8.18095735638084e+000,-5.49045707239110e+000

3.19999999999997e+005,-8.18071524962978e+000,-5.56715780623010e+000

3.24467033532806e+005,-8.18046632050478e+000,-5.64493170242682e+000

3.28996424529938e+005,-8.18021037642833e+000,-5.72379384947625e+000

3.33589043469155e+005,-8.17994721937530e+000,-5.80375955129000e+000

3.38245772979638e+005,-8.17967664571848e+000,-5.88484433042143e+000

3.42967508011610e+005,-8.17939844607013e+000,-5.96706393134480e+000

3.47755156008335e+005,-8.17911240511895e+000,-6.05043432379094e+000

3.52609637080511e+005,-8.17881830146255e+000,-6.13497170614062e+000

3.57531884183106e+005,-8.17851590743499e+000,-6.22069250887727e+000

3.62522843294651e+005,-8.17820498892995e+000,-6.30761339809917e+000

3.67583473599047e+005,-8.17788530521851e+000,-6.39575127909397e+000

3.72714747669902e+005,-8.17755660876213e+000,-6.48512329997626e+000

3.77917651657445e+005,-8.17721864502031e+000,-6.57574685538942e+000

3.83193185478053e+005,-8.17687115225304e+000,-6.66763959027431e+000

3.88542363006410e+005,-8.17651386131745e+000,-6.76081940370578e+000

3.93966212270369e+005,-8.17614649545946e+000,-6.85530445279748e+000

3.99465775648511e+005,-8.17576877009880e+000,-6.95111315668005e+000

4.05042110070485e+005,-8.17538039260901e+000,-7.04826420055035e+000

4.10696287220124e+005,-8.17498106209076e+000,-7.14677653979588e+000

4.16429393741414e+005,-8.17457046913918e+000,-7.24666940419761e+000

4.22242531447321e+005,-8.17414829560500e+000,-7.34796230220886e+000

4.28136817531551e+005,-8.17371421434868e+000,-7.45067502531710e+000

4.34113384783250e+005,-8.17326788898859e+000,-7.55482765248735e+000

4.40173381804713e+005,-8.17280897364163e+000,-7.66044055469106e+000

4.46317973232124e+005,-8.17233711265732e+000,-7.76753439952236e+000

4.52548339959385e+005,-8.17185194034455e+000,-7.87613015590351e+000

4.58865679365059e+005,-8.17135308069111e+000,-7.98624909888247e+000

4.65271205542494e+005,-8.17084014707551e+000,-8.09791281452519e+000

4.71766149533147e+005,-8.17031274197143e+000,-8.21114320490507e+000

4.78351759563174e+005,-8.16977045664404e+000,-8.32596249319140e+000

4.85029301283321e+005,-8.16921287083870e+000,-8.44239322884114e+000

4.91800058012158e+005,-8.16863955246089e+000,-8.56045829289596e+000

4.98665330982714e+005,-8.16805005724849e+000,-8.68018090338715e+000

5.05626439592555e+005,-8.16744392843492e+000,-8.80158462085247e+000

5.12684721657352e+005,-8.16682069640396e+000,-8.92469335396735e+000

5.19841533667984e+005,-8.16617987833555e+000,-9.04953136529418e+000

5.27098251051240e+005,-8.16552097784260e+000,-9.17612327715214e+000

5.34456268434150e+005,-8.16484348459841e+000,-9.30449407761343e+000

5.41916999912011e+005,-8.16414687395502e+000,-9.43466912662583e+000

