Freq.,VOut,OutRef

1.00000000000000e+004,-2.39605006471450e+001,-4.53118487266561e-001

1.01395947979003e+004,-2.39605034177032e+001,-4.59443726293150e-001

1.02811382665607e+004,-2.39605062661504e+001,-4.65857259846266e-001

1.04246576084112e+004,-2.39605091946761e+001,-4.72360320364888e-001

1.05701804056138e+004,-2.39605122055317e+001,-4.78954157486836e-001

1.07177346253629e+004,-2.39605153010315e+001,-4.85640038290288e-001

1.08673486252606e+004,-2.39605184835552e+001,-4.92419247535832e-001

1.10190511587661e+004,-2.39605217555490e+001,-4.99293087914043e-001

1.11728713807222e+004,-2.39605251195284e+001,-5.06262880293711e-001

1.13288388529580e+004,-2.39605285780791e+001,-5.13329963977936e-001

1.14869835499703e+004,-2.39605321338598e+001,-5.20495696959508e-001

1.16473358646846e+004,-2.39605357896037e+001,-5.27761456182228e-001

1.18099266142953e+004,-2.39605395481211e+001,-5.35128637805063e-001

1.19747870461893e+004,-2.39605434123011e+001,-5.42598657469227e-001

1.21419488439505e+004,-2.39605473851140e+001,-5.50172950571265e-001

1.23114441334492e+004,-2.39605514696137e+001,-5.57852972538300e-001

1.24833054890161e+004,-2.39605556689399e+001,-5.65640199106479e-001

1.26575659397028e+004,-2.39605599863207e+001,-5.73536126604162e-001

1.28342589756290e+004,-2.39605644250746e+001,-5.81542272240786e-001

1.30134185544193e+004,-2.39605689886137e+001,-5.89660174395680e-001

1.31950791077289e+004,-2.39605736804459e+001,-5.97891392914894e-001

1.33792755478611e+004,-2.39605785041776e+001,-6.06237509409993e-001

1.35660432744767e+004,-2.39605834635168e+001,-6.14700127560670e-001

1.37554181813974e+004,-2.39605885622755e+001,-6.23280873423643e-001

1.39474366635040e+004,-2.39605938043729e+001,-6.31981395744858e-001

1.41421356237309e+004,-2.39605991938386e+001,-6.40803366273331e-001

1.43395524801583e+004,-2.39606047348151e+001,-6.49748480084691e-001

1.45397251732031e+004,-2.39606104315616e+001,-6.58818455904622e-001

1.47426921729110e+004,-2.39606162884568e+001,-6.68015036439974e-001

1.49484924863494e+004,-2.39606223100028e+001,-6.77339988710496e-001

1.51571656651040e+004,-2.39606285008279e+001,-6.86795104390208e-001

1.53687518128801e+004,-2.39606348656907e+001,-6.96382200149693e-001

1.55832915932100e+004,-2.39606414094835e+001,-7.06103118004980e-001

1.58008262372675e+004,-2.39606481372362e+001,-7.15959725669803e-001

1.60213975517924e+004,-2.39606550541196e+001,-7.25953916916108e-001

1.62450479271247e+004,-2.39606621654507e+001,-7.36087611932937e-001

1.64718203453514e+004,-2.39606694766951e+001,-7.46362757699222e-001

1.67017583885674e+004,-2.39606769934726e+001,-7.56781328353496e-001

1.69349062472505e+004,-2.39606847215605e+001,-7.67345325574084e-001

1.71713087287550e+004,-2.39606926668988e+001,-7.78056778961896e-001

1.74110112659224e+004,-2.39607008355943e+001,-7.88917746430526e-001

1.76540599258131e+004,-2.39607092339257e+001,-7.99930314598044e-001

1.79005014185594e+004,-2.39607178683476e+001,-8.11096599190623e-001

1.81503831063432e+004,-2.39607267454966e+001,-8.22418745444389e-001

1.84037530124975e+004,-2.39607358721954e+001,-8.33898928518924e-001

1.86606598307361e+004,-2.39607452554588e+001,-8.45539353911958e-001

1.89211529345119e+004,-2.39607549024984e+001,-8.57342257883759e-001

1.91852823865052e+004,-2.39607648207287e+001,-8.69309907883700e-001

1.94530989482457e+004,-2.39607750177726e+001,-8.81444602985142e-001

1.97246540898671e+004,-2.39607855014669e+001,-8.93748674326763e-001

1.99999999999999e+004,-2.39607962798691e+001,-9.06224485557074e-001

2.02791895958005e+004,-2.39608073612629e+001,-9.18874433288092e-001

2.05622765331213e+004,-2.39608187541647e+001,-9.31700947554292e-001

2.08493152168224e+004,-2.39608304673304e+001,-9.44706492276201e-001

2.11403608112276e+004,-2.39608425097619e+001,-9.57893565734050e-001

2.14354692507258e+004,-2.39608548907140e+001,-9.71264701044825e-001

2.17346972505211e+004,-2.39608676197018e+001,-9.84822466646671e-001

2.20381023175322e+004,-2.39608807065074e+001,-9.98569466790700e-001

2.23457427614443e+004,-2.39608941611882e+001,-1.01250834203902e+000

2.26576777059159e+004,-2.39609079940839e+001,-1.02664176977030e+000

2.29739670999406e+004,-2.39609222158248e+001,-1.04097246469137e+000

2.32946717293690e+004,-2.39609368373399e+001,-1.05550317935591e+000

2.36198532285905e+004,-2.39609518698657e+001,-1.07023670469120e+000

2.39495740923785e+004,-2.39609673249537e+001,-1.08517587053186e+000

2.42838976879009e+004,-2.39609832144805e+001,-1.10032354616073e+000

2.46228882668982e+004,-2.39609995506562e+001,-1.11568264085620e+000

2.49666109780322e+004,-2.39610163460342e+001,-1.13125610444957e+000

2.53151318794055e+004,-2.39610336135202e+001,-1.14704692788748e+000

2.56685179512580e+004,-2.39610513663828e+001,-1.16305814380381e+000

2.60268371088386e+004,-2.39610696182633e+001,-1.17929282709835e+000

2.63901582154578e+004,-2.39610883831864e+001,-1.19575409552484e+000

2.67585510957221e+004,-2.39611076755705e+001,-1.21244511028497e+000

2.71320865489533e+004,-2.39611275102395e+001,-1.22936907663215e+000

2.75108363627948e+004,-2.39611479024333e+001,-1.24652924448495e+000

2.78948733270080e+004,-2.39611688678202e+001,-1.26392890904412e+000

2.82842712474618e+004,-2.39611904225087e+001,-1.28157141142326e+000

2.86791049603164e+004,-2.39612125830597e+001,-1.29946013928550e+000

2.90794503464061e+004,-2.39612353664992e+001,-1.31759852748981e+000

2.94853843458219e+004,-2.39612587903319e+001,-1.33599005874477e+000

2.98969849726987e+004,-2.39612828725536e+001,-1.35463826427415e+000

3.03143313302078e+004,-2.39613076316661e+001,-1.37354672448770e+000

3.07375036257601e+004,-2.39613330866907e+001,-1.39271906966433e+000

3.11665831864199e+004,-2.39613592571828e+001,-1.41215898064427e+000

3.16016524745350e+004,-2.39613861632473e+001,-1.43187018952857e+000

3.20427951035848e+004,-2.39614138255537e+001,-1.45185648038978e+000

3.24900958542493e+004,-2.39614422653519e+001,-1.47212168999304e+000

3.29436406907028e+004,-2.39614715044888e+001,-1.49266970852452e+000

3.34035167771346e+004,-2.39615015654247e+001,-1.51350448033271e+000

3.38698124945009e+004,-2.39615324712507e+001,-1.53463000467844e+000

3.43426174575100e+004,-2.39615642457063e+001,-1.55605033649359e+000

3.48220225318448e+004,-2.39615969131976e+001,-1.57776958715306e+000

3.53081198516260e+004,-2.39616304988162e+001,-1.59979192525565e+000

3.58010028371187e+004,-2.39616650283583e+001,-1.62212157741426e+000

3.63007662126863e+004,-2.39617005283440e+001,-1.64476282906099e+000

3.68075060249948e+004,-2.39617370260384e+001,-1.66772002525777e+000

3.73213196614721e+004,-2.39617745494721e+001,-1.69099757152206e+000

3.78423058690237e+004,-2.39618131274625e+001,-1.71459993466177e+000

3.83705647730104e+004,-2.39618527896361e+001,-1.73853164362260e+000

3.89061978964912e+004,-2.39618935664511e+001,-1.76279729034536e+000

3.94493081797342e+004,-2.39619354892208e+001,-1.78740153063719e+000

3.99999999999998e+004,-2.39619785901373e+001,-1.81234908505124e+000

4.05583791916010e+004,-2.39620229022967e+001,-1.83764473978135e+000

4.11245530662425e+004,-2.39620684597235e+001,-1.86329334756735e+000

4.16986304336447e+004,-2.39621152973977e+001,-1.88929982861225e+000

4.22807216224550e+004,-2.39621634512808e+001,-1.91566917151305e+000

4.28709385014515e+004,-2.39622129583435e+001,-1.94240643420198e+000

4.34693945010421e+004,-2.39622638565940e+001,-1.96951674490264e+000

4.40762046350642e+004,-2.39623161851074e+001,-1.99700530309713e+000

4.46914855228886e+004,-2.39623699840548e+001,-2.02487738050711e+000

4.53153554118317e+004,-2.39624252947347e+001,-2.05313832208837e+000

4.59479341998812e+004,-2.39624821596044e+001,-2.08179354703689e+000

4.65893434587380e+004,-2.39625406223121e+001,-2.11084854980974e+000

4.72397064571810e+004,-2.39626007277307e+001,-2.14030890116035e+000

4.78991481847569e+004,-2.39626625219919e+001,-2.17018024918458e+000

4.85677953758016e+004,-2.39627260525213e+001,-2.20046832038406e+000

4.92457765337964e+004,-2.39627913680747e+001,-2.23117892074156e+000

4.99332219560642e+004,-2.39628585187756e+001,-2.26231793681091e+000

5.06302637588109e+004,-2.39629275561529e+001,-2.29389133682186e+000

5.13370359025159e+004,-2.39629985331809e+001,-2.32590517179840e+000

5.20536742176771e+004,-2.39630715043190e+001,-2.35836557669379e+000

5.27803164309155e+004,-2.39631465255538e+001,-2.39127877153858e+000

5.35171021914442e+004,-2.39632236544414e+001,-2.42465106260436e+000

5.42641730979066e+004,-2.39633029501518e+001,-2.45848884358265e+000

5.50216727255895e+004,-2.39633844735134e+001,-2.49279859677977e+000

5.57897466540159e+004,-2.39634682870597e+001,-2.52758689432661e+000

5.65685424949235e+004,-2.39635544550771e+001,-2.56286039940453e+000

5.73582099206328e+004,-2.39636430436535e+001,-2.59862586748628e+000

5.81589006928121e+004,-2.39637341207286e+001,-2.63489014759521e+000

5.89707686916437e+004,-2.39638277561462e+001,-2.67166018357807e+000

5.97939699453972e+004,-2.39639240217067e+001,-2.70894301539585e+000

6.06286626604156e+004,-2.39640229912221e+001,-2.74674578043098e+000

6.14750072515201e+004,-2.39641247405720e+001,-2.78507571481128e+000

6.23331663728396e+004,-2.39642293477616e+001,-2.82394015475038e+000

6.32033049490698e+004,-2.39643368929804e+001,-2.86334653790610e+000

6.40855902071694e+004,-2.39644474586638e+001,-2.90330240475574e+000

6.49801917084985e+004,-2.39645611295553e+001,-2.94381539998869e+000

6.58872813814055e+004,-2.39646779927711e+001,-2.98489327391631e+000

6.68070335542691e+004,-2.39647981378661e+001,-3.02654388390088e+000

6.77396249890018e+004,-2.39649216569018e+001,-3.06877519580206e+000

6.86852349150199e+004,-2.39650486445165e+001,-3.11159528543989e+000

6.96440450636895e+004,-2.39651791979966e+001,-3.15501234007871e+000

7.06162397032520e+004,-2.39653134173509e+001,-3.19903465992804e+000

7.16020056742374e+004,-2.39654514053858e+001,-3.24367065966237e+000

7.26015324253724e+004,-2.39655932677835e+001,-3.28892886995929e+000

7.36150120499896e+004,-2.39657391131822e+001,-3.33481793905828e+000

7.46426393229441e+004,-2.39658890532579e+001,-3.38134663433645e+000

7.56846117380472e+004,-2.39660432028093e+001,-3.42852384390484e+000

7.67411295460207e+004,-2.39662016798442e+001,-3.47635857822501e+000

7.78123957929823e+004,-2.39663646056691e+001,-3.52485997174255e+000

7.88986163594682e+004,-2.39665321049806e+001,-3.57403728454345e+000

7.99999999999995e+004,-2.39667043059596e+001,-3.62389990402808e+000

8.11167583832018e+004,-2.39668813403682e+001,-3.67445734660686e+000

8.22491061324848e+004,-2.39670633436487e+001,-3.72571925941468e+000

8.33972608672892e+004,-2.39672504550263e+001,-3.77769542204672e+000

8.45614432449099e+004,-2.39674428176136e+001,-3.83039574831458e+000

8.57418770029029e+004,-2.39676405785183e+001,-3.88383028802283e+000

8.69387890020841e+004,-2.39678438889544e+001,-3.93800922876549e+000

8.81524092701283e+004,-2.39680529043555e+001,-3.99294289774565e+000

8.93829710457770e+004,-2.39682677844918e+001,-4.04864176361294e+000

9.06307108236633e+004,-2.39684886935901e+001,-4.10511643832538e+000

9.18958683997622e+004,-2.39687158004573e+001,-4.16237767902907e+000

9.31786869174758e+004,-2.39689492786067e+001,-4.22043638996246e+000

9.44794129143618e+004,-2.39691893063886e+001,-4.27930362437924e+000

9.57982963695136e+004,-2.39694360671233e+001,-4.33899058649369e+000

9.71355907516031e+004,-2.39696897492388e+001,-4.39950863344891e+000

9.84915530675926e+004,-2.39699505464118e+001,-4.46086927730412e+000

9.98664439121282e+004,-2.39702186577122e+001,-4.52308418704556e+000

1.01260527517622e+005,-2.39704942877520e+001,-4.58616519061849e+000

1.02674071805032e+005,-2.39707776468381e+001,-4.65012427698007e+000

1.04107348435354e+005,-2.39710689511287e+001,-4.71497359817578e+000

1.05560632861831e+005,-2.39713684227950e+001,-4.78072547143647e+000

1.07034204382888e+005,-2.39716762901862e+001,-4.84739238129691e+000

1.08528346195813e+005,-2.39719927879992e+001,-4.91498698173726e+000

1.10043345451179e+005,-2.39723181574537e+001,-4.98352209834500e+000

1.11579493308032e+005,-2.39726526464703e+001,-5.05301073050041e+000

1.13137084989847e+005,-2.39729965098552e+001,-5.12346605358147e+000

1.14716419841265e+005,-2.39733500094885e+001,-5.19490142119259e+000

1.16317801385624e+005,-2.39737134145183e+001,-5.26733036741355e+000

1.17941537383287e+005,-2.39740870015595e+001,-5.34076660907044e+000

1.19587939890794e+005,-2.39744710548982e+001,-5.41522404802773e+000

1.21257325320831e+005,-2.39748658667012e+001,-5.49071677350236e+000

1.22950014503040e+005,-2.39752717372317e+001,-5.56725906439799e+000

1.24666332745679e+005,-2.39756889750699e+001,-5.64486539166069e+000

1.26406609898139e+005,-2.39761178973397e+001,-5.72355042065524e+000

1.28171180414339e+005,-2.39765588299420e+001,-5.80332901356309e+000

1.29960383416997e+005,-2.39770121077932e+001,-5.88421623179845e+000

1.31774562762811e+005,-2.39774780750705e+001,-5.96622733844702e+000

1.33614067108538e+005,-2.39779570854635e+001,-6.04937780072289e+000

1.35479249978003e+005,-2.39784495024327e+001,-6.13368329244557e+000

1.37370469830040e+005,-2.39789556994740e+001,-6.21915969653646e+000

1.39288090127379e+005,-2.39794760603908e+001,-6.30582310753376e+000

1.41232479406504e+005,-2.39800109795732e+001,-6.39368983412644e+000

1.43204011348474e+005,-2.39805608622835e+001,-6.48277640170601e+000

1.45203064850745e+005,-2.39811261249507e+001,-6.57309955493574e+000

1.47230024099979e+005,-2.39817071954705e+001,-6.66467626033800e+000

1.49285278645888e+005,-2.39823045135155e+001,-6.75752370889702e+000

1.51369223476094e+005,-2.39829185308510e+001,-6.85165931867875e+000

1.53482259092041e+005,-2.39835497116605e+001,-6.94710073746640e+000

1.55624791585964e+005,-2.39841985328789e+001,-7.04386584541019e+000

1.57797232718936e+005,-2.39848654845341e+001,-7.14197275769216e+000

1.59999999999999e+005,-2.39855510700975e+001,-7.24143982720411e+000

1.62233516766403e+005,-2.39862558068434e+001,-7.34228564723892e+000

1.64498212264969e+005,-2.39869802262172e+001,-7.44452905419357e+000

1.66794521734578e+005,-2.39877248742134e+001,-7.54818913028354e+000

1.69122886489819e+005,-2.39884903117622e+001,-7.65328520626792e+000

1.71483754005805e+005,-2.39892771151264e+001,-7.75983686418377e+000

1.73877578004168e+005,-2.39900858763086e+001,-7.86786394008873e+000

1.76304818540256e+005,-2.39909172034671e+001,-7.97738652681146e+000

1.78765942091554e+005,-2.39917717213436e+001,-8.08842497670842e+000

1.81261421647326e+005,-2.39926500717002e+001,-8.20099990442610e+000

1.83791736799524e+005,-2.39935529137683e+001,-8.31513218966652e+000

1.86357373834951e+005,-2.39944809247072e+001,-8.43084297995611e+000

1.88958825828723e+005,-2.39954348000749e+001,-8.54815369341607e+000

1.91596592739027e+005,-2.39964152543092e+001,-8.66708602153238e+000

1.94271181503206e+005,-2.39974230212221e+001,-8.78766193192458e+000

1.96983106135185e+005,-2.39984588545037e+001,-8.90990367111147e+000

1.99732887824256e+005,-2.39995235282403e+001,-9.03383376727240e+000

2.02521055035243e+005,-2.40006178374436e+001,-9.15947503300180e+000

2.05348143610063e+005,-2.40017425985923e+001,-9.28685056805622e+000

2.08214696870707e+005,-2.40028986501871e+001,-9.41598376209119e+000

2.11121265723661e+005,-2.40040868533183e+001,-9.54689829738575e+000

2.14068408765776e+005,-2.40053080922461e+001,-9.67961815155427e+000

2.17056692391625e+005,-2.40065632749953e+001,-9.81416760024094e+000

2.20086690902357e+005,-2.40078533339624e+001,-9.95057121979705e+000

2.23158986616063e+005,-2.40091792265376e+001,-1.00888538899370e+001

2.26274169979693e+005,-2.40105419357399e+001,-1.02290407963726e+001

2.29432839682530e+005,-2.40119424708671e+001,-1.03711574334202e+001

2.32635602771247e+005,-2.40133818681601e+001,-1.05152296065817e+001

2.35883074766574e+005,-2.40148611914817e+001,-1.06612834350934e+001

2.39175879781588e+005,-2.40163815330101e+001,-1.08093453544427e+001

2.42514650641661e+005,-2.40179440139482e+001,-1.09594421188465e+001

2.45900029006080e+005,-2.40195497852472e+001,-1.11116008036928e+001

2.49332665491357e+005,-2.40212000283463e+001,-1.12658488079367e+001

2.52813219796278e+005,-2.40228959559279e+001,-1.14222138564529e+001

2.56342360828676e+005,-2.40246388126883e+001,-1.15807240023379e+001

2.59920766833993e+005,-2.40264298761247e+001,-1.17414076291591e+001

2.63549125525621e+005,-2.40282704573383e+001,-1.19042934531480e+001

2.67228134217075e+005,-2.40301619018533e+001,-1.20694105253334e+001

2.70958499956006e+005,-2.40321055904526e+001,-1.22367882336097e+001

2.74740939660078e+005,-2.40341029400301e+001,-1.24064563047375e+001

2.78576180254757e+005,-2.40361554044595e+001,-1.25784448062714e+001

2.82464958813007e+005,-2.40382644754797e+001,-1.27527841484124e+001

2.86408022696948e+005,-2.40404316835973e+001,-1.29295050857770e+001

2.90406129701488e+005,-2.40426585990057e+001,-1.31086387190828e+001

2.94460048199957e+005,-2.40449468325214e+001,-1.32902164967420e+001

2.98570557291775e+005,-2.40472980365373e+001,-1.34742702163600e+001

3.02738446952187e+005,-2.40497139059926e+001,-1.36608320261341e+001

3.06964518184081e+005,-2.40521961793602e+001,-1.38499344261457e+001

3.11249583171928e+005,-2.40547466396508e+001,-1.40416102695422e+001

3.15594465437872e+005,-2.40573671154338e+001,-1.42358927636020e+001

3.19999999999997e+005,-2.40600594818752e+001,-1.44328154706776e+001

3.24467033532806e+005,-2.40628256617928e+001,-1.46324123090110e+001

3.28996424529938e+005,-2.40656676267265e+001,-1.48347175534147e+001

3.33589043469155e+005,-2.40685873980269e+001,-1.50397658358135e+001

3.38245772979638e+005,-2.40715870479591e+001,-1.52475921456394e+001

3.42967508011610e+005,-2.40746687008225e+001,-1.54582318300744e+001

3.47755156008335e+005,-2.40778345340869e+001,-1.56717205941343e+001

3.52609637080511e+005,-2.40810867795440e+001,-1.58880945005864e+001

3.57531884183106e+005,-2.40844277244742e+001,-1.61073899696944e+001

3.62522843294651e+005,-2.40878597128274e+001,-1.63296437787851e+001

3.67583473599047e+005,-2.40913851464198e+001,-1.65548930616262e+001

3.72714747669902e+005,-2.40950064861431e+001,-1.67831753076125e+001

3.77917651657445e+005,-2.40987262531881e+001,-1.70145283607500e+001

3.83193185478053e+005,-2.41025470302809e+001,-1.72489904184308e+001

3.88542363006410e+005,-2.41064714629317e+001,-1.74866000299932e+001

3.93966212270369e+005,-2.41105022606950e+001,-1.77273960950564e+001

3.99465775648511e+005,-2.41146421984409e+001,-1.79714178616252e+001

4.05042110070485e+005,-2.41188941176368e+001,-1.82187049239543e+001

4.10696287220124e+005,-2.41232609276380e+001,-1.84692972201650e+001

4.16429393741414e+005,-2.41277456069881e+001,-1.87232350296076e+001

4.22242531447321e+005,-2.41323512047248e+001,-1.89805589699598e+001

4.28136817531551e+005,-2.41370808416950e+001,-1.92413099940538e+001

4.34113384783250e+005,-2.41419377118730e+001,-1.95055293864237e+001

4.40173381804713e+005,-2.41469250836847e+001,-1.97732587595657e+001

4.46317973232124e+005,-2.41520463013342e+001,-2.00445400499026e+001

4.52548339959385e+005,-2.41573047861324e+001,-2.03194155134439e+001

4.58865679365059e+005,-2.41627040378265e+001,-2.05979277211348e+001

4.65271205542494e+005,-2.41682476359274e+001,-2.08801195538850e+001

4.71766149533147e+005,-2.41739392410365e+001,-2.11660341972703e+001

4.78351759563174e+005,-2.41797825961664e+001,-2.14557151358979e+001

4.85029301283321e+005,-2.41857815280571e+001,-2.17492061474296e+001

4.91800058012158e+005,-2.41919399484846e+001,-2.20465512962540e+001

4.98665330982714e+005,-2.41982618555588e+001,-2.23477949268001e+001

5.05626439592555e+005,-2.42047513350118e+001,-2.26529816564872e+001

5.12684721657352e+005,-2.42114125614713e+001,-2.29621563683020e+001

5.19841533667984e+005,-2.42182497997187e+001,-2.32753642029971e+001

5.27098251051240e+005,-2.42252674059298e+001,-2.35926505509051e+001

5.34456268434150e+005,-2.42324698288948e+001,-2.39140610433619e+001

5.41916999912011e+005,-2.42398616112155e+001,-2.42396415437327e+001

