Freq.,VOut,OutRef

1.00000000000000e+004,-1.68216876248746e+001,-1.06828018796998e-001

1.01395947979003e+004,-1.68216878124477e+001,-1.08319277188668e-001

1.02811382665607e+004,-1.68216880052939e+001,-1.09831352552227e-001

1.04246576084112e+004,-1.68216882035617e+001,-1.11364535470790e-001

1.05701804056138e+004,-1.68216884074030e+001,-1.12919120587376e-001

1.07177346253629e+004,-1.68216886169749e+001,-1.14495406654324e-001

1.08673486252606e+004,-1.68216888324381e+001,-1.16093696595315e-001

1.10190511587661e+004,-1.68216890539586e+001,-1.17714297561587e-001

1.11728713807222e+004,-1.68216892817065e+001,-1.19357520991978e-001

1.13288388529580e+004,-1.68216895158569e+001,-1.21023682672172e-001

1.14869835499703e+004,-1.68216897565896e+001,-1.22713102796803e-001

1.16473358646846e+004,-1.68216900040899e+001,-1.24426106027233e-001

1.18099266142953e+004,-1.68216902585479e+001,-1.26163021558806e-001

1.19747870461893e+004,-1.68216905201592e+001,-1.27924183179655e-001

1.21419488439505e+004,-1.68216907891249e+001,-1.29709929338566e-001

1.23114441334492e+004,-1.68216910656515e+001,-1.31520603208055e-001

1.24833054890161e+004,-1.68216913499519e+001,-1.33356552748529e-001

1.26575659397028e+004,-1.68216916422444e+001,-1.35218130779222e-001

1.28342589756290e+004,-1.68216919427536e+001,-1.37105695043985e-001

1.30134185544193e+004,-1.68216922517107e+001,-1.39019608277507e-001

1.31950791077289e+004,-1.68216925693531e+001,-1.40960238279102e-001

1.33792755478611e+004,-1.68216928959248e+001,-1.42927957981663e-001

1.35660432744767e+004,-1.68216932316767e+001,-1.44923145523501e-001

1.37554181813974e+004,-1.68216935768672e+001,-1.46946184317627e-001

1.39474366635040e+004,-1.68216939317613e+001,-1.48997463132377e-001

1.41421356237309e+004,-1.68216942966318e+001,-1.51077376160759e-001

1.43395524801583e+004,-1.68216946717594e+001,-1.53186323095754e-001

1.45397251732031e+004,-1.68216950574320e+001,-1.55324709211400e-001

1.47426921729110e+004,-1.68216954539461e+001,-1.57492945437262e-001

1.49484924863494e+004,-1.68216958616067e+001,-1.59691448436340e-001

1.51571656651040e+004,-1.68216962807269e+001,-1.61920640688981e-001

1.53687518128801e+004,-1.68216967116287e+001,-1.64180950572746e-001

1.55832915932100e+004,-1.68216971546435e+001,-1.66472812439855e-001

1.58008262372675e+004,-1.68216976101115e+001,-1.68796666709355e-001

1.60213975517924e+004,-1.68216980783829e+001,-1.71152959943165e-001

1.62450479271247e+004,-1.68216985598175e+001,-1.73542144937763e-001

1.64718203453514e+004,-1.68216990547853e+001,-1.75964680807791e-001

1.67017583885674e+004,-1.68216995636667e+001,-1.78421033075459e-001

1.69349062472505e+004,-1.68217000868526e+001,-1.80911673761697e-001

1.71713087287550e+004,-1.68217006247451e+001,-1.83437081471634e-001

1.74110112659224e+004,-1.68217011777577e+001,-1.85997741491631e-001

1.76540599258131e+004,-1.68217017463153e+001,-1.88594145880420e-001

1.79005014185594e+004,-1.68217023308546e+001,-1.91226793563856e-001

1.81503831063432e+004,-1.68217029318248e+001,-1.93896190430845e-001

1.84037530124975e+004,-1.68217035496880e+001,-1.96602849427540e-001

1.86606598307361e+004,-1.68217041849188e+001,-1.99347290661381e-001

1.89211529345119e+004,-1.68217048380050e+001,-2.02130041497828e-001

1.91852823865052e+004,-1.68217055094488e+001,-2.04951636660036e-001

1.94530989482457e+004,-1.68217061997659e+001,-2.07812618333813e-001

1.97246540898671e+004,-1.68217069094869e+001,-2.10713536271045e-001

1.99999999999999e+004,-1.68217076391568e+001,-2.13654947896607e-001

2.02791895958005e+004,-1.68217083893366e+001,-2.16637418410121e-001

2.05622765331213e+004,-1.68217091606023e+001,-2.19661520903797e-001

2.08493152168224e+004,-1.68217099535467e+001,-2.22727836461454e-001

2.11403608112276e+004,-1.68217107687790e+001,-2.25836954277999e-001

2.14354692507258e+004,-1.68217116069254e+001,-2.28989471770770e-001

2.17346972505211e+004,-1.68217124686298e+001,-2.32185994691898e-001

2.20381023175322e+004,-1.68217133545544e+001,-2.35427137244411e-001

2.23457427614443e+004,-1.68217142653797e+001,-2.38713522204734e-001

2.26576777059159e+004,-1.68217152018052e+001,-2.42045781038373e-001

2.29739670999406e+004,-1.68217161645506e+001,-2.45424554018658e-001

2.32946717293690e+004,-1.68217171543553e+001,-2.48850490356571e-001

2.36198532285905e+004,-1.68217181719795e+001,-2.52324248318876e-001

2.39495740923785e+004,-1.68217192182050e+001,-2.55846495357761e-001

2.42838976879009e+004,-1.68217202938355e+001,-2.59417908237423e-001

2.46228882668982e+004,-1.68217213996972e+001,-2.63039173164224e-001

2.49666109780322e+004,-1.68217225366395e+001,-2.66710985918879e-001

2.53151318794055e+004,-1.68217237055355e+001,-2.70434051989625e-001

2.56685179512580e+004,-1.68217249072831e+001,-2.74209086706839e-001

2.60268371088386e+004,-1.68217261428053e+001,-2.78036815379638e-001

2.63901582154578e+004,-1.68217274130510e+001,-2.81917973438233e-001

2.67585510957221e+004,-1.68217287189956e+001,-2.85853306570679e-001

2.71320865489533e+004,-1.68217300616422e+001,-2.89843570868742e-001

2.75108363627948e+004,-1.68217314420218e+001,-2.93889532971018e-001

2.78948733270080e+004,-1.68217328611944e+001,-2.97991970211855e-001

2.82842712474618e+004,-1.68217343202498e+001,-3.02151670768781e-001

2.86791049603164e+004,-1.68217358203084e+001,-3.06369433812701e-001

2.90794503464061e+004,-1.68217373625220e+001,-3.10646069664142e-001

2.94853843458219e+004,-1.68217389480747e+001,-3.14982399946603e-001

2.98969849726987e+004,-1.68217405781840e+001,-3.19379257741964e-001

3.03143313302078e+004,-1.68217422541014e+001,-3.23837487754534e-001

3.07375036257601e+004,-1.68217439771136e+001,-3.28357946469069e-001

3.11665831864199e+004,-1.68217457485433e+001,-3.32941502317315e-001

3.16016524745350e+004,-1.68217475697504e+001,-3.37589035842820e-001

3.20427951035848e+004,-1.68217494421329e+001,-3.42301439869806e-001

3.24900958542493e+004,-1.68217513671283e+001,-3.47079619674714e-001

3.29436406907028e+004,-1.68217533462140e+001,-3.51924493158848e-001

3.34035167771346e+004,-1.68217553809091e+001,-3.56836991025672e-001

3.38698124945009e+004,-1.68217574727753e+001,-3.61818056955709e-001

3.43426174575100e+004,-1.68217596234180e+001,-3.66868647791039e-001

3.48220225318448e+004,-1.68217618344878e+001,-3.71989733715802e-001

3.53081198516260e+004,-1.68217641076815e+001,-3.77182298442814e-001

3.58010028371187e+004,-1.68217664447435e+001,-3.82447339401562e-001

3.63007662126863e+004,-1.68217688474671e+001,-3.87785867929238e-001

3.68075060249948e+004,-1.68217713176957e+001,-3.93198909465160e-001

3.73213196614721e+004,-1.68217738573248e+001,-3.98687503743862e-001

3.78423058690237e+004,-1.68217764683029e+001,-4.04252704996586e-001

3.83705647730104e+004,-1.68217791526327e+001,-4.09895582154247e-001

3.89061978964912e+004,-1.68217819123737e+001,-4.15617219046279e-001

3.94493081797342e+004,-1.68217847496429e+001,-4.21418714613423e-001

3.99999999999998e+004,-1.68217876666163e+001,-4.27301183116721e-001

4.05583791916010e+004,-1.68217906655312e+001,-4.33265754346870e-001

4.11245530662425e+004,-1.68217937486877e+001,-4.39313573844226e-001

4.16986304336447e+004,-1.68217969184502e+001,-4.45445803115119e-001

4.22807216224550e+004,-1.68218001772491e+001,-4.51663619856503e-001

4.28709385014515e+004,-1.68218035275833e+001,-4.57968218177254e-001

4.34693945010421e+004,-1.68218069720216e+001,-4.64360808828132e-001

4.40762046350642e+004,-1.68218105132045e+001,-4.70842619434319e-001

4.46914855228886e+004,-1.68218141538468e+001,-4.77414894725964e-001

4.53153554118317e+004,-1.68218178967391e+001,-4.84078896780093e-001

4.59479341998812e+004,-1.68218217447503e+001,-4.90835905257866e-001

4.65893434587380e+004,-1.68218257008294e+001,-4.97687217650597e-001

4.72397064571810e+004,-1.68218297680082e+001,-5.04634149526742e-001

4.78991481847569e+004,-1.68218339494031e+001,-5.11678034783613e-001

4.85677953758016e+004,-1.68218382482181e+001,-5.18820225899469e-001

4.92457765337964e+004,-1.68218426677465e+001,-5.26062094192656e-001

4.99332219560642e+004,-1.68218472113739e+001,-5.33405030084882e-001

5.06302637588109e+004,-1.68218518825806e+001,-5.40850443362984e-001

5.13370359025159e+004,-1.68218566849444e+001,-5.48399763446974e-001

5.20536742176771e+004,-1.68218616221428e+001,-5.56054439667023e-001

5.27803164309155e+004,-1.68218666979565e+001,-5.63815941534814e-001

5.35171021914442e+004,-1.68218719162719e+001,-5.71685759023284e-001

5.42641730979066e+004,-1.68218772810837e+001,-5.79665402854378e-001

5.50216727255895e+004,-1.68218827964988e+001,-5.87756404780896e-001

5.57897466540159e+004,-1.68218884667383e+001,-5.95960317881753e-001

5.65685424949235e+004,-1.68218942961418e+001,-6.04278716856194e-001

5.73582099206328e+004,-1.68219002891696e+001,-6.12713198321607e-001

5.81589006928121e+004,-1.68219064504072e+001,-6.21265381118642e-001

5.89707686916437e+004,-1.68219127845676e+001,-6.29936906618340e-001

5.97939699453972e+004,-1.68219192964956e+001,-6.38729439033047e-001

6.06286626604156e+004,-1.68219259911715e+001,-6.47644665733053e-001

6.14750072515201e+004,-1.68219328737143e+001,-6.56684297565737e-001

6.23331663728396e+004,-1.68219399493861e+001,-6.65850069180874e-001

6.32033049490698e+004,-1.68219472235955e+001,-6.75143739361194e-001

6.40855902071694e+004,-1.68219547019023e+001,-6.84567091350822e-001

6.49801917084985e+004,-1.68219623900212e+001,-6.94121933198604e-001

6.58872813814055e+004,-1.68219702938262e+001,-7.03810098097349e-001

6.68070335542691e+004,-1.68219784193552e+001,-7.13633444731204e-001

6.77396249890018e+004,-1.68219867728142e+001,-7.23593857628481e-001

6.86852349150199e+004,-1.68219953605824e+001,-7.33693247516647e-001

6.96440450636895e+004,-1.68220041892162e+001,-7.43933551685536e-001

7.06162397032520e+004,-1.68220132654552e+001,-7.54316734350815e-001

7.16020056742374e+004,-1.68220225962260e+001,-7.64844787027361e-001

7.26015324253724e+004,-1.68220321886486e+001,-7.75519728903797e-001

7.36150120499896e+004,-1.68220420500407e+001,-7.86343607224523e-001

7.46426393229441e+004,-1.68220521879238e+001,-7.97318497674090e-001

7.56846117380472e+004,-1.68220626100283e+001,-8.08446504771120e-001

7.67411295460207e+004,-1.68220733242999e+001,-8.19729762262224e-001

7.78123957929823e+004,-1.68220843389047e+001,-8.31170433526282e-001

7.88986163594682e+004,-1.68220956622360e+001,-8.42770711978508e-001

7.99999999999995e+004,-1.68221073029201e+001,-8.54532821486635e-001

8.11167583832018e+004,-1.68221192698228e+001,-8.66459016785042e-001

8.22491061324848e+004,-1.68221315720559e+001,-8.78551583902388e-001

8.33972608672892e+004,-1.68221442189843e+001,-8.90812840586481e-001

8.45614432449099e+004,-1.68221572202321e+001,-9.03245136743716e-001

8.57418770029029e+004,-1.68221705856906e+001,-9.15850854875793e-001

8.69387890020841e+004,-1.68221843255252e+001,-9.28632410528466e-001

8.81524092701283e+004,-1.68221984501829e+001,-9.41592252742234e-001

8.93829710457770e+004,-1.68222129703997e+001,-9.54732864511967e-001

9.06307108236633e+004,-1.68222278972091e+001,-9.68056763250974e-001

9.18958683997622e+004,-1.68222432419497e+001,-9.81566501259473e-001

9.31786869174758e+004,-1.68222590162735e+001,-9.95264666204705e-001

9.44794129143618e+004,-1.68222752321548e+001,-1.00915388159942e+000

9.57982963695136e+004,-1.68222919018988e+001,-1.02323680729323e+000

9.71355907516031e+004,-1.68223090381500e+001,-1.03751613996834e+000

9.84915530675926e+004,-1.68223266539025e+001,-1.05199461364023e+000

9.98664439121282e+004,-1.68223447625083e+001,-1.06667500016574e+000

1.01260527517622e+005,-1.68223633776880e+001,-1.08156010975840e+000

1.02674071805032e+005,-1.68223825135400e+001,-1.09665279151051e+000

1.04107348435354e+005,-1.68224021845509e+001,-1.11195593392002e+000

1.05560632861831e+005,-1.68224224056063e+001,-1.12747246542581e+000

1.07034204382888e+005,-1.68224431920009e+001,-1.14320535495109e+000

1.08528346195813e+005,-1.68224645594502e+001,-1.15915761244923e+000

1.10043345451179e+005,-1.68224865241014e+001,-1.17533228946198e+000

1.11579493308032e+005,-1.68225091025448e+001,-1.19173247968084e+000

1.13137084989847e+005,-1.68225323118260e+001,-1.20836131951810e+000

1.14716419841265e+005,-1.68225561694581e+001,-1.22522198868292e+000

1.16317801385624e+005,-1.68225806934338e+001,-1.24231771076604e+000

1.17941537383287e+005,-1.68226059022387e+001,-1.25965175383184e+000

1.19587939890794e+005,-1.68226318148637e+001,-1.27722743101757e+000

1.21257325320831e+005,-1.68226584508192e+001,-1.29504810113976e+000

1.22950014503040e+005,-1.68226858301487e+001,-1.31311716930750e+000

1.24666332745679e+005,-1.68227139734421e+001,-1.33143808754738e+000

1.26406609898139e+005,-1.68227429018515e+001,-1.35001435542935e+000

1.28171180414339e+005,-1.68227726371050e+001,-1.36884952070663e+000

1.29960383416997e+005,-1.68228032015220e+001,-1.38794717996007e+000

1.31774562762811e+005,-1.68228346180295e+001,-1.40731097925074e+000

1.33614067108538e+005,-1.68228669101771e+001,-1.42694461478238e+000

1.35479249978003e+005,-1.68229001021536e+001,-1.44685183356997e+000

1.37370469830040e+005,-1.68229342188041e+001,-1.46703643411622e+000

1.39288090127379e+005,-1.68229692856467e+001,-1.48750226709873e+000

1.41232479406504e+005,-1.68230053288900e+001,-1.50825323606194e+000

1.43204011348474e+005,-1.68230423754513e+001,-1.52929329812073e+000

1.45203064850745e+005,-1.68230804529747e+001,-1.55062646467022e+000

1.47230024099979e+005,-1.68231195898501e+001,-1.57225680210525e+000

1.49285278645888e+005,-1.68231598152323e+001,-1.59418843254665e+000

1.51369223476094e+005,-1.68232011590604e+001,-1.61642553457880e+000

1.53482259092041e+005,-1.68232436520784e+001,-1.63897234399348e+000

1.55624791585964e+005,-1.68232873258557e+001,-1.66183315454371e+000

1.57797232718936e+005,-1.68233322128076e+001,-1.68501231870576e+000

1.59999999999999e+005,-1.68233783462176e+001,-1.70851424845025e+000

1.62233516766403e+005,-1.68234257602587e+001,-1.73234341602224e+000

1.64498212264969e+005,-1.68234744900166e+001,-1.75650435472991e+000

1.66794521734578e+005,-1.68235245715118e+001,-1.78100165974293e+000

1.69122886489819e+005,-1.68235760417241e+001,-1.80583998889909e+000

1.71483754005805e+005,-1.68236289386156e+001,-1.83102406352074e+000

1.73877578004168e+005,-1.68236833011561e+001,-1.85655866923990e+000

1.76304818540256e+005,-1.68237391693474e+001,-1.88244865683276e+000

1.78765942091554e+005,-1.68237965842493e+001,-1.90869894306415e+000

1.81261421647326e+005,-1.68238555880056e+001,-1.93531451154027e+000

1.83791736799524e+005,-1.68239162238708e+001,-1.96230041357034e+000

1.86357373834951e+005,-1.68239785362370e+001,-1.98966176904158e+000

1.88958825828723e+005,-1.68240425706619e+001,-2.01740376729705e+000

1.91596592739027e+005,-1.68241083738973e+001,-2.04553166802904e+000

1.94271181503206e+005,-1.68241759939170e+001,-2.07405080217993e+000

1.96983106135185e+005,-1.68242454799475e+001,-2.10296657285041e+000

1.99732887824256e+005,-1.68243168824969e+001,-2.13228445622162e+000

2.02521055035243e+005,-1.68243902533859e+001,-2.16201000248410e+000

2.05348143610063e+005,-1.68244656457792e+001,-2.19214883677585e+000

2.08214696870707e+005,-1.68245431142163e+001,-2.22270666013402e+000

2.11121265723661e+005,-1.68246227146446e+001,-2.25368925045211e+000

2.14068408765776e+005,-1.68247045044518e+001,-2.28510246344920e+000

2.17056692391625e+005,-1.68247885424995e+001,-2.31695223364942e+000

2.20086690902357e+005,-1.68248748891567e+001,-2.34924457536976e+000

2.23158986616063e+005,-1.68249636063351e+001,-2.38198558372000e+000

2.26274169979693e+005,-1.68250547575234e+001,-2.41518143561038e+000

2.29432839682530e+005,-1.68251484078237e+001,-2.44883839077063e+000

2.32635602771247e+005,-1.68252446239870e+001,-2.48296279277981e+000

2.35883074766574e+005,-1.68253434744505e+001,-2.51756107010391e+000

2.39175879781588e+005,-1.68254450293748e+001,-2.55263973714665e+000

2.42514650641661e+005,-1.68255493606816e+001,-2.58820539530704e+000

2.45900029006080e+005,-1.68256565420921e+001,-2.62426473405105e+000

2.49332665491357e+005,-1.68257666491663e+001,-2.66082453198990e+000

2.52813219796278e+005,-1.68258797593419e+001,-2.69789165797103e+000

2.56342360828676e+005,-1.68259959519744e+001,-2.73547307217906e+000

2.59920766833993e+005,-1.68261153083777e+001,-2.77357582724612e+000

2.63549125525621e+005,-1.68262379118648e+001,-2.81220706937349e+000

2.67228134217075e+005,-1.68263638477889e+001,-2.85137403946431e+000

2.70958499956006e+005,-1.68264932035857e+001,-2.89108407426518e+000

2.74740939660078e+005,-1.68266260688150e+001,-2.93134460752027e+000

2.78576180254757e+005,-1.68267625352035e+001,-2.97216317113458e+000

2.82464958813007e+005,-1.68269026966879e+001,-3.01354739634854e+000

2.86408022696948e+005,-1.68270466494578e+001,-3.05550501492465e+000

2.90406129701488e+005,-1.68271944919994e+001,-3.09804386034255e+000

2.94460048199957e+005,-1.68273463251398e+001,-3.14117186900691e+000

2.98570557291775e+005,-1.68275022520902e+001,-3.18489708146672e+000

3.02738446952187e+005,-1.68276623784914e+001,-3.22922764364380e+000

3.06964518184081e+005,-1.68278268124571e+001,-3.27417180807575e+000

3.11249583171928e+005,-1.68279956646198e+001,-3.31973793516653e+000

3.15594465437872e+005,-1.68281690481745e+001,-3.36593449445222e+000

3.19999999999997e+005,-1.68283470789246e+001,-3.41277006587636e+000

3.24467033532806e+005,-1.68285298753257e+001,-3.46025334107823e+000

3.28996424529938e+005,-1.68287175585316e+001,-3.50839312469290e+000

3.33589043469155e+005,-1.68289102524383e+001,-3.55719833566332e+000

3.38245772979638e+005,-1.68291080837290e+001,-3.60667800856621e+000

3.42967508011610e+005,-1.68293111819185e+001,-3.65684129494862e+000

3.47755156008335e+005,-1.68295196793978e+001,-3.70769746468065e+000

3.52609637080511e+005,-1.68297337114777e+001,-3.75925590731744e+000

3.57531884183106e+005,-1.68299534164330e+001,-3.81152613347950e+000

3.62522843294651e+005,-1.68301789355452e+001,-3.86451777624222e+000

3.67583473599047e+005,-1.68304104131459e+001,-3.91824059254473e+000

3.72714747669902e+005,-1.68306479966586e+001,-3.97270446460862e+000

3.77917651657445e+005,-1.68308918366408e+001,-4.02791940137633e+000

3.83193185478053e+005,-1.68311420868249e+001,-4.08389553996144e+000

3.88542363006410e+005,-1.68313989041582e+001,-4.14064314711809e+000

3.93966212270369e+005,-1.68316624488432e+001,-4.19817262072483e+000

3.99465775648511e+005,-1.68319328843752e+001,-4.25649449128751e+000

4.05042110070485e+005,-1.68322103775810e+001,-4.31561942345909e+000

4.10696287220124e+005,-1.68324950986548e+001,-4.37555821757782e+000

4.16429393741414e+005,-1.68327872211939e+001,-4.43632181122588e+000

4.22242531447321e+005,-1.68330869222336e+001,-4.49792128080609e+000

4.28136817531551e+005,-1.68333943822797e+001,-4.56036784314228e+000

4.34113384783250e+005,-1.68337097853405e+001,-4.62367285709811e+000

4.40173381804713e+005,-1.68340333189575e+001,-4.68784782522091e+000

4.46317973232124e+005,-1.68343651742338e+001,-4.75290439540819e+000

4.52548339959385e+005,-1.68347055458619e+001,-4.81885436259895e+000

4.58865679365059e+005,-1.68350546321493e+001,-4.88570967049027e+000

4.65271205542494e+005,-1.68354126350427e+001,-4.95348241328159e+000

4.71766149533147e+005,-1.68357797601502e+001,-5.02218483744626e+000

4.78351759563174e+005,-1.68361562167619e+001,-5.09182934353363e+000

4.85029301283321e+005,-1.68365422178685e+001,-5.16242848799972e+000

4.91800058012158e+005,-1.68369379801781e+001,-5.23399498507295e+000

4.98665330982714e+005,-1.68373437241313e+001,-5.30654170865111e+000

5.05626439592555e+005,-1.68377596739135e+001,-5.38008169423503e+000

5.12684721657352e+005,-1.68381860574660e+001,-5.45462814089863e+000

5.19841533667984e+005,-1.68386231064946e+001,-5.53019441329738e+000

5.27098251051240e+005,-1.68390710564764e+001,-5.60679404371777e+000

5.34456268434150e+005,-1.68395301466645e+001,-5.68444073416886e+000

5.41916999912011e+005,-1.68400006200903e+001,-5.76314835851725e+000

