Freq.,VOut,OutRef

1.00000000000000e+004,-7.66395501431131e+000,-1.77611278506949e-002

1.01395947979003e+004,-7.66395515983474e+000,-1.80090577589602e-002

1.02811382665607e+004,-7.66395530944881e+000,-1.82604483781339e-002

1.04246576084112e+004,-7.66395546326892e+000,-1.85153480041298e-002

1.05701804056138e+004,-7.66395562141311e+000,-1.87738056103923e-002

1.07177346253629e+004,-7.66395578400282e+000,-1.90358708529944e-002

1.08673486252606e+004,-7.66395595116310e+000,-1.93015940796841e-002

1.10190511587661e+004,-7.66395612302271e+000,-1.95710263384638e-002

1.11728713807222e+004,-7.66395629971315e+000,-1.98442193960783e-002

1.13288388529580e+004,-7.66395648137081e+000,-2.01212257326409e-002

1.14869835499703e+004,-7.66395666813483e+000,-2.04020985679668e-002

1.16473358646846e+004,-7.66395686014918e+000,-2.06868918578048e-002

1.18099266142953e+004,-7.66395705756118e+000,-2.09756603151279e-002

1.19747870461893e+004,-7.66395726052193e+000,-2.12684594183441e-002

1.21419488439505e+004,-7.66395746918869e+000,-2.15653454068203e-002

1.23114441334492e+004,-7.66395768372078e+000,-2.18663753198974e-002

1.24833054890161e+004,-7.66395790428361e+000,-2.21716069820766e-002

1.26575659397028e+004,-7.66395813104662e+000,-2.24810990277332e-002

1.28342589756290e+004,-7.66395836418407e+000,-2.27949109089474e-002

1.30134185544193e+004,-7.66395860387468e+000,-2.31131029096217e-002

1.31950791077289e+004,-7.66395885030311e+000,-2.34357361482153e-002

1.33792755478611e+004,-7.66395910365842e+000,-2.37628726000895e-002

1.35660432744767e+004,-7.66395936413568e+000,-2.40945751010371e-002

1.37554181813974e+004,-7.66395963193515e+000,-2.44309073642047e-002

1.39474366635040e+004,-7.66395990726220e+000,-2.47719339950287e-002

1.41421356237309e+004,-7.66396019032793e+000,-2.51177204989348e-002

1.43395524801583e+004,-7.66396048135086e+000,-2.54683332864011e-002

1.45397251732031e+004,-7.66396078055423e+000,-2.58238397014742e-002

1.47426921729110e+004,-7.66396108816766e+000,-2.61843080267588e-002

1.49484924863494e+004,-7.66396140442810e+000,-2.65498074918125e-002

1.51571656651040e+004,-7.66396172957817e+000,-2.69204082964359e-002

1.53687518128801e+004,-7.66396206386755e+000,-2.72961816180119e-002

1.55832915932100e+004,-7.66396240755333e+000,-2.76771996230596e-002

1.58008262372675e+004,-7.66396276089976e+000,-2.80635354851005e-002

1.60213975517924e+004,-7.66396312417768e+000,-2.84552634018426e-002

1.62450479271247e+004,-7.66396349766677e+000,-2.88524585976322e-002

1.64718203453514e+004,-7.66396388165407e+000,-2.92551973480787e-002

1.67017583885674e+004,-7.66396427643401e+000,-2.96635569965288e-002

1.69349062472505e+004,-7.66396468231016e+000,-3.00776159577265e-002

1.71713087287550e+004,-7.66396509959466e+000,-3.04974537393966e-002

1.74110112659224e+004,-7.66396552860732e+000,-3.09231509635964e-002

1.76540599258131e+004,-7.66396596967853e+000,-3.13547893657000e-002

1.79005014185594e+004,-7.66396642314705e+000,-3.17924518250920e-002

1.81503831063432e+004,-7.66396688936065e+000,-3.22362223797492e-002

1.84037530124975e+004,-7.66396736867772e+000,-3.26861862321595e-002

1.86606598307361e+004,-7.66396786146661e+000,-3.31424297723573e-002

1.89211529345119e+004,-7.66396836810574e+000,-3.36050405957363e-002

1.91852823865052e+004,-7.66396888898438e+000,-3.40741075156540e-002

1.94530989482457e+004,-7.66396942450258e+000,-3.45497205837271e-002

1.97246540898671e+004,-7.66396997507135e+000,-3.50319711070468e-002

1.99999999999999e+004,-7.66397054111376e+000,-3.55209516610361e-002

2.02791895958005e+004,-7.66397112306504e+000,-3.60167561077918e-002

2.05622765331213e+004,-7.66397172137140e+000,-3.65194796249187e-002

2.08493152168224e+004,-7.66397233649266e+000,-3.70292187073392e-002

2.11403608112276e+004,-7.66397296890140e+000,-3.75460711943479e-002

2.14354692507258e+004,-7.66397361908270e+000,-3.80701362923881e-002

2.17346972505211e+004,-7.66397428753660e+000,-3.86015145794002e-002

2.20381023175322e+004,-7.66397497477600e+000,-3.91403080411404e-002

2.23457427614443e+004,-7.66397568132879e+000,-3.96866200784874e-002

2.26576777059159e+004,-7.66397640773705e+000,-4.02405555354077e-002

2.29739670999406e+004,-7.66397715455929e+000,-4.08022207061282e-002

2.32946717293690e+004,-7.66397792236813e+000,-4.13717233742917e-002

2.36198532285905e+004,-7.66397871175394e+000,-4.19491728118916e-002

2.39495740923785e+004,-7.66397952332170e+000,-4.25346798232683e-002

2.42838976879009e+004,-7.66398035769563e+000,-4.31283567394029e-002

2.46228882668982e+004,-7.66398121551549e+000,-4.37303174658736e-002

2.49666109780322e+004,-7.66398209744024e+000,-4.43406774844071e-002

2.53151318794055e+004,-7.66398300414639e+000,-4.49595538878812e-002

2.56685179512580e+004,-7.66398393633029e+000,-4.55870653917741e-002

2.60268371088386e+004,-7.66398489470753e+000,-4.62233323632986e-002

2.63901582154578e+004,-7.66398588001359e+000,-4.68684768442467e-002

2.67585510957221e+004,-7.66398689300458e+000,-4.75226225715253e-002

2.71320865489533e+004,-7.66398793445790e+000,-4.81858950019056e-002

2.75108363627948e+004,-7.66398900517311e+000,-4.88584213322138e-002

2.78948733270080e+004,-7.66399010597168e+000,-4.95403305292445e-002

2.82842712474618e+004,-7.66399123769826e+000,-5.02317533506658e-002

2.86791049603164e+004,-7.66399240122089e+000,-5.09328223717193e-002

2.90794503464061e+004,-7.66399359743311e+000,-5.16436720010481e-002

2.94853843458219e+004,-7.66399482725223e+000,-5.23644385211797e-002

2.98969849726987e+004,-7.66399609162155e+000,-5.30952601051710e-002

3.03143313302078e+004,-7.66399739151168e+000,-5.38362768379833e-002

3.07375036257601e+004,-7.66399872791902e+000,-5.45876307573084e-002

3.11665831864199e+004,-7.66400010186894e+000,-5.53494658651262e-002

3.16016524745350e+004,-7.66400151441545e+000,-5.61219281617043e-002

3.20427951035848e+004,-7.66400296664169e+000,-5.69051656743341e-002

3.24900958542493e+004,-7.66400445966147e+000,-5.76993284813193e-002

3.29436406907028e+004,-7.66400599461964e+000,-5.85045687427976e-002

3.34035167771346e+004,-7.66400757269324e+000,-5.93210407269265e-002

3.38698124945009e+004,-7.66400919509217e+000,-6.01489008410705e-002

3.43426174575100e+004,-7.66401086306038e+000,-6.09883076583828e-002

3.48220225318448e+004,-7.66401257787650e+000,-6.18394219497863e-002

3.53081198516260e+004,-7.66401434085506e+000,-6.27024067123032e-002

3.58010028371187e+004,-7.66401615334759e+000,-6.35774271988808e-002

3.63007662126863e+004,-7.66401801674277e+000,-6.44646509545886e-002

3.68075060249948e+004,-7.66401993246887e+000,-6.53642478386104e-002

3.73213196614721e+004,-7.66402190199419e+000,-6.62763900602659e-002

3.78423058690237e+004,-7.66402392682736e+000,-6.72012522161998e-002

3.83705647730104e+004,-7.66402600852018e+000,-6.81390113119023e-002

3.89061978964912e+004,-7.66402814866714e+000,-6.90898468040664e-002

3.94493081797342e+004,-7.66403034890758e+000,-7.00539406294276e-002

3.99999999999998e+004,-7.66403261092699e+000,-7.10314772363816e-002

4.05583791916010e+004,-7.66403493645760e+000,-7.20226436244670e-002

4.11245530662425e+004,-7.66403732728009e+000,-7.30276293754546e-002

4.16986304336447e+004,-7.66403978522514e+000,-7.40466266879370e-002

4.22807216224550e+004,-7.66404231217465e+000,-7.50798304122475e-002

4.28709385014515e+004,-7.66404491006296e+000,-7.61274380886530e-002

4.34693945010421e+004,-7.66404758087866e+000,-7.71896499814079e-002

4.40762046350642e+004,-7.66405032666599e+000,-7.82666691153092e-002

4.46914855228886e+004,-7.66405314952545e+000,-7.93587013189775e-002

4.53153554118317e+004,-7.66405605161738e+000,-8.04659552504156e-002

4.59479341998812e+004,-7.66405903516186e+000,-8.15886424443544e-002

4.65893434587380e+004,-7.66406210244110e+000,-8.27269773485671e-002

4.72397064571810e+004,-7.66406525580086e+000,-8.38811773623444e-002

4.78991481847569e+004,-7.66406849765276e+000,-8.50514628746247e-002

4.85677953758016e+004,-7.66407183047504e+000,-8.62380573087595e-002

4.92457765337964e+004,-7.66407525681612e+000,-8.74411871530808e-002

4.99332219560642e+004,-7.66407877929455e+000,-8.86610820140302e-002

5.06302637588109e+004,-7.66408240060226e+000,-8.98979746494631e-002

5.13370359025159e+004,-7.66408612350638e+000,-9.11521010119238e-002

5.20536742176771e+004,-7.66408995085129e+000,-9.24237002902778e-002

5.27803164309155e+004,-7.66409388556005e+000,-9.37130149584361e-002

5.35171021914442e+004,-7.66409793063820e+000,-9.50202908068979e-002

5.42641730979066e+004,-7.66410208917343e+000,-9.63457770041496e-002

5.50216727255895e+004,-7.66410636434128e+000,-9.76897261187716e-002

5.57897466540159e+004,-7.66411075940420e+000,-9.90523941857776e-002

5.65685424949235e+004,-7.66411527771613e+000,-1.00434040737950e-001

5.73582099206328e+004,-7.66411992272443e+000,-1.01834928855505e-001

5.81589006928121e+004,-7.66412469797236e+000,-1.03255325213083e-001

5.89707686916437e+004,-7.66412960710131e+000,-1.04695500129285e-001

5.97939699453972e+004,-7.66413465385410e+000,-1.06155727609916e-001

6.06286626604156e+004,-7.66413984207786e+000,-1.07636285395889e-001

6.14750072515201e+004,-7.66414517572605e+000,-1.09137455016565e-001

6.23331663728396e+004,-7.66415065886278e+000,-1.10659521830006e-001

6.32033049490698e+004,-7.66415629566422e+000,-1.12202775082557e-001

6.40855902071694e+004,-7.66416209042305e+000,-1.13767507950095e-001

6.49801917084985e+004,-7.66416804755039e+000,-1.15354017597547e-001

6.58872813814055e+004,-7.66417417158022e+000,-1.16962605220747e-001

6.68070335542691e+004,-7.66418046717224e+000,-1.18593576102684e-001

6.77396249890018e+004,-7.66418693911500e+000,-1.20247239666047e-001

6.86852349150199e+004,-7.66419359233004e+000,-1.21923909523775e-001

6.96440450636895e+004,-7.66420043187500e+000,-1.23623903533865e-001

7.06162397032520e+004,-7.66420746294722e+000,-1.25347543854304e-001

7.16020056742374e+004,-7.66421469088844e+000,-1.27095156991568e-001

7.26015324253724e+004,-7.66422212118782e+000,-1.28867073861107e-001

7.36150120499896e+004,-7.66422975948631e+000,-1.30663629840215e-001

7.46426393229441e+004,-7.66423761158055e+000,-1.32485164824697e-001

7.56846117380472e+004,-7.66424568342737e+000,-1.34332023283994e-001

7.67411295460207e+004,-7.66425398114858e+000,-1.36204554314561e-001

7.78123957929823e+004,-7.66426251103365e+000,-1.38103111708569e-001

7.88986163594682e+004,-7.66427127954643e+000,-1.40028053997681e-001

7.99999999999995e+004,-7.66428029332870e+000,-1.41979744518681e-001

8.11167583832018e+004,-7.66428955920520e+000,-1.43958551470020e-001

8.22491061324848e+004,-7.66429908418820e+000,-1.45964847974453e-001

8.33972608672892e+004,-7.66430887548302e+000,-1.47999012134404e-001

8.45614432449099e+004,-7.66431894049351e+000,-1.50061427090754e-001

8.57418770029029e+004,-7.66432928682619e+000,-1.52152481090643e-001

8.69387890020841e+004,-7.66433992229690e+000,-1.54272567540921e-001

8.81524092701283e+004,-7.66435085493619e+000,-1.56422085070647e-001

8.93829710457770e+004,-7.66436209299382e+000,-1.58601437600581e-001

9.06307108236633e+004,-7.66437364494657e+000,-1.60811034393046e-001

9.18958683997622e+004,-7.66438551950314e+000,-1.63051290121903e-001

9.31786869174758e+004,-7.66439772560973e+000,-1.65322624938890e-001

9.44794129143618e+004,-7.66441027245823e+000,-1.67625464525351e-001

9.57982963695136e+004,-7.66442316949066e+000,-1.69960240168881e-001

9.71355907516031e+004,-7.66443642640721e+000,-1.72327388817899e-001

9.84915530675926e+004,-7.66445005317257e+000,-1.74727353149900e-001

9.98664439121282e+004,-7.66446406002269e+000,-1.77160581636462e-001

1.01260527517622e+005,-7.66447845747227e+000,-1.79627528606461e-001

1.02674071805032e+005,-7.66449325632212e+000,-1.82128654310879e-001

1.04107348435354e+005,-7.66450846766620e+000,-1.84664424990645e-001

1.05560632861831e+005,-7.66452410290012e+000,-1.87235312937758e-001

1.07034204382888e+005,-7.66454017372765e+000,-1.89841796568340e-001

1.08528346195813e+005,-7.66455669217047e+000,-1.92484360479240e-001

1.10043345451179e+005,-7.66457367057490e+000,-1.95163495522067e-001

1.11579493308032e+005,-7.66459112162120e+000,-1.97879698865235e-001

1.13137084989847e+005,-7.66460905833190e+000,-2.00633474060818e-001

1.14716419841265e+005,-7.66462749408099e+000,-2.03425331109335e-001

1.16317801385624e+005,-7.66464644260232e+000,-2.06255786529616e-001

1.17941537383287e+005,-7.66466591799919e+000,-2.09125363422932e-001

1.19587939890794e+005,-7.66468593475390e+000,-2.12034591537896e-001

1.21257325320831e+005,-7.66470650773742e+000,-2.14984007338102e-001

1.22950014503040e+005,-7.66472765221919e+000,-2.17974154066332e-001

1.24666332745679e+005,-7.66474938387676e+000,-2.21005581814908e-001

1.26406609898139e+005,-7.66477171880723e+000,-2.24078847583247e-001

1.28171180414339e+005,-7.66479467353655e+000,-2.27194515350979e-001

1.29960383416997e+005,-7.66481826503140e+000,-2.30353156136802e-001

1.31774562762811e+005,-7.66484251070907e+000,-2.33555348067948e-001

1.33614067108538e+005,-7.66486742845004e+000,-2.36801676438628e-001

1.35479249978003e+005,-7.66489303660845e+000,-2.40092733777229e-001

1.37370469830040e+005,-7.66491935402408e+000,-2.43429119909953e-001

1.39288090127379e+005,-7.66494640003440e+000,-2.46811442021115e-001

1.41232479406504e+005,-7.66497419448692e+000,-2.50240314714723e-001

1.43204011348474e+005,-7.66500275775141e+000,-2.53716360076599e-001

1.45203064850745e+005,-7.66503211073276e+000,-2.57240207733674e-001

1.47230024099979e+005,-7.66506227488401e+000,-2.60812494912758e-001

1.49285278645888e+005,-7.66509327221907e+000,-2.64433866502030e-001

1.51369223476094e+005,-7.66512512532687e+000,-2.68104975103809e-001

1.53482259092041e+005,-7.66515785738449e+000,-2.71826481094073e-001

1.55624791585964e+005,-7.66519149217173e+000,-2.75599052674036e-001

1.57797232718936e+005,-7.66522605408480e+000,-2.79423365927250e-001

1.59999999999999e+005,-7.66526156815090e+000,-2.83300104870691e-001

1.62233516766403e+005,-7.66529806004297e+000,-2.87229961505532e-001

1.64498212264969e+005,-7.66533555609501e+000,-2.91213635864584e-001

1.66794521734578e+005,-7.66537408331675e+000,-2.95251836063023e-001

1.69122886489819e+005,-7.66541366940924e+000,-2.99345278343737e-001

1.71483754005805e+005,-7.66545434278116e+000,-3.03494687117170e-001

1.73877578004168e+005,-7.66549613256374e+000,-3.07700795010097e-001

1.76304818540256e+005,-7.66553906862811e+000,-3.11964342898634e-001

1.78765942091554e+005,-7.66558318160058e+000,-3.16286079952337e-001

1.81261421647326e+005,-7.66562850288018e+000,-3.20666763664818e-001

1.83791736799524e+005,-7.66567506465518e+000,-3.25107159888125e-001

1.86357373834951e+005,-7.66572289992008e+000,-3.29608042864610e-001

1.88958825828723e+005,-7.66577204249334e+000,-3.34170195251595e-001

1.91596592739027e+005,-7.66582252703426e+000,-3.38794408149513e-001

1.94271181503206e+005,-7.66587438906142e+000,-3.43481481119884e-001

1.96983106135185e+005,-7.66592766496976e+000,-3.48232222209085e-001

1.99732887824256e+005,-7.66598239204932e+000,-3.53047447958841e-001

2.02521055035243e+005,-7.66603860850318e+000,-3.57927983420608e-001

2.05348143610063e+005,-7.66609635346597e+000,-3.62874662162450e-001

2.08214696870707e+005,-7.66615566702192e+000,-3.67888326277126e-001

2.11121265723661e+005,-7.66621659022413e+000,-3.72969826378760e-001

2.14068408765776e+005,-7.66627916511285e+000,-3.78120021602221e-001

2.17056692391625e+005,-7.66634343473461e+000,-3.83339779593418e-001

2.20086690902357e+005,-7.66640944316091e+000,-3.88629976499434e-001

2.23158986616063e+005,-7.66647723550692e+000,-3.93991496952082e-001

2.26274169979693e+005,-7.66654685795096e+000,-3.99425234045063e-001

2.29432839682530e+005,-7.66661835775320e+000,-4.04932089308015e-001

2.32635602771247e+005,-7.66669178327442e+000,-4.10512972677110e-001

2.35883074766574e+005,-7.66676718399495e+000,-4.16168802457661e-001

2.39175879781588e+005,-7.66684461053405e+000,-4.21900505279095e-001

2.42514650641661e+005,-7.66692411466771e+000,-4.27709016051922e-001

2.45900029006080e+005,-7.66700574934735e+000,-4.33595277914009e-001

2.49332665491357e+005,-7.66708956871914e+000,-4.39560242164411e-001

2.52813219796278e+005,-7.66717562814061e+000,-4.45604868207996e-001

2.56342360828676e+005,-7.66726398419990e+000,-4.51730123473989e-001

2.59920766833993e+005,-7.66735469473253e+000,-4.57936983341900e-001

2.63549125525621e+005,-7.66744781883877e+000,-4.64226431057006e-001

2.67228134217075e+005,-7.66754341690072e+000,-4.70599457634212e-001

2.70958499956006e+005,-7.66764155059856e+000,-4.77057061760701e-001

2.74740939660078e+005,-7.66774228292648e+000,-4.83600249688894e-001

2.78576180254757e+005,-7.66784567820800e+000,-4.90230035121745e-001

2.82464958813007e+005,-7.66795180211075e+000,-4.96947439090275e-001

2.86408022696948e+005,-7.66806072166062e+000,-5.03753489824291e-001

2.90406129701488e+005,-7.66817250525485e+000,-5.10649222615117e-001

2.94460048199957e+005,-7.66828722267491e+000,-5.17635679668339e-001

2.98570557291775e+005,-7.66840494509798e+000,-5.24713909949911e-001

3.02738446952187e+005,-7.66852574510779e+000,-5.31884969023622e-001

3.06964518184081e+005,-7.66864969670406e+000,-5.39149918880786e-001

3.11249583171928e+005,-7.66877687531150e+000,-5.46509827758788e-001

3.15594465437872e+005,-7.66890735778675e+000,-5.53965769954629e-001

3.19999999999997e+005,-7.66904122242493e+000,-5.61518825625719e-001

3.24467033532806e+005,-7.66917854896429e+000,-5.69170080584419e-001

3.28996424529938e+005,-7.66931941858899e+000,-5.76920626085128e-001

3.33589043469155e+005,-7.66946391393135e+000,-5.84771558598091e-001

3.38245772979638e+005,-7.66961211907223e+000,-5.92723979574489e-001

3.42967508011610e+005,-7.66976411953791e+000,-6.00778995212828e-001

3.47755156008335e+005,-7.66992000229817e+000,-6.08937716197802e-001

3.52609637080511e+005,-7.67007985575914e+000,-6.17201257450518e-001

3.57531884183106e+005,-7.67024376975658e+000,-6.25570737854349e-001

3.62522843294651e+005,-7.67041183554541e+000,-6.34047279981188e-001

3.67583473599047e+005,-7.67058414578705e+000,-6.42632009807894e-001

3.72714747669902e+005,-7.67076079453509e+000,-6.51326056420586e-001

3.77917651657445e+005,-7.67094187721731e+000,-6.60130551716054e-001

3.83193185478053e+005,-7.67112749061535e+000,-6.69046630093920e-001

3.88542363006410e+005,-7.67131773284160e+000,-6.78075428140074e-001

3.93966212270369e+005,-7.67151270331293e+000,-6.87218084304371e-001

3.99465775648511e+005,-7.67171250272074e+000,-6.96475738573734e-001

4.05042110070485e+005,-7.67191723299844e+000,-7.05849532136668e-001

4.10696287220124e+005,-7.67212699728483e+000,-7.15340607042875e-001

4.16429393741414e+005,-7.67234189988397e+000,-7.24950105860316e-001

4.22242531447321e+005,-7.67256204622146e+000,-7.34679171324608e-001

4.28136817531551e+005,-7.67278754279617e+000,-7.44528945989069e-001

4.34113384783250e+005,-7.67301849712835e+000,-7.54500571869762e-001

4.40173381804713e+005,-7.67325501770332e+000,-7.64595190088418e-001

4.46317973232124e+005,-7.67349721391038e+000,-7.74813940517334e-001

4.52548339959385e+005,-7.67374519597760e+000,-7.85157961421224e-001

4.58865679365059e+005,-7.67399907490140e+000,-7.95628389103090e-001

4.65271205542494e+005,-7.67425896237123e+000,-8.06226357552470e-001

4.71766149533147e+005,-7.67452497068941e+000,-8.16952998096360e-001

4.78351759563174e+005,-7.67479721268554e+000,-8.27809439055243e-001

4.85029301283321e+005,-7.67507580162562e+000,-8.38796805407121e-001

4.91800058012158e+005,-7.67536085111506e+000,-8.49916218460964e-001

4.98665330982714e+005,-7.67565247499735e+000,-8.61168795533942e-001

5.05626439592555e+005,-7.67595078724500e+000,-8.72555649650415e-001

5.12684721657352e+005,-7.67625590184645e+000,-8.84077889243463e-001

5.19841533667984e+005,-7.67656793268562e+000,-8.95736617879528e-001

5.27098251051240e+005,-7.67688699341583e+000,-9.07532933997252e-001

5.34456268434150e+005,-7.67721319732706e+000,-9.19467930668191e-001

5.41916999912011e+005,-7.67754665720791e+000,-9.31542695372768e-001

