Freq.,VOut,OutRef

1.00000000000000e+004,-2.09191770364424e+001,-4.99718877104092e-002

1.01395947979003e+004,-2.09191771624568e+001,-5.06694649164508e-002

1.02811382665607e+004,-2.09191772920137e+001,-5.13767797522996e-002

1.04246576084112e+004,-2.09191774252131e+001,-5.20939681409026e-002

1.05701804056138e+004,-2.09191775621563e+001,-5.28211679088238e-002

1.07177346253629e+004,-2.09191777029497e+001,-5.35585187959183e-002

1.08673486252606e+004,-2.09191778477008e+001,-5.43061625000701e-002

1.10190511587661e+004,-2.09191779965216e+001,-5.50642426916467e-002

1.11728713807222e+004,-2.09191781495253e+001,-5.58329050549387e-002

1.13288388529580e+004,-2.09191783068305e+001,-5.66122972959704e-002

1.14869835499703e+004,-2.09191784685578e+001,-5.74025691894351e-002

1.16473358646846e+004,-2.09191786348315e+001,-5.82038725985785e-002

1.18099266142953e+004,-2.09191788057794e+001,-5.90163615060196e-002

1.19747870461893e+004,-2.09191789815327e+001,-5.98401920455519e-002

1.21419488439505e+004,-2.09191791622266e+001,-6.06755225261143e-002

1.23114441334492e+004,-2.09191793480004e+001,-6.15225134665807e-002

1.24833054890161e+004,-2.09191795389960e+001,-6.23813276318146e-002

1.26575659397028e+004,-2.09191797353610e+001,-6.32521300497310e-002

1.28342589756290e+004,-2.09191799372459e+001,-6.41350880569097e-002

1.30134185544193e+004,-2.09191801448060e+001,-6.50303713242056e-002

1.31950791077289e+004,-2.09191803582005e+001,-6.59381518907853e-002

1.33792755478611e+004,-2.09191805775940e+001,-6.68586041932468e-002

1.35660432744767e+004,-2.09191808031546e+001,-6.77919051069498e-002

1.37554181813974e+004,-2.09191810350558e+001,-6.87382339733685e-002

1.39474366635040e+004,-2.09191812734758e+001,-6.96977726378676e-002

1.41421356237309e+004,-2.09191815185981e+001,-7.06707054806942e-002

1.43395524801583e+004,-2.09191817706106e+001,-7.16572194593057e-002

1.45397251732031e+004,-2.09191820297073e+001,-7.26575041375239e-002

1.47426921729110e+004,-2.09191822960870e+001,-7.36717517252916e-002

1.49484924863494e+004,-2.09191825699547e+001,-7.47001571136908e-002

1.51571656651040e+004,-2.09191828515208e+001,-7.57429179136643e-002

1.53687518128801e+004,-2.09191831410014e+001,-7.68002344961081e-002

1.55832915932100e+004,-2.09191834386194e+001,-7.78723100235204e-002

1.58008262372675e+004,-2.09191837446032e+001,-7.89593504977170e-002

1.60213975517924e+004,-2.09191840591879e+001,-8.00615647921967e-002

1.62450479271247e+004,-2.09191843826152e+001,-8.11791646965775e-002

1.64718203453514e+004,-2.09191847151340e+001,-8.23123649532501e-002

1.67017583885674e+004,-2.09191850569993e+001,-8.34613833056980e-002

1.69349062472505e+004,-2.09191854084741e+001,-8.46264405299410e-002

1.71713087287550e+004,-2.09191857698283e+001,-8.58077604864080e-002

1.74110112659224e+004,-2.09191861413397e+001,-8.70055701575882e-002

1.76540599258131e+004,-2.09191865232935e+001,-8.82200996941572e-002

1.79005014185594e+004,-2.09191869159835e+001,-8.94515824551227e-002

1.81503831063432e+004,-2.09191873197111e+001,-9.07002550592205e-002

1.84037530124975e+004,-2.09191877347864e+001,-9.19663574242577e-002

1.86606598307361e+004,-2.09191881615287e+001,-9.32501328149029e-002

1.89211529345119e+004,-2.09191886002656e+001,-9.45518278902227e-002

1.91852823865052e+004,-2.09191890513341e+001,-9.58716927524641e-002

1.94530989482457e+004,-2.09191895150809e+001,-9.72099809893947e-002

1.97246540898671e+004,-2.09191899918621e+001,-9.85669497306098e-002

1.99999999999999e+004,-2.09191904820442e+001,-9.99428596889764e-002

2.02791895958005e+004,-2.09191909860033e+001,-1.01337975218894e-001

2.05622765331213e+004,-2.09191915041270e+001,-1.02752564357176e-001

2.08493152168224e+004,-2.09191920368133e+001,-1.04186898882486e-001

2.11403608112276e+004,-2.09191925844709e+001,-1.05641254368228e-001

2.14354692507258e+004,-2.09191931475209e+001,-1.07115910224907e-001

2.17346972505211e+004,-2.09191937263956e+001,-1.08611149765471e-001

2.20381023175322e+004,-2.09191943215397e+001,-1.10127260253227e-001

2.23457427614443e+004,-2.09191949334104e+001,-1.11664532958246e-001

2.26576777059159e+004,-2.09191955624775e+001,-1.13223263213950e-001

2.29739670999406e+004,-2.09191962092239e+001,-1.14803750473619e-001

2.32946717293690e+004,-2.09191968741468e+001,-1.16406298364388e-001

2.36198532285905e+004,-2.09191975577565e+001,-1.18031214751181e-001

2.39495740923785e+004,-2.09191982605782e+001,-1.19678811791100e-001

2.42838976879009e+004,-2.09191989831512e+001,-1.21349405996277e-001

2.46228882668982e+004,-2.09191997260311e+001,-1.23043318289589e-001

2.49666109780322e+004,-2.09192004897876e+001,-1.24760874074346e-001

2.53151318794055e+004,-2.09192012750076e+001,-1.26502403287732e-001

2.56685179512580e+004,-2.09192020822940e+001,-1.28268240468664e-001

2.60268371088386e+004,-2.09192029122666e+001,-1.30058724822628e-001

2.63901582154578e+004,-2.09192037655624e+001,-1.31874200285115e-001

2.67585510957221e+004,-2.09192046428367e+001,-1.33715015585553e-001

2.71320865489533e+004,-2.09192055447632e+001,-1.35581524316714e-001

2.75108363627948e+004,-2.09192064720340e+001,-1.37474085001608e-001

2.78948733270080e+004,-2.09192074253611e+001,-1.39393061161656e-001

2.82842712474618e+004,-2.09192084054762e+001,-1.41338821387466e-001

2.86791049603164e+004,-2.09192094131318e+001,-1.43311739406504e-001

2.90794503464061e+004,-2.09192104491011e+001,-1.45312194158595e-001

2.94853843458219e+004,-2.09192115141796e+001,-1.47340569863185e-001

2.98969849726987e+004,-2.09192126091845e+001,-1.49397256098977e-001

3.03143313302078e+004,-2.09192137349562e+001,-1.51482647873567e-001

3.07375036257601e+004,-2.09192148923587e+001,-1.53597145699816e-001

3.11665831864199e+004,-2.09192160822801e+001,-1.55741155674388e-001

3.16016524745350e+004,-2.09192173056335e+001,-1.57915089554192e-001

3.20427951035848e+004,-2.09192185633577e+001,-1.60119364831901e-001

3.24900958542493e+004,-2.09192198564177e+001,-1.62354404822038e-001

3.29436406907028e+004,-2.09192211858056e+001,-1.64620638736276e-001

3.34035167771346e+004,-2.09192225525410e+001,-1.66918501768918e-001

3.38698124945009e+004,-2.09192239576727e+001,-1.69248435176596e-001

3.43426174575100e+004,-2.09192254022787e+001,-1.71610886364590e-001

3.48220225318448e+004,-2.09192268874666e+001,-1.74006308974179e-001

3.53081198516260e+004,-2.09192284143759e+001,-1.76435162964090e-001

3.58010028371187e+004,-2.09192299841775e+001,-1.78897914702097e-001

3.63007662126863e+004,-2.09192315980753e+001,-1.81395037053424e-001

3.68075060249948e+004,-2.09192332573071e+001,-1.83927009468200e-001

3.73213196614721e+004,-2.09192349631449e+001,-1.86494318077248e-001

3.78423058690237e+004,-2.09192367168967e+001,-1.89097455781044e-001

3.83705647730104e+004,-2.09192385199074e+001,-1.91736922343859e-001

3.89061978964912e+004,-2.09192403735587e+001,-1.94413224492832e-001

3.94493081797342e+004,-2.09192422792719e+001,-1.97126876008129e-001

3.99999999999998e+004,-2.09192442385075e+001,-1.99878397827040e-001

4.05583791916010e+004,-2.09192462527674e+001,-2.02668318137256e-001

4.11245530662425e+004,-2.09192483235952e+001,-2.05497172482136e-001

4.16986304336447e+004,-2.09192504525775e+001,-2.08365503861285e-001

4.22807216224550e+004,-2.09192526413458e+001,-2.11273862831032e-001

4.28709385014515e+004,-2.09192548915771e+001,-2.14222807611527e-001

4.34693945010421e+004,-2.09192572049951e+001,-2.17212904194330e-001

4.40762046350642e+004,-2.09192595833722e+001,-2.20244726444264e-001

4.46914855228886e+004,-2.09192620285297e+001,-2.23318856216740e-001

4.53153554118317e+004,-2.09192645423406e+001,-2.26435883458484e-001

4.59479341998812e+004,-2.09192671267295e+001,-2.29596406329168e-001

4.65893434587380e+004,-2.09192697836756e+001,-2.32801031306522e-001

4.72397064571810e+004,-2.09192725152129e+001,-2.36050373306119e-001

4.78991481847569e+004,-2.09192753234326e+001,-2.39345055796588e-001

4.85677953758016e+004,-2.09192782104838e+001,-2.42685710919513e-001

4.92457765337964e+004,-2.09192811785764e+001,-2.46072979604245e-001

4.99332219560642e+004,-2.09192842299815e+001,-2.49507511694534e-001

5.06302637588109e+004,-2.09192873670339e+001,-2.52989966068543e-001

5.13370359025159e+004,-2.09192905921336e+001,-2.56521010763883e-001

5.20536742176771e+004,-2.09192939077472e+001,-2.60101323106323e-001

5.27803164309155e+004,-2.09192973164111e+001,-2.63731589832191e-001

5.35171021914442e+004,-2.09193008207313e+001,-2.67412507224822e-001

5.42641730979066e+004,-2.09193044233877e+001,-2.71144781239913e-001

5.50216727255895e+004,-2.09193081271343e+001,-2.74929127642644e-001

5.57897466540159e+004,-2.09193119348018e+001,-2.78766272142710e-001

5.65685424949235e+004,-2.09193158493004e+001,-2.82656950527822e-001

5.73582099206328e+004,-2.09193198736211e+001,-2.86601908804756e-001

5.81589006928121e+004,-2.09193240108384e+001,-2.90601903340024e-001

5.89707686916437e+004,-2.09193282641123e+001,-2.94657701001049e-001

5.97939699453972e+004,-2.09193326366912e+001,-2.98770079299559e-001

6.06286626604156e+004,-2.09193371319137e+001,-3.02939826540996e-001

6.14750072515201e+004,-2.09193417532117e+001,-3.07167741967985e-001

6.23331663728396e+004,-2.09193465041122e+001,-3.11454635916053e-001

6.32033049490698e+004,-2.09193513882406e+001,-3.15801329959550e-001

6.40855902071694e+004,-2.09193564093235e+001,-3.20208657068207e-001

6.49801917084985e+004,-2.09193615711907e+001,-3.24677461765210e-001

6.58872813814055e+004,-2.09193668777787e+001,-3.29208600283005e-001

6.68070335542691e+004,-2.09193723331336e+001,-3.33802940721233e-001

6.77396249890018e+004,-2.09193779414137e+001,-3.38461363214785e-001

6.86852349150199e+004,-2.09193837068930e+001,-3.43184760092789e-001

6.96440450636895e+004,-2.09193896339641e+001,-3.47974036047894e-001

7.06162397032520e+004,-2.09193957271420e+001,-3.52830108303098e-001

7.16020056742374e+004,-2.09194019910663e+001,-3.57753906785331e-001

7.26015324253724e+004,-2.09194084305060e+001,-3.62746374295056e-001

7.36150120499896e+004,-2.09194150503620e+001,-3.67808466684311e-001

7.46426393229441e+004,-2.09194218556712e+001,-3.72941153032421e-001

7.56846117380472e+004,-2.09194288516102e+001,-3.78145415827134e-001

7.67411295460207e+004,-2.09194360434987e+001,-3.83422251147382e-001

7.78123957929823e+004,-2.09194434368042e+001,-3.88772668843397e-001

7.88986163594682e+004,-2.09194510371451e+001,-3.94197692730419e-001

7.99999999999995e+004,-2.09194588502956e+001,-3.99698360772145e-001

8.11167583832018e+004,-2.09194668821894e+001,-4.05275725274889e-001

8.22491061324848e+004,-2.09194751389242e+001,-4.10930853081584e-001

8.33972608672892e+004,-2.09194836267665e+001,-4.16664825766824e-001

8.45614432449099e+004,-2.09194923521554e+001,-4.22478739838853e-001

8.57418770029029e+004,-2.09195013217082e+001,-4.28373706937413e-001

8.69387890020841e+004,-2.09195105422243e+001,-4.34350854041170e-001

8.81524092701283e+004,-2.09195200206910e+001,-4.40411323670575e-001

8.93829710457770e+004,-2.09195297642880e+001,-4.46556274100564e-001

9.06307108236633e+004,-2.09195397803929e+001,-4.52786879570278e-001

9.18958683997622e+004,-2.09195500765859e+001,-4.59104330498478e-001

9.31786869174758e+004,-2.09195606606565e+001,-4.65509833699084e-001

9.44794129143618e+004,-2.09195715406077e+001,-4.72004612602025e-001

9.57982963695136e+004,-2.09195827246628e+001,-4.78589907475906e-001

9.71355907516031e+004,-2.09195942212706e+001,-4.85266975652523e-001

9.84915530675926e+004,-2.09196060391122e+001,-4.92037091753053e-001

9.98664439121282e+004,-2.09196181871064e+001,-4.98901547921567e-001

1.01260527517622e+005,-2.09196306744163e+001,-5.05861654057975e-001

1.02674071805032e+005,-2.09196435104562e+001,-5.12918738050400e-001

1.04107348435354e+005,-2.09196567048977e+001,-5.20074146019665e-001

1.05560632861831e+005,-2.09196702676774e+001,-5.27329242555865e-001

1.07034204382888e+005,-2.09196842090027e+001,-5.34685410967362e-001

1.08528346195813e+005,-2.09196985393600e+001,-5.42144053525104e-001

1.10043345451179e+005,-2.09197132695215e+001,-5.49706591716417e-001

1.11579493308032e+005,-2.09197284105531e+001,-5.57374466493671e-001

1.13137084989847e+005,-2.09197439738221e+001,-5.65149138534376e-001

1.14716419841265e+005,-2.09197599710047e+001,-5.73032088499870e-001

1.16317801385624e+005,-2.09197764140945e+001,-5.81024817296444e-001

1.17941537383287e+005,-2.09197933154109e+001,-5.89128846340552e-001

1.19587939890794e+005,-2.09198106876073e+001,-5.97345717827959e-001

1.21257325320831e+005,-2.09198285436799e+001,-6.05676995004200e-001

1.22950014503040e+005,-2.09198468969769e+001,-6.14124262438719e-001

1.24666332745679e+005,-2.09198657612070e+001,-6.22689126304489e-001

1.26406609898139e+005,-2.09198851504493e+001,-6.31373214653651e-001

1.28171180414339e+005,-2.09199050791629e+001,-6.40178177705443e-001

1.29960383416997e+005,-2.09199255621960e+001,-6.49105688131218e-001

1.31774562762811e+005,-2.09199466147971e+001,-6.58157441341918e-001

1.33614067108538e+005,-2.09199682526237e+001,-6.67335155784991e-001

1.35479249978003e+005,-2.09199904917540e+001,-6.76640573236892e-001

1.37370469830040e+005,-2.09200133486975e+001,-6.86075459101973e-001

1.39288090127379e+005,-2.09200368404050e+001,-6.95641602717480e-001

1.41232479406504e+005,-2.09200609842809e+001,-7.05340817655882e-001

1.43204011348474e+005,-2.09200857981941e+001,-7.15174942033582e-001

1.45203064850745e+005,-2.09201113004895e+001,-7.25145838824193e-001

1.47230024099979e+005,-2.09201375100007e+001,-7.35255396170478e-001

1.49285278645888e+005,-2.09201644460612e+001,-7.45505527704809e-001

1.51369223476094e+005,-2.09201921285178e+001,-7.55898172867267e-001

1.53482259092041e+005,-2.09202205777425e+001,-7.66435297232703e-001

1.55624791585964e+005,-2.09202498146463e+001,-7.77118892834003e-001

1.57797232718936e+005,-2.09202798606915e+001,-7.87950978496868e-001

1.59999999999999e+005,-2.09203107379064e+001,-7.98933600168614e-001

1.62233516766403e+005,-2.09203424688980e+001,-8.10068831258510e-001

1.64498212264969e+005,-2.09203750768668e+001,-8.21358772974213e-001

1.66794521734578e+005,-2.09204085856205e+001,-8.32805554667652e-001

1.69122886489819e+005,-2.09204430195894e+001,-8.44411334176604e-001

1.71483754005805e+005,-2.09204784038409e+001,-8.56178298177779e-001

1.73877578004168e+005,-2.09205147640946e+001,-8.68108662535038e-001

1.76304818540256e+005,-2.09205521267378e+001,-8.80204672657410e-001

1.78765942091554e+005,-2.09205905188413e+001,-8.92468603854521e-001

1.81261421647326e+005,-2.09206299681758e+001,-9.04902761697540e-001

1.83791736799524e+005,-2.09206705032276e+001,-9.17509482384269e-001

1.86357373834951e+005,-2.09207121532153e+001,-9.30291133105870e-001

1.88958825828723e+005,-2.09207549481072e+001,-9.43250112414779e-001

1.91596592739027e+005,-2.09207989186378e+001,-9.56388850598690e-001

1.94271181503206e+005,-2.09208440963257e+001,-9.69709810055273e-001

1.96983106135185e+005,-2.09208905134909e+001,-9.83215485670689e-001

1.99732887824256e+005,-2.09209382032729e+001,-9.96908405199761e-001

2.02521055035243e+005,-2.09209871996495e+001,-1.01079112965022e+000

2.05348143610063e+005,-2.09210375374539e+001,-1.02486625366974e+000

2.08214696870707e+005,-2.09210892523952e+001,-1.03913640593288e+000

2.11121265723661e+005,-2.09211423810759e+001,-1.05360424953569e+000

2.14068408765776e+005,-2.09211969610119e+001,-1.06827248238682e+000

2.17056692391625e+005,-2.09212530306519e+001,-1.08314383760685e+000

2.20086690902357e+005,-2.09213106293969e+001,-1.09822108392612e+000

2.23158986616063e+005,-2.09213697976202e+001,-1.11350702608724e+000

2.26274169979693e+005,-2.09214305766875e+001,-1.12900450524888e+000

2.29432839682530e+005,-2.09214930089773e+001,-1.14471639939131e+000

2.32635602771247e+005,-2.09215571379014e+001,-1.16064562372782e+000

2.35883074766574e+005,-2.09216230079253e+001,-1.17679513111314e+000

2.39175879781588e+005,-2.09216906645893e+001,-1.19316791245836e+000

2.42514650641661e+005,-2.09217601545295e+001,-1.20976699714511e+000

2.45900029006080e+005,-2.09218315254987e+001,-1.22659545344500e+000

2.49332665491357e+005,-2.09219048263876e+001,-1.24365638893724e+000

2.52813219796278e+005,-2.09219801072463e+001,-1.26095295093112e+000

2.56342360828676e+005,-2.09220574193051e+001,-1.27848832689106e+000

2.59920766833993e+005,-2.09221368149969e+001,-1.29626574485951e+000

2.63549125525621e+005,-2.09222183479774e+001,-1.31428847388708e+000

2.67228134217075e+005,-2.09223020731473e+001,-1.33255982445949e+000

2.70958499956006e+005,-2.09223880466733e+001,-1.35108314893107e+000

2.74740939660078e+005,-2.09224763260099e+001,-1.36986184195563e+000

2.78576180254757e+005,-2.09225669699196e+001,-1.38889934092292e+000

2.82464958813007e+005,-2.09226600384952e+001,-1.40819912639380e+000

2.86408022696948e+005,-2.09227555931796e+001,-1.42776472253885e+000

2.90406129701488e+005,-2.09228536967874e+001,-1.44759969757827e+000

2.94460048199957e+005,-2.09229544135249e+001,-1.46770766422333e+000

2.98570557291775e+005,-2.09230578090103e+001,-1.48809228011934e+000

3.02738446952187e+005,-2.09231639502937e+001,-1.50875724829097e+000

3.06964518184081e+005,-2.09232729058769e+001,-1.52970631758853e+000

3.11249583171928e+005,-2.09233847457320e+001,-1.55094328313619e+000

3.15594465437872e+005,-2.09234995413201e+001,-1.57247198678278e+000

3.19999999999997e+005,-2.09236173656100e+001,-1.59429631755231e+000

3.24467033532806e+005,-2.09237382930953e+001,-1.61642021209939e+000

3.28996424529938e+005,-2.09238623998112e+001,-1.63884765516426e+000

3.33589043469155e+005,-2.09239897633512e+001,-1.66158268003014e+000

3.38245772979638e+005,-2.09241204628826e+001,-1.68462936898375e+000

3.42967508011610e+005,-2.09242545791608e+001,-1.70799185377768e+000

3.47755156008335e+005,-2.09243921945437e+001,-1.73167431609371e+000

3.52609637080511e+005,-2.09245333930042e+001,-1.75568098801189e+000

3.57531884183106e+005,-2.09246782601422e+001,-1.78001615247965e+000

3.62522843294651e+005,-2.09248268831959e+001,-1.80468414378393e+000

3.67583473599047e+005,-2.09249793510506e+001,-1.82968934802901e+000

3.72714747669902e+005,-2.09251357542480e+001,-1.85503620361489e+000

3.77917651657445e+005,-2.09252961849928e+001,-1.88072920172087e+000

3.83193185478053e+005,-2.09254607371585e+001,-1.90677288679364e+000

3.88542363006410e+005,-2.09256295062922e+001,-1.93317185703794e+000

3.93966212270369e+005,-2.09258025896163e+001,-1.95993076491481e+000

3.99465775648511e+005,-2.09259800860305e+001,-1.98705431764321e+000

4.05042110070485e+005,-2.09261620961106e+001,-2.01454727770616e+000

4.10696287220124e+005,-2.09263487221060e+001,-2.04241446336724e+000

4.16429393741414e+005,-2.09265400679354e+001,-2.07066074918874e+000

4.22242531447321e+005,-2.09267362391806e+001,-2.09929106656124e+000

4.28136817531551e+005,-2.09269373430773e+001,-2.12831040423896e+000

4.34113384783250e+005,-2.09271434885050e+001,-2.15772380888440e+000

4.40173381804713e+005,-2.09273547859733e+001,-2.18753638562326e+000

4.46317973232124e+005,-2.09275713476074e+001,-2.21775329860658e+000

4.52548339959385e+005,-2.09277932871293e+001,-2.24837977158822e+000

4.58865679365059e+005,-2.09280207198380e+001,-2.27942108851042e+000

4.65271205542494e+005,-2.09282537625860e+001,-2.31088259410454e+000

4.71766149533147e+005,-2.09284925337537e+001,-2.34276969450452e+000

4.78351759563174e+005,-2.09287371532206e+001,-2.37508785787632e+000

4.85029301283321e+005,-2.09289877423338e+001,-2.40784261506176e+000

4.91800058012158e+005,-2.09292444238734e+001,-2.44103956024240e+000

4.98665330982714e+005,-2.09295073220152e+001,-2.47468435161829e+000

5.05626439592555e+005,-2.09297765622895e+001,-2.50878271211063e+000

5.12684721657352e+005,-2.09300522715374e+001,-2.54334043008270e+000

5.19841533667984e+005,-2.09303345778640e+001,-2.57836336008508e+000

5.27098251051240e+005,-2.09306236105874e+001,-2.61385742362466e+000

5.34456268434150e+005,-2.09309195001854e+001,-2.64982860996008e+000

5.41916999912011e+005,-2.09312223782379e+001,-2.68628297692451e+000

