Freq.,VOut,OutRef

1.00000000000000e+004,-1.74148813986501e+001,-1.72984407894482e-001

1.01395947979003e+004,-1.74148817534299e+001,-1.75399172865601e-001

1.02811382665607e+004,-1.74148821181835e+001,-1.77847646386352e-001

1.04246576084112e+004,-1.74148824931913e+001,-1.80330298997768e-001

1.05701804056138e+004,-1.74148828787418e+001,-1.82847607807139e-001

1.07177346253629e+004,-1.74148832751311e+001,-1.85400056583531e-001

1.08673486252606e+004,-1.74148836826640e+001,-1.87988135847647e-001

1.10190511587661e+004,-1.74148841016538e+001,-1.90612342965491e-001

1.11728713807222e+004,-1.74148845324224e+001,-1.93273182248581e-001

1.13288388529580e+004,-1.74148849753011e+001,-1.95971165044410e-001

1.14869835499703e+004,-1.74148854306304e+001,-1.98706809839306e-001

1.16473358646846e+004,-1.74148858987602e+001,-2.01480642357526e-001

1.18099266142953e+004,-1.74148863800502e+001,-2.04293195660151e-001

1.19747870461893e+004,-1.74148868748706e+001,-2.07145010248564e-001

1.21419488439505e+004,-1.74148873836014e+001,-2.10036634169974e-001

1.23114441334492e+004,-1.74148879066340e+001,-2.12968623119205e-001

1.24833054890161e+004,-1.74148884443704e+001,-2.15941540547965e-001

1.26575659397028e+004,-1.74148889972237e+001,-2.18955957773168e-001

1.28342589756290e+004,-1.74148895656191e+001,-2.22012454085961e-001

1.30134185544193e+004,-1.74148901499933e+001,-2.25111616862050e-001

1.31950791077289e+004,-1.74148907507956e+001,-2.28254041676323e-001

1.33792755478611e+004,-1.74148913684878e+001,-2.31440332416056e-001

1.35660432744767e+004,-1.74148920035446e+001,-2.34671101397903e-001

1.37554181813974e+004,-1.74148926564541e+001,-2.37946969483925e-001

1.39474366635040e+004,-1.74148933277185e+001,-2.41268566201970e-001

1.41421356237309e+004,-1.74148940178532e+001,-2.44636529868285e-001

1.43395524801583e+004,-1.74148947273891e+001,-2.48051507704727e-001

1.45397251732031e+004,-1.74148954568714e+001,-2.51514155969912e-001

1.47426921729110e+004,-1.74148962068607e+001,-2.55025140080804e-001

1.49484924863494e+004,-1.74148969779335e+001,-2.58585134740979e-001

1.51571656651040e+004,-1.74148977706827e+001,-2.62194824070706e-001

1.53687518128801e+004,-1.74148985857172e+001,-2.65854901740108e-001

1.55832915932100e+004,-1.74148994236637e+001,-2.69566071099653e-001

1.58008262372675e+004,-1.74149002851662e+001,-2.73329045316030e-001

1.60213975517924e+004,-1.74149011708869e+001,-2.77144547509685e-001

1.62450479271247e+004,-1.74149020815062e+001,-2.81013310894801e-001

1.64718203453514e+004,-1.74149030177245e+001,-2.84936078915309e-001

1.67017583885674e+004,-1.74149039802611e+001,-2.88913605395071e-001

1.69349062472505e+004,-1.74149049698556e+001,-2.92946654676541e-001

1.71713087287550e+004,-1.74149059872688e+001,-2.97036001768420e-001

1.74110112659224e+004,-1.74149070332825e+001,-3.01182432498528e-001

1.76540599258131e+004,-1.74149081087008e+001,-3.05386743658665e-001

1.79005014185594e+004,-1.74149092143500e+001,-3.09649743163519e-001

1.81503831063432e+004,-1.74149103510799e+001,-3.13972250200596e-001

1.84037530124975e+004,-1.74149115197641e+001,-3.18355095392229e-001

1.86606598307361e+004,-1.74149127213009e+001,-3.22799120949975e-001

1.89211529345119e+004,-1.74149139566134e+001,-3.27305180841390e-001

1.91852823865052e+004,-1.74149152266513e+001,-3.31874140950374e-001

1.94530989482457e+004,-1.74149165323903e+001,-3.36506879245096e-001

1.97246540898671e+004,-1.74149178748340e+001,-3.41204285945791e-001

1.99999999999999e+004,-1.74149192550141e+001,-3.45967263695521e-001

2.02791895958005e+004,-1.74149206739911e+001,-3.50796727734343e-001

2.05622765331213e+004,-1.74149221328555e+001,-3.55693606074835e-001

2.08493152168224e+004,-1.74149236327284e+001,-3.60658839677974e-001

2.11403608112276e+004,-1.74149251747623e+001,-3.65693382638498e-001

2.14354692507258e+004,-1.74149267601423e+001,-3.70798202362160e-001

2.17346972505211e+004,-1.74149283900866e+001,-3.75974279755350e-001

2.20381023175322e+004,-1.74149300658476e+001,-3.81222609413805e-001

2.23457427614443e+004,-1.74149317887130e+001,-3.86544199810132e-001

2.26576777059159e+004,-1.74149335600066e+001,-3.91940073489499e-001

2.29739670999406e+004,-1.74149353810897e+001,-3.97411267265552e-001

2.32946717293690e+004,-1.74149372533612e+001,-4.02958832420295e-001

2.36198532285905e+004,-1.74149391782600e+001,-4.08583834902532e-001

2.39495740923785e+004,-1.74149411572650e+001,-4.14287355536524e-001

2.42838976879009e+004,-1.74149431918967e+001,-4.20070490227416e-001

2.46228882668982e+004,-1.74149452837184e+001,-4.25934350170168e-001

2.49666109780322e+004,-1.74149474343375e+001,-4.31880062064945e-001

2.53151318794055e+004,-1.74149496454060e+001,-4.37908768333040e-001

2.56685179512580e+004,-1.74149519186229e+001,-4.44021627332828e-001

2.60268371088386e+004,-1.74149542557345e+001,-4.50219813587475e-001

2.63901582154578e+004,-1.74149566585365e+001,-4.56504518004288e-001

2.67585510957221e+004,-1.74149591288747e+001,-4.62876948108273e-001

2.71320865489533e+004,-1.74149616686470e+001,-4.69338328269469e-001

2.75108363627948e+004,-1.74149642798045e+001,-4.75889899940126e-001

2.78948733270080e+004,-1.74149669643531e+001,-4.82532921892873e-001

2.82842712474618e+004,-1.74149697243551e+001,-4.89268670460729e-001

2.86791049603164e+004,-1.74149725619305e+001,-4.96098439782342e-001

2.90794503464061e+004,-1.74149754792592e+001,-5.03023542050036e-001

2.94853843458219e+004,-1.74149784785820e+001,-5.10045307762143e-001

2.98969849726987e+004,-1.74149815622028e+001,-5.17165085976518e-001

3.03143313302078e+004,-1.74149847324902e+001,-5.24384244569738e-001

3.07375036257601e+004,-1.74149879918791e+001,-5.31704170500715e-001

3.11665831864199e+004,-1.74149913428731e+001,-5.39126270073606e-001

3.16016524745350e+004,-1.74149947880459e+001,-5.46651969209350e-001

3.20427951035848e+004,-1.74149983300433e+001,-5.54282713719127e-001

3.24900958542493e+004,-1.74150019715858e+001,-5.62019969578584e-001

3.29436406907028e+004,-1.74150057154700e+001,-5.69865223212824e-001

3.34035167771346e+004,-1.74150095645710e+001,-5.77819981777642e-001

3.38698124945009e+004,-1.74150135218447e+001,-5.85885773449537e-001

3.43426174575100e+004,-1.74150175903299e+001,-5.94064147718511e-001

3.48220225318448e+004,-1.74150217731508e+001,-6.02356675684508e-001

3.53081198516260e+004,-1.74150260735193e+001,-6.10764950357448e-001

3.58010028371187e+004,-1.74150304947374e+001,-6.19290586964262e-001

3.63007662126863e+004,-1.74150350401998e+001,-6.27935223255511e-001

3.68075060249948e+004,-1.74150397133963e+001,-6.36700519821805e-001

3.73213196614721e+004,-1.74150445179150e+001,-6.45588160407977e-001

3.78423058690237e+004,-1.74150494574444e+001,-6.54599852238940e-001

3.83705647730104e+004,-1.74150545357765e+001,-6.63737326343908e-001

3.89061978964912e+004,-1.74150597568100e+001,-6.73002337887862e-001

3.94493081797342e+004,-1.74150651245526e+001,-6.82396666508908e-001

3.99999999999998e+004,-1.74150706431247e+001,-6.91922116656618e-001

4.05583791916010e+004,-1.74150763167623e+001,-7.01580517938318e-001

4.11245530662425e+004,-1.74150821498201e+001,-7.11373725468373e-001

4.16986304336447e+004,-1.74150881467751e+001,-7.21303620223057e-001

4.22807216224550e+004,-1.74150943122297e+001,-7.31372109400749e-001

4.28709385014515e+004,-1.74151006509156e+001,-7.41581126785279e-001

4.34693945010421e+004,-1.74151071676971e+001,-7.51932633115910e-001

4.40762046350642e+004,-1.74151138675750e+001,-7.62428616462084e-001

4.46914855228886e+004,-1.74151207556901e+001,-7.73071092604121e-001

4.53153554118317e+004,-1.74151278373276e+001,-7.83862105416171e-001

4.59479341998812e+004,-1.74151351179208e+001,-7.94803727258172e-001

4.65893434587380e+004,-1.74151426030555e+001,-8.05898059371143e-001

4.72397064571810e+004,-1.74151502984738e+001,-8.17147232278301e-001

4.78991481847569e+004,-1.74151582100789e+001,-8.28553406190930e-001

4.85677953758016e+004,-1.74151663439395e+001,-8.40118771422499e-001

4.92457765337964e+004,-1.74151747062945e+001,-8.51845548804418e-001

4.99332219560642e+004,-1.74151833035573e+001,-8.63735990111109e-001

5.06302637588109e+004,-1.74151921423214e+001,-8.75792378488911e-001

5.13370359025159e+004,-1.74152012293650e+001,-8.88017028890601e-001

5.20536742176771e+004,-1.74152105716559e+001,-9.00412288519454e-001

5.27803164309155e+004,-1.74152201763573e+001,-9.12980537273271e-001

5.35171021914442e+004,-1.74152300508332e+001,-9.25724188199483e-001

5.42641730979066e+004,-1.74152402026538e+001,-9.38645687954572e-001

5.50216727255895e+004,-1.74152506396011e+001,-9.51747517270407e-001

5.57897466540159e+004,-1.74152613696753e+001,-9.65032191426269e-001

5.65685424949235e+004,-1.74152724011004e+001,-9.78502260727154e-001

5.73582099206328e+004,-1.74152837423307e+001,-9.92160310990756e-001

5.81589006928121e+004,-1.74152954020574e+001,-1.00600896403657e+000

5.89707686916437e+004,-1.74153073892146e+001,-1.02005087818777e+000

5.97939699453972e+004,-1.74153197129867e+001,-1.03428874877350e+000

6.06286626604156e+004,-1.74153323828150e+001,-1.04872530864487e+000

6.14750072515201e+004,-1.74153454084052e+001,-1.06336332869029e+000

6.23331663728396e+004,-1.74153587997341e+001,-1.07820561836510e+000

6.32033049490698e+004,-1.74153725670580e+001,-1.09325502622277e+000

6.40855902071694e+004,-1.74153867209197e+001,-1.10851444045784e+000

6.49801917084985e+004,-1.74154012721572e+001,-1.12398678945179e+000

6.58872813814055e+004,-1.74154162319113e+001,-1.13967504233028e+000

6.68070335542691e+004,-1.74154316116341e+001,-1.15558220952570e+000

6.77396249890018e+004,-1.74154474230983e+001,-1.17171134334719e+000

6.86852349150199e+004,-1.74154636784051e+001,-1.18806553855998e+000

6.96440450636895e+004,-1.74154803899941e+001,-1.20464793297146e+000

7.06162397032520e+004,-1.74154975706525e+001,-1.22146170802482e+000

7.16020056742374e+004,-1.74155152335244e+001,-1.23851008940182e+000

7.26015324253724e+004,-1.74155333921213e+001,-1.25579634763249e+000

7.36150120499896e+004,-1.74155520603318e+001,-1.27332379871369e+000

7.46426393229441e+004,-1.74155712524323e+001,-1.29109580473662e+000

7.56846117380472e+004,-1.74155909830976e+001,-1.30911577452110e+000

7.67411295460207e+004,-1.74156112674120e+001,-1.32738716426005e+000

7.78123957929823e+004,-1.74156321208810e+001,-1.34591347817105e+000

7.88986163594682e+004,-1.74156535594420e+001,-1.36469826915914e+000

7.99999999999995e+004,-1.74156755994774e+001,-1.38374513948386e+000

8.11167583832018e+004,-1.74156982578263e+001,-1.40305774144091e+000

8.22491061324848e+004,-1.74157215517969e+001,-1.42263977804946e+000

8.33972608672892e+004,-1.74157454991799e+001,-1.44249500374823e+000

8.45614432449099e+004,-1.74157701182619e+001,-1.46262722510275e+000

8.57418770029029e+004,-1.74157954278388e+001,-1.48304030152048e+000

8.69387890020841e+004,-1.74158214472295e+001,-1.50373814597764e+000

8.81524092701283e+004,-1.74158481962914e+001,-1.52472472575244e+000

8.93829710457770e+004,-1.74158756954341e+001,-1.54600406317049e+000

9.06307108236633e+004,-1.74159039656353e+001,-1.56758023635898e+000

9.18958683997622e+004,-1.74159330284563e+001,-1.58945738001112e+000

9.31786869174758e+004,-1.74159629060578e+001,-1.61163968616154e+000

9.44794129143618e+004,-1.74159936212168e+001,-1.63413140496924e+000

9.57982963695136e+004,-1.74160251973430e+001,-1.65693684551413e+000

9.71355907516031e+004,-1.74160576584969e+001,-1.68006037660218e+000

9.84915530675926e+004,-1.74160910294069e+001,-1.70350642757979e+000

9.98664439121282e+004,-1.74161253354880e+001,-1.72727948916334e+000

1.01260527517622e+005,-1.74161606028607e+001,-1.75138411427389e+000

1.02674071805032e+005,-1.74161968583702e+001,-1.77582491888637e+000

1.04107348435354e+005,-1.74162341296061e+001,-1.80060658288947e+000

1.05560632861831e+005,-1.74162724449230e+001,-1.82573385095551e+000

1.07034204382888e+005,-1.74163118334611e+001,-1.85121153342204e+000

1.08528346195813e+005,-1.74163523251682e+001,-1.87704450718552e+000

1.10043345451179e+005,-1.74163939508209e+001,-1.90323771660472e+000

1.11579493308032e+005,-1.74164367420480e+001,-1.92979617441861e+000

1.13137084989847e+005,-1.74164807313532e+001,-1.95672496267293e+000

1.14716419841265e+005,-1.74165259521389e+001,-1.98402923366112e+000

1.16317801385624e+005,-1.74165724387313e+001,-2.01171421087465e+000

1.17941537383287e+005,-1.74166202264043e+001,-2.03978518996828e+000

1.19587939890794e+005,-1.74166693514064e+001,-2.06824753973640e+000

1.21257325320831e+005,-1.74167198509865e+001,-2.09710670310015e+000

1.22950014503040e+005,-1.74167717634207e+001,-2.12636819811019e+000

1.24666332745679e+005,-1.74168251280410e+001,-2.15603761895878e+000

1.26406609898139e+005,-1.74168799852630e+001,-2.18612063700743e+000

1.28171180414339e+005,-1.74169363766155e+001,-2.21662300182565e+000

1.29960383416997e+005,-1.74169943447703e+001,-2.24755054224260e+000

1.31774562762811e+005,-1.74170539335733e+001,-2.27890916741360e+000

1.33614067108538e+005,-1.74171151880759e+001,-2.31070486789748e+000

1.35479249978003e+005,-1.74171781545672e+001,-2.34294371674959e+000

1.37370469830040e+005,-1.74172428806074e+001,-2.37563187062632e+000

1.39288090127379e+005,-1.74173094150617e+001,-2.40877557090469e+000

1.41232479406504e+005,-1.74173778081357e+001,-2.44238114481408e+000

1.43204011348474e+005,-1.74174481114104e+001,-2.47645500658378e+000

1.45203064850745e+005,-1.74175203778796e+001,-2.51100365860278e+000

1.47230024099979e+005,-1.74175946619870e+001,-2.54603369259437e+000

1.49285278645888e+005,-1.74176710196651e+001,-2.58155179080530e+000

1.51369223476094e+005,-1.74177495083747e+001,-2.61756472720733e+000

1.53482259092041e+005,-1.74178301871453e+001,-2.65407936871650e+000

1.55624791585964e+005,-1.74179131166167e+001,-2.69110267642368e+000

1.57797232718936e+005,-1.74179983590814e+001,-2.72864170684139e+000

1.59999999999999e+005,-1.74180859785284e+001,-2.76670361316536e+000

1.62233516766403e+005,-1.74181760406877e+001,-2.80529564655014e+000

1.64498212264969e+005,-1.74182686130765e+001,-2.84442515740037e+000

1.66794521734578e+005,-1.74183637650450e+001,-2.88409959667778e+000

1.69122886489819e+005,-1.74184615678258e+001,-2.92432651722049e+000

1.71483754005805e+005,-1.74185620945820e+001,-2.96511357508133e+000

1.73877578004168e+005,-1.74186654204580e+001,-3.00646853087924e+000

1.76304818540256e+005,-1.74187716226310e+001,-3.04839925116648e+000

1.78765942091554e+005,-1.74188807803638e+001,-3.09091370981195e+000

1.81261421647326e+005,-1.74189929750587e+001,-3.13401998939918e+000

1.83791736799524e+005,-1.74191082903127e+001,-3.17772628264146e+000

1.86357373834951e+005,-1.74192268119748e+001,-3.22204089381166e+000

1.88958825828723e+005,-1.74193486282028e+001,-3.26697224018858e+000

1.91596592739027e+005,-1.74194738295234e+001,-3.31252885351855e+000

1.94271181503206e+005,-1.74196025088925e+001,-3.35871938149444e+000

1.96983106135185e+005,-1.74197347617575e+001,-3.40555258924975e+000

1.99732887824256e+005,-1.74198706861200e+001,-3.45303736086954e+000

2.02521055035243e+005,-1.74200103826016e+001,-3.50118270091693e+000

2.05348143610063e+005,-1.74201539545096e+001,-3.54999773597685e+000

2.08214696870707e+005,-1.74203015079047e+001,-3.59949171621646e+000

2.11121265723661e+005,-1.74204531516708e+001,-3.64967401696084e+000

2.14068408765776e+005,-1.74206089975855e+001,-3.70055414028627e+000

2.17056692391625e+005,-1.74207691603923e+001,-3.75214171663045e+000

2.20086690902357e+005,-1.74209337578751e+001,-3.80444650641827e+000

2.23158986616063e+005,-1.74211029109330e+001,-3.85747840170563e+000

2.26274169979693e+005,-1.74212767436579e+001,-3.91124742783969e+000

2.29432839682530e+005,-1.74214553834131e+001,-3.96576374513519e+000

2.32635602771247e+005,-1.74216389609136e+001,-4.02103765056974e+000

2.35883074766574e+005,-1.74218276103087e+001,-4.07707957949270e+000

2.39175879781588e+005,-1.74220214692649e+001,-4.13390010735585e+000

2.42514650641661e+005,-1.74222206790520e+001,-4.19150995145657e+000

2.45900029006080e+005,-1.74224253846302e+001,-4.24991997270133e+000

2.49332665491357e+005,-1.74226357347387e+001,-4.30914117738431e+000

2.52813219796278e+005,-1.74228518819869e+001,-4.36918471898489e+000

2.56342360828676e+005,-1.74230739829463e+001,-4.43006189998151e+000

2.59920766833993e+005,-1.74233021982452e+001,-4.49178417368250e+000

2.63549125525621e+005,-1.74235366926642e+001,-4.55436314607553e+000

2.67228134217075e+005,-1.74237776352348e+001,-4.61781057769339e+000

2.70958499956006e+005,-1.74240251993383e+001,-4.68213838549700e+000

2.74740939660078e+005,-1.74242795628075e+001,-4.74735864477778e+000

2.78576180254757e+005,-1.74245409080305e+001,-4.81348359107467e+000

2.82464958813007e+005,-1.74248094220551e+001,-4.88052562211140e+000

2.86408022696948e+005,-1.74250852966963e+001,-4.94849729974972e+000

2.90406129701488e+005,-1.74253687286451e+001,-5.01741135196139e+000

2.94460048199957e+005,-1.74256599195791e+001,-5.08728067481671e+000

2.98570557291775e+005,-1.74259590762750e+001,-5.15811833449195e+000

3.02738446952187e+005,-1.74262664107235e+001,-5.22993756929426e+000

3.06964518184081e+005,-1.74265821402448e+001,-5.30275179170426e+000

3.11249583171928e+005,-1.74269064876077e+001,-5.37657459043725e+000

3.15594465437872e+005,-1.74272396811486e+001,-5.45141973252219e+000

3.19999999999997e+005,-1.74275819548942e+001,-5.52730116539869e+000

3.24467033532806e+005,-1.74279335486844e+001,-5.60423301903259e+000

3.28996424529938e+005,-1.74282947082986e+001,-5.68222960805021e+000

3.33589043469155e+005,-1.74286656855820e+001,-5.76130543389117e+000

3.38245772979638e+005,-1.74290467385757e+001,-5.84147518697928e+000

3.42967508011610e+005,-1.74294381316468e+001,-5.92275374891305e+000

3.47755156008335e+005,-1.74298401356214e+001,-6.00515619467515e+000

3.52609637080511e+005,-1.74302530279190e+001,-6.08869779486140e+000

3.57531884183106e+005,-1.74306770926883e+001,-6.17339401792831e+000

3.62522843294651e+005,-1.74311126209454e+001,-6.25926053246195e+000

3.67583473599047e+005,-1.74315599107130e+001,-6.34631320946524e+000

3.72714747669902e+005,-1.74320192671618e+001,-6.43456812466666e+000

3.77917651657445e+005,-1.74324910027529e+001,-6.52404156084957e+000

3.83193185478053e+005,-1.74329754373824e+001,-6.61475001020184e+000

3.88542363006410e+005,-1.74334728985277e+001,-6.70671017668709e+000

3.93966212270369e+005,-1.74339837213942e+001,-6.79993897843889e+000

3.99465775648511e+005,-1.74345082490653e+001,-6.89445355017494e+000

4.05042110070485e+005,-1.74350468326519e+001,-6.99027124563614e+000

4.10696287220124e+005,-1.74355998314454e+001,-7.08740964004771e+000

4.16429393741414e+005,-1.74361676130703e+001,-7.18588653260466e+000

4.22242531447321e+005,-1.74367505536395e+001,-7.28571994898115e+000

4.28136817531551e+005,-1.74373490379102e+001,-7.38692814386552e+000

4.34113384783250e+005,-1.74379634594419e+001,-7.48952960352019e+000

4.40173381804713e+005,-1.74385942207550e+001,-7.59354304837003e+000

4.46317973232124e+005,-1.74392417334907e+001,-7.69898743561533e+000

4.52548339959385e+005,-1.74399064185733e+001,-7.80588196187466e+000

4.58865679365059e+005,-1.74405887063722e+001,-7.91424606585702e+000

4.65271205542494e+005,-1.74412890368666e+001,-8.02409943106275e+000

4.71766149533147e+005,-1.74420078598102e+001,-8.13546198851673e+000

4.78351759563174e+005,-1.74427456348983e+001,-8.24835391953240e+000

4.85029301283321e+005,-1.74435028319353e+001,-8.36279565851061e+000

4.91800058012158e+005,-1.74442799310043e+001,-8.47880789577155e+000

4.98665330982714e+005,-1.74450774226369e+001,-8.59641158042259e+000

5.05626439592555e+005,-1.74458958079854e+001,-8.71562792326419e+000

5.12684721657352e+005,-1.74467355989961e+001,-8.83647839973288e+000

5.19841533667984e+005,-1.74475973185835e+001,-8.95898475288444e+000

5.27098251051240e+005,-1.74484815008064e+001,-9.08316899641910e+000

5.34456268434150e+005,-1.74493886910459e+001,-9.20905341774851e+000

5.41916999912011e+005,-1.74503194461843e+001,-9.33666058110795e+000

