Freq.,VOut,OutRef

1.00000000000000e+004,-2.08400574019848e+001,-2.97969127516796e-001

1.01395947979003e+004,-2.08400585115727e+001,-3.02128602748620e-001

1.02811382665607e+004,-2.08400596523549e+001,-3.06346141292691e-001

1.04246576084112e+004,-2.08400608252082e+001,-3.10622553649421e-001

1.05701804056138e+004,-2.08400620310341e+001,-3.14958661631363e-001

1.07177346253629e+004,-2.08400632707598e+001,-3.19355298521560e-001

1.08673486252606e+004,-2.08400645453381e+001,-3.23813309233771e-001

1.10190511587661e+004,-2.08400658557488e+001,-3.28333550474466e-001

1.11728713807222e+004,-2.08400672029995e+001,-3.32916890907237e-001

1.13288388529580e+004,-2.08400685881256e+001,-3.37564211321641e-001

1.14869835499703e+004,-2.08400700121919e+001,-3.42276404799071e-001

1.16473358646846e+004,-2.08400714762932e+001,-3.47054376886234e-001

1.18099266142953e+004,-2.08400729815548e+001,-3.51899045769529e-001

1.19747870461893e+004,-2.08400745291342e+001,-3.56811342449471e-001

1.21419488439505e+004,-2.08400761202206e+001,-3.61792210922486e-001

1.23114441334492e+004,-2.08400777560374e+001,-3.66842608358315e-001

1.24833054890161e+004,-2.08400794378418e+001,-3.71963505288096e-001

1.26575659397028e+004,-2.08400811669269e+001,-3.77155885786101e-001

1.28342589756290e+004,-2.08400829446217e+001,-3.82420747663164e-001

1.30134185544193e+004,-2.08400847722928e+001,-3.87759102656222e-001

1.31950791077289e+004,-2.08400866513449e+001,-3.93171976622023e-001

1.33792755478611e+004,-2.08400885832227e+001,-3.98660409734793e-001

1.35660432744767e+004,-2.08400905694112e+001,-4.04225456686518e-001

1.37554181813974e+004,-2.08400926114371e+001,-4.09868186888175e-001

1.39474366635040e+004,-2.08400947108701e+001,-4.15589684676775e-001

1.41421356237309e+004,-2.08400968693241e+001,-4.21391049522709e-001

1.43395524801583e+004,-2.08400990884580e+001,-4.27273396240480e-001

1.45397251732031e+004,-2.08401013699779e+001,-4.33237855202170e-001

1.47426921729110e+004,-2.08401037156376e+001,-4.39285572556673e-001

1.49484924863494e+004,-2.08401061272400e+001,-4.45417710447836e-001

1.51571656651040e+004,-2.08401086066389e+001,-4.51635447238843e-001

1.53687518128801e+004,-2.08401111557401e+001,-4.57939977736650e-001

1.55832915932100e+004,-2.08401137765032e+001,-4.64332513423234e-001

1.58008262372675e+004,-2.08401164709425e+001,-4.70814282688138e-001

1.60213975517924e+004,-2.08401192411293e+001,-4.77386531061516e-001

1.62450479271247e+004,-2.08401220891929e+001,-4.84050521457425e-001

1.64718203453514e+004,-2.08401250173224e+001,-4.90807534412674e-001

1.67017583885674e+004,-2.08401280277686e+001,-4.97658868334915e-001

1.69349062472505e+004,-2.08401311228454e+001,-5.04605839751054e-001

1.71713087287550e+004,-2.08401343049322e+001,-5.11649783557628e-001

1.74110112659224e+004,-2.08401375764744e+001,-5.18792053283141e-001

1.76540599258131e+004,-2.08401409399870e+001,-5.26034021340329e-001

1.79005014185594e+004,-2.08401443980552e+001,-5.33377079295540e-001

1.81503831063432e+004,-2.08401479533372e+001,-5.40822638131249e-001

1.84037530124975e+004,-2.08401516085654e+001,-5.48372128521832e-001

1.86606598307361e+004,-2.08401553665495e+001,-5.56027001102128e-001

1.89211529345119e+004,-2.08401592301780e+001,-5.63788726750515e-001

1.91852823865052e+004,-2.08401632024205e+001,-5.71658796869516e-001

1.94530989482457e+004,-2.08401672863301e+001,-5.79638723671508e-001

1.97246540898671e+004,-2.08401714850460e+001,-5.87730040468645e-001

1.99999999999999e+004,-2.08401758017950e+001,-5.95934301969009e-001

2.02791895958005e+004,-2.08401802398952e+001,-6.04253084572646e-001

2.05622765331213e+004,-2.08401848027577e+001,-6.12687986673960e-001

2.08493152168224e+004,-2.08401894938895e+001,-6.21240628970832e-001

2.11403608112276e+004,-2.08401943168961e+001,-6.29912654771806e-001

2.14354692507258e+004,-2.08401992754844e+001,-6.38705730315082e-001

2.17346972505211e+004,-2.08402043734655e+001,-6.47621545084716e-001

2.20381023175322e+004,-2.08402096147576e+001,-6.56661812136627e-001

2.23457427614443e+004,-2.08402150033889e+001,-6.65828268426479e-001

2.26576777059159e+004,-2.08402205435009e+001,-6.75122675143119e-001

2.29739670999406e+004,-2.08402262393516e+001,-6.84546818044954e-001

2.32946717293690e+004,-2.08402320953186e+001,-6.94102507804315e-001

2.36198532285905e+004,-2.08402381159022e+001,-7.03791580352978e-001

2.39495740923785e+004,-2.08402443057296e+001,-7.13615897235189e-001

2.42838976879009e+004,-2.08402506695578e+001,-7.23577345963287e-001

2.46228882668982e+004,-2.08402572122778e+001,-7.33677840380082e-001

2.49666109780322e+004,-2.08402639389175e+001,-7.43919321026264e-001

2.53151318794055e+004,-2.08402708546466e+001,-7.54303755511881e-001

2.56685179512580e+004,-2.08402779647796e+001,-7.64833138892225e-001

2.60268371088386e+004,-2.08402852747809e+001,-7.75509494051884e-001

2.63901582154578e+004,-2.08402927902680e+001,-7.86334872091505e-001

2.67585510957221e+004,-2.08403005170163e+001,-7.97311352720711e-001

2.71320865489533e+004,-2.08403084609637e+001,-8.08441044655581e-001

2.75108363627948e+004,-2.08403166282148e+001,-8.19726086024344e-001

2.78948733270080e+004,-2.08403250250457e+001,-8.31168644776241e-001

2.82842712474618e+004,-2.08403336579090e+001,-8.42770919095648e-001

2.86791049603164e+004,-2.08403425334383e+001,-8.54535137824425e-001

2.90794503464061e+004,-2.08403516584540e+001,-8.66463560887095e-001

2.94853843458219e+004,-2.08403610399678e+001,-8.78558479724892e-001

2.98969849726987e+004,-2.08403706851885e+001,-8.90822217734749e-001

3.03143313302078e+004,-2.08403806015275e+001,-9.03257130711609e-001

3.07375036257601e+004,-2.08403907966043e+001,-9.15865607301823e-001

3.11665831864199e+004,-2.08404012782526e+001,-9.28650069458792e-001

3.16016524745350e+004,-2.08404120545259e+001,-9.41612972906710e-001

3.20427951035848e+004,-2.08404231337044e+001,-9.54756807610269e-001

3.24900958542493e+004,-2.08404345243006e+001,-9.68084098251433e-001

3.29436406907028e+004,-2.08404462350662e+001,-9.81597404711983e-001

3.34035167771346e+004,-2.08404582749986e+001,-9.95299322562516e-001

3.38698124945009e+004,-2.08404706533483e+001,-1.00919248355964e+000

3.43426174575100e+004,-2.08404833796254e+001,-1.02327955614830e+000

3.48220225318448e+004,-2.08404964636070e+001,-1.03756324597286e+000

3.53081198516260e+004,-2.08405099153451e+001,-1.05204629639306e+000

3.58010028371187e+004,-2.08405237451741e+001,-1.06673148900842e+000

3.63007662126863e+004,-2.08405379637183e+001,-1.08162164419107e+000

3.68075060249948e+004,-2.08405525819006e+001,-1.09671962162210e+000

3.73213196614721e+004,-2.08405676109508e+001,-1.11202832084064e+000

3.78423058690237e+004,-2.08405830624140e+001,-1.12755068179403e+000

3.83705647730104e+004,-2.08405989481593e+001,-1.14328968540334e+000

3.89061978964912e+004,-2.08406152803896e+001,-1.15924835412850e+000

3.94493081797342e+004,-2.08406320716500e+001,-1.17542975254754e+000

3.99999999999998e+004,-2.08406493348382e+001,-1.19183698794063e+000

4.05583791916010e+004,-2.08406670832141e+001,-1.20847321088278e+000

4.11245530662425e+004,-2.08406853304096e+001,-1.22534161584455e+000

4.16986304336447e+004,-2.08407040904398e+001,-1.24244544180244e+000

4.22807216224550e+004,-2.08407233777131e+001,-1.25978797285451e+000

4.28709385014515e+004,-2.08407432070423e+001,-1.27737253884860e+000

4.34693945010421e+004,-2.08407635936563e+001,-1.29520251601523e+000

4.40762046350642e+004,-2.08407845532115e+001,-1.31328132761066e+000

4.46914855228886e+004,-2.08408061018038e+001,-1.33161244457077e+000

4.53153554118317e+004,-2.08408282559811e+001,-1.35019938617009e+000

4.59479341998812e+004,-2.08408510327555e+001,-1.36904572069325e+000

4.65893434587380e+004,-2.08408744496169e+001,-1.38815506611327e+000

4.72397064571810e+004,-2.08408985245460e+001,-1.40753109078047e+000

4.78991481847569e+004,-2.08409232760283e+001,-1.42717751411918e+000

4.85677953758016e+004,-2.08409487230681e+001,-1.44709810733732e+000

4.92457765337964e+004,-2.08409748852030e+001,-1.46729669414080e+000

4.99332219560642e+004,-2.08410017825188e+001,-1.48777715146187e+000

5.06302637588109e+004,-2.08410294356651e+001,-1.50854341019588e+000

5.13370359025159e+004,-2.08410578658710e+001,-1.52959945594640e+000

5.20536742176771e+004,-2.08410870949612e+001,-1.55094932978300e+000

5.27803164309155e+004,-2.08411171453726e+001,-1.57259712900933e+000

5.35171021914442e+004,-2.08411480401719e+001,-1.59454700793774e+000

5.42641730979066e+004,-2.08411798030728e+001,-1.61680317867991e+000

5.50216727255895e+004,-2.08412124584540e+001,-1.63936991194486e+000

5.57897466540159e+004,-2.08412460313784e+001,-1.66225153784700e+000

5.65685424949235e+004,-2.08412805476119e+001,-1.68545244672788e+000

5.73582099206328e+004,-2.08413160336428e+001,-1.70897708998774e+000

5.81589006928121e+004,-2.08413525167024e+001,-1.73282998092734e+000

5.89707686916437e+004,-2.08413900247860e+001,-1.75701569560204e+000

5.97939699453972e+004,-2.08414285866734e+001,-1.78153887368866e+000

6.06286626604156e+004,-2.08414682319519e+001,-1.80640421936031e+000

6.14750072515201e+004,-2.08415089910380e+001,-1.83161650217739e+000

6.23331663728396e+004,-2.08415508952011e+001,-1.85718055798806e+000

6.32033049490698e+004,-2.08415939765872e+001,-1.88310128983990e+000

6.40855902071694e+004,-2.08416382682434e+001,-1.90938366890651e+000

6.49801917084985e+004,-2.08416838041431e+001,-1.93603273542455e+000

6.58872813814055e+004,-2.08417306192120e+001,-1.96305359964353e+000

6.68070335542691e+004,-2.08417787493541e+001,-1.99045144278908e+000

6.77396249890018e+004,-2.08418282314801e+001,-2.01823151803779e+000

6.86852349150199e+004,-2.08418791035345e+001,-2.04639915150627e+000

6.96440450636895e+004,-2.08419314045251e+001,-2.07495974325289e+000

7.06162397032520e+004,-2.08419851745524e+001,-2.10391876829217e+000

7.16020056742374e+004,-2.08420404548401e+001,-2.13328177762339e+000

7.26015324253724e+004,-2.08420972877666e+001,-2.16305439927337e+000

7.36150120499896e+004,-2.08421557168970e+001,-2.19324233935050e+000

7.46426393229441e+004,-2.08422157870165e+001,-2.22385138311609e+000

7.56846117380472e+004,-2.08422775441641e+001,-2.25488739606673e+000

7.67411295460207e+004,-2.08423410356679e+001,-2.28635632503348e+000

7.78123957929823e+004,-2.08424063101806e+001,-2.31826419929373e+000

7.88986163594682e+004,-2.08424734177168e+001,-2.35061713169762e+000

7.99999999999995e+004,-2.08425424096909e+001,-2.38342131981029e+000

8.11167583832018e+004,-2.08426133389557e+001,-2.41668304706833e+000

8.22491061324848e+004,-2.08426862598431e+001,-2.45040868395131e+000

8.33972608672892e+004,-2.08427612282047e+001,-2.48460468916856e+000

8.45614432449099e+004,-2.08428383014544e+001,-2.51927761086164e+000

8.57418770029029e+004,-2.08429175386118e+001,-2.55443408782128e+000

8.69387890020841e+004,-2.08429990003468e+001,-2.59008085072155e+000

8.81524092701283e+004,-2.08430827490256e+001,-2.62622472336953e+000

8.93829710457770e+004,-2.08431688487580e+001,-2.66287262396936e+000

9.06307108236633e+004,-2.08432573654454e+001,-2.70003156640508e+000

9.18958683997622e+004,-2.08433483668308e+001,-2.73770866153847e+000

9.31786869174758e+004,-2.08434419225504e+001,-2.77591111852218e+000

9.44794129143618e+004,-2.08435381041852e+001,-2.81464624613322e+000

9.57982963695136e+004,-2.08436369853160e+001,-2.85392145411891e+000

9.71355907516031e+004,-2.08437386415781e+001,-2.89374425456318e+000

9.84915530675926e+004,-2.08438431507187e+001,-2.93412226326870e+000

9.98664439121282e+004,-2.08439505926555e+001,-2.97506320115631e+000

1.01260527517622e+005,-2.08440610495363e+001,-3.01657489568291e+000

1.02674071805032e+005,-2.08441746058015e+001,-3.05866528227509e+000

1.04107348435354e+005,-2.08442913482471e+001,-3.10134240578340e+000

1.05560632861831e+005,-2.08444113660901e+001,-3.14461442195214e+000

1.07034204382888e+005,-2.08445347510353e+001,-3.18848959890860e+000

1.08528346195813e+005,-2.08446615973443e+001,-3.23297631867065e+000

1.10043345451179e+005,-2.08447920019061e+001,-3.27808307867162e+000

1.11579493308032e+005,-2.08449260643097e+001,-3.32381849330551e+000

1.13137084989847e+005,-2.08450638869184e+001,-3.37019129549027e+000

1.14716419841265e+005,-2.08452055749469e+001,-3.41721033824922e+000

1.16317801385624e+005,-2.08453512365395e+001,-3.46488459631265e+000

1.17941537383287e+005,-2.08455009828509e+001,-3.51322316773841e+000

1.19587939890794e+005,-2.08456549281296e+001,-3.56223527555128e+000

1.21257325320831e+005,-2.08458131898026e+001,-3.61193026940239e+000

1.22950014503040e+005,-2.08459758885631e+001,-3.66231762724832e+000

1.24666332745679e+005,-2.08461431484602e+001,-3.71340695705031e+000

1.26406609898139e+005,-2.08463150969915e+001,-3.76520799849118e+000

1.28171180414339e+005,-2.08464918651977e+001,-3.81773062471569e+000

1.29960383416997e+005,-2.08466735877593e+001,-3.87098484408903e+000

1.31774562762811e+005,-2.08468604030976e+001,-3.92498080197465e+000

1.33614067108538e+005,-2.08470524534764e+001,-3.97972878253502e+000

1.35479249978003e+005,-2.08472498851075e+001,-4.03523921055065e+000

1.37370469830040e+005,-2.08474528482590e+001,-4.09152265326099e+000

1.39288090127379e+005,-2.08476614973661e+001,-4.14858982222483e+000

1.41232479406504e+005,-2.08478759911451e+001,-4.20645157520325e+000

1.43204011348474e+005,-2.08480964927102e+001,-4.26511891806082e+000

1.45203064850745e+005,-2.08483231696940e+001,-4.32460300669064e+000

1.47230024099979e+005,-2.08485561943701e+001,-4.38491514895737e+000

1.49285278645888e+005,-2.08487957437803e+001,-4.44606680666397e+000

1.51369223476094e+005,-2.08490419998637e+001,-4.50806959753775e+000

1.53482259092041e+005,-2.08492951495906e+001,-4.57093529723766e+000

1.55624791585964e+005,-2.08495553850988e+001,-4.63467584138436e+000

1.57797232718936e+005,-2.08498229038341e+001,-4.69930332760917e+000

1.59999999999999e+005,-2.08500979086943e+001,-4.76483001762565e+000

1.62233516766403e+005,-2.08503806081770e+001,-4.83126833932175e+000

1.64498212264969e+005,-2.08506712165311e+001,-4.89863088887398e+000

1.66794521734578e+005,-2.08509699539125e+001,-4.96693043288185e+000

1.69122886489819e+005,-2.08512770465434e+001,-5.03617991052354e+000

1.71483754005805e+005,-2.08515927268765e+001,-5.10639243573299e+000

1.73877578004168e+005,-2.08519172337627e+001,-5.17758129939815e+000

1.76304818540256e+005,-2.08522508126230e+001,-5.24975997157925e+000

1.78765942091554e+005,-2.08525937156261e+001,-5.32294210374958e+000

1.81261421647326e+005,-2.08529462018687e+001,-5.39714153105557e+000

1.83791736799524e+005,-2.08533085375622e+001,-5.47237227459752e+000

1.86357373834951e+005,-2.08536809962225e+001,-5.54864854373282e+000

1.88958825828723e+005,-2.08540638588662e+001,-5.62598473839677e+000

1.91596592739027e+005,-2.08544574142105e+001,-5.70439545144571e+000

1.94271181503206e+005,-2.08548619588790e+001,-5.78389547101952e+000

1.96983106135185e+005,-2.08552777976124e+001,-5.86449978292331e+000

1.99732887824256e+005,-2.08557052434840e+001,-5.94622357303026e+000

2.02521055035243e+005,-2.08561446181218e+001,-6.02908222970224e+000

2.05348143610063e+005,-2.08565962519345e+001,-6.11309134623066e+000

2.08214696870707e+005,-2.08570604843452e+001,-6.19826672329541e+000

2.11121265723661e+005,-2.08575376640285e+001,-6.28462437144305e+000

2.14068408765776e+005,-2.08580281491556e+001,-6.37218051358238e+000

2.17056692391625e+005,-2.08585323076442e+001,-6.46095158749915e+000

2.20086690902357e+005,-2.08590505174148e+001,-6.55095424838636e+000

2.23158986616063e+005,-2.08595831666535e+001,-6.64220537139357e+000

2.26274169979693e+005,-2.08601306540807e+001,-6.73472205419151e+000

2.29432839682530e+005,-2.08606933892272e+001,-6.82852161955377e+000

2.32635602771247e+005,-2.08612717927158e+001,-6.92362161795308e+000

2.35883074766574e+005,-2.08618662965505e+001,-7.02003983017458e+000

2.39175879781588e+005,-2.08624773444128e+001,-7.11779426994150e+000

2.42514650641661e+005,-2.08631053919637e+001,-7.21690318655682e+000

2.45900029006080e+005,-2.08637509071548e+001,-7.31738506755746e+000

2.49332665491357e+005,-2.08644143705453e+001,-7.41925864138138e+000

2.52813219796278e+005,-2.08650962756265e+001,-7.52254288004680e+000

2.56342360828676e+005,-2.08657971291552e+001,-7.62725700184335e+000

2.59920766833993e+005,-2.08665174514930e+001,-7.73342047403342e+000

2.63549125525621e+005,-2.08672577769550e+001,-7.84105301556310e+000

2.67228134217075e+005,-2.08680186541654e+001,-7.95017459978323e+000

2.70958499956006e+005,-2.08688006464219e+001,-8.06080545717797e+000

2.74740939660078e+005,-2.08696043320684e+001,-8.17296607810099e+000

2.78576180254757e+005,-2.08704303048753e+001,-8.28667721551746e+000

2.82464958813007e+005,-2.08712791744294e+001,-8.40195988775256e+000

2.86408022696948e+005,-2.08721515665320e+001,-8.51883538124336e+000

2.90406129701488e+005,-2.08730481236053e+001,-8.63732525329504e+000

2.94460048199957e+005,-2.08739695051091e+001,-8.75745133483784e+000

2.98570557291775e+005,-2.08749163879649e+001,-8.87923573318725e+000

3.02738446952187e+005,-2.08758894669905e+001,-9.00270083480186e+000

3.06964518184081e+005,-2.08768894553437e+001,-9.12786930804139e+000

3.11249583171928e+005,-2.08779170849746e+001,-9.25476410592197e+000

3.15594465437872e+005,-2.08789731070890e+001,-9.38340846886580e+000

3.19999999999997e+005,-2.08800582926199e+001,-9.51382592744828e+000

3.24467033532806e+005,-2.08811734327105e+001,-9.64604030513541e+000

3.28996424529938e+005,-2.08823193392057e+001,-9.78007572101496e+000

3.33589043469155e+005,-2.08834968451542e+001,-9.91595659251700e+000

3.38245772979638e+005,-2.08847068053216e+001,-1.00537076381227e+001

3.42967508011610e+005,-2.08859500967125e+001,-1.01933538800610e+001

3.47755156008335e+005,-2.08872276191038e+001,-1.03349206469896e+001

3.52609637080511e+005,-2.08885402955884e+001,-1.04784335766601e+001

3.57531884183106e+005,-2.08898890731294e+001,-1.06239186185642e+001

3.62522843294651e+005,-2.08912749231253e+001,-1.07714020365603e+001

3.67583473599047e+005,-2.08926988419853e+001,-1.09209104114781e+001

3.72714747669902e+005,-2.08941618517167e+001,-1.10724706436985e+001

3.77917651657445e+005,-2.08956650005217e+001,-1.12261099557080e+001

3.83193185478053e+005,-2.08972093634068e+001,-1.13818558946247e+001

3.88542363006410e+005,-2.08987960428024e+001,-1.15397363346946e+001

3.93966212270369e+005,-2.09004261691936e+001,-1.16997794797547e+001

3.99465775648511e+005,-2.09021009017628e+001,-1.18620138656614e+001

4.05042110070485e+005,-2.09038214290429e+001,-1.20264683626829e+001

4.10696287220124e+005,-2.09055889695824e+001,-1.21931721778512e+001

4.16429393741414e+005,-2.09074047726214e+001,-1.23621548572728e+001

4.22242531447321e+005,-2.09092701187796e+001,-1.25334462883954e+001

4.28136817531551e+005,-2.09111863207549e+001,-1.27070767022270e+001

4.34113384783250e+005,-2.09131547240345e+001,-1.28830766755066e+001

4.40173381804713e+005,-2.09151767076164e+001,-1.30614771328226e+001

4.46317973232124e+005,-2.09172536847426e+001,-1.32423093486766e+001

4.52548339959385e+005,-2.09193871036449e+001,-1.34256049494887e+001

4.58865679365059e+005,-2.09215784483000e+001,-1.36113959155448e+001

4.65271205542494e+005,-2.09238292391979e+001,-1.37997145828784e+001

4.71766149533147e+005,-2.09261410341208e+001,-1.39905936450880e+001

4.78351759563174e+005,-2.09285154289332e+001,-1.41840661550846e+001

4.85029301283321e+005,-2.09309540583835e+001,-1.43801655267670e+001

4.91800058012158e+005,-2.09334585969170e+001,-1.45789255366229e+001

4.98665330982714e+005,-2.09360307594995e+001,-1.47803803252505e+001

5.05626439592555e+005,-2.09386723024523e+001,-1.49845643987986e+001

5.12684721657352e+005,-2.09413850242979e+001,-1.51915126303226e+001

5.19841533667984e+005,-2.09441707666170e+001,-1.54012602610512e+001

5.27098251051240e+005,-2.09470314149153e+001,-1.56138429015618e+001

5.34456268434150e+005,-2.09499688995018e+001,-1.58292965328606e+001

5.41916999912011e+005,-2.09529851963771e+001,-1.60476575073641e+001

