Freq.,VOut,OutRef

1.00000000000000e+004,-3.20616356662609e+001,-4.65514148583564e-001

1.01395947979003e+004,-3.20616389330085e+001,-4.72012411692901e-001

1.02811382665607e+004,-3.20616422915942e+001,-4.78601384107074e-001

1.04246576084112e+004,-3.20616457446000e+001,-4.85282331950318e-001

1.05701804056138e+004,-3.20616492946801e+001,-4.92056539016438e-001

1.07177346253629e+004,-3.20616529445635e+001,-4.98925307014022e-001

1.08673486252606e+004,-3.20616566970559e+001,-5.05889955816764e-001

1.10190511587661e+004,-3.20616605550419e+001,-5.12951823716767e-001

1.11728713807222e+004,-3.20616645214870e+001,-5.20112267682263e-001

1.13288388529580e+004,-3.20616685994403e+001,-5.27372663616067e-001

1.14869835499703e+004,-3.20616727920365e+001,-5.34734406621950e-001

1.16473358646846e+004,-3.20616771024983e+001,-5.42198911270581e-001

1.18099266142953e+004,-3.20616815341394e+001,-5.49767611870879e-001

1.19747870461893e+004,-3.20616860903661e+001,-5.57441962747272e-001

1.21419488439505e+004,-3.20616907746807e+001,-5.65223438516955e-001

1.23114441334492e+004,-3.20616955906841e+001,-5.73113534373085e-001

1.24833054890161e+004,-3.20617005420782e+001,-5.81113766371467e-001

1.26575659397028e+004,-3.20617056326691e+001,-5.89225671722525e-001

1.28342589756290e+004,-3.20617108663698e+001,-5.97450809085071e-001

1.30134185544193e+004,-3.20617162472031e+001,-6.05790758866242e-001

1.31950791077289e+004,-3.20617217793054e+001,-6.14247123522484e-001

1.33792755478611e+004,-3.20617274669289e+001,-6.22821527870087e-001

1.35660432744767e+004,-3.20617333144455e+001,-6.31515619394652e-001

1.37554181813974e+004,-3.20617393263499e+001,-6.40331068567675e-001

1.39474366635040e+004,-3.20617455072634e+001,-6.49269569166609e-001

1.41421356237309e+004,-3.20617518619367e+001,-6.58332838600577e-001

1.43395524801583e+004,-3.20617583952546e+001,-6.67522618238404e-001

1.45397251732031e+004,-3.20617651122387e+001,-6.76840673743139e-001

1.47426921729110e+004,-3.20617720180522e+001,-6.86288795411067e-001

1.49484924863494e+004,-3.20617791180031e+001,-6.95868798513717e-001

1.51571656651040e+004,-3.20617864175486e+001,-7.05582523647471e-001

1.53687518128801e+004,-3.20617939222996e+001,-7.15431837084694e-001

1.55832915932100e+004,-3.20618016380242e+001,-7.25418631132265e-001

1.58008262372675e+004,-3.20618095706531e+001,-7.35544824494663e-001

1.60213975517924e+004,-3.20618177262835e+001,-7.45812362641258e-001

1.62450479271247e+004,-3.20618261111839e+001,-7.56223218178622e-001

1.64718203453514e+004,-3.20618347317990e+001,-7.66779391228721e-001

1.67017583885674e+004,-3.20618435947547e+001,-7.77482909813885e-001

1.69349062472505e+004,-3.20618527068633e+001,-7.88335830241494e-001

1.71713087287550e+004,-3.20618620751281e+001,-7.99340237502258e-001

1.74110112659224e+004,-3.20618717067496e+001,-8.10498245666981e-001

1.76540599258131e+004,-3.20618816091306e+001,-8.21811998291474e-001

1.79005014185594e+004,-3.20618917898819e+001,-8.33283668827664e-001

1.81503831063432e+004,-3.20619022568282e+001,-8.44915461040850e-001

1.84037530124975e+004,-3.20619130180140e+001,-8.56709609429082e-001

1.86606598307361e+004,-3.20619240817102e+001,-8.68668379653399e-001

1.89211529345119e+004,-3.20619354564199e+001,-8.80794068970040e-001

1.91852823865052e+004,-3.20619471508851e+001,-8.93089006671592e-001

1.94530989482457e+004,-3.20619591740936e+001,-9.05555554530538e-001

1.97246540898671e+004,-3.20619715352858e+001,-9.18196107253478e-001

1.99999999999999e+004,-3.20619842439618e+001,-9.31013092938098e-001

2.02791895958005e+004,-3.20619973098885e+001,-9.44008973538360e-001

2.05622765331213e+004,-3.20620107431074e+001,-9.57186245334564e-001

2.08493152168224e+004,-3.20620245539422e+001,-9.70547439412052e-001

2.11403608112276e+004,-3.20620387530066e+001,-9.84095122143548e-001

2.14354692507258e+004,-3.20620533512126e+001,-9.97831895682199e-001

2.17346972505211e+004,-3.20620683597790e+001,-1.01176039845674e+000

2.20381023175322e+004,-3.20620837902394e+001,-1.02588330567733e+000

2.23457427614443e+004,-3.20620996544521e+001,-1.04020332984647e+000

2.26576777059159e+004,-3.20621159646079e+001,-1.05472322127772e+000

2.29739670999406e+004,-3.20621327332409e+001,-1.06944576861960e+000

2.32946717293690e+004,-3.20621499732367e+001,-1.08437379939065e+000

2.36198532285905e+004,-3.20621676978435e+001,-1.09951018051804e+000

2.39495740923785e+004,-3.20621859206814e+001,-1.11485781888578e+000

2.42838976879009e+004,-3.20622046557533e+001,-1.13041966188899e+000

2.46228882668982e+004,-3.20622239174555e+001,-1.14619869799714e+000

2.49666109780322e+004,-3.20622437205888e+001,-1.16219795732502e+000

2.53151318794055e+004,-3.20622640803697e+001,-1.17842051220900e+000

2.56685179512580e+004,-3.20622850124426e+001,-1.19486947779588e+000

2.60268371088386e+004,-3.20623065328909e+001,-1.21154801263467e+000

2.63901582154578e+004,-3.20623286582501e+001,-1.22845931928103e+000

2.67585510957221e+004,-3.20623514055204e+001,-1.24560664490627e+000

2.71320865489533e+004,-3.20623747921793e+001,-1.26299328191761e+000

2.75108363627948e+004,-3.20623988361954e+001,-1.28062256858439e+000

2.78948733270080e+004,-3.20624235560419e+001,-1.29849788967614e+000

2.82842712474618e+004,-3.20624489707113e+001,-1.31662267710462e+000

2.86791049603164e+004,-3.20624750997292e+001,-1.33500041058043e+000

2.90794503464061e+004,-3.20625019631700e+001,-1.35363461827274e+000

2.94853843458219e+004,-3.20625295816716e+001,-1.37252887748335e+000

2.98969849726987e+004,-3.20625579764519e+001,-1.39168681532550e+000

3.03143313302078e+004,-3.20625871693245e+001,-1.41111210941524e+000

3.07375036257601e+004,-3.20626171827159e+001,-1.43080848857029e+000

3.11665831864199e+004,-3.20626480396824e+001,-1.45077973351899e+000

3.16016524745350e+004,-3.20626797639277e+001,-1.47102967761869e+000

3.20427951035848e+004,-3.20627123798214e+001,-1.49156220758588e+000

3.24900958542493e+004,-3.20627459124173e+001,-1.51238126423152e+000

3.29436406907028e+004,-3.20627803874729e+001,-1.53349084321250e+000

3.34035167771346e+004,-3.20628158314689e+001,-1.55489499578770e+000

3.38698124945009e+004,-3.20628522716297e+001,-1.57659782958811e+000

3.43426174575100e+004,-3.20628897359441e+001,-1.59860350939596e+000

3.48220225318448e+004,-3.20629282531868e+001,-1.62091625793420e+000

3.53081198516260e+004,-3.20629678529405e+001,-1.64354035666661e+000

3.58010028371187e+004,-3.20630085656185e+001,-1.66648014660980e+000

3.63007662126863e+004,-3.20630504224877e+001,-1.68974002915548e+000

3.68075060249948e+004,-3.20630934556932e+001,-1.71332446690223e+000

3.73213196614721e+004,-3.20631376982821e+001,-1.73723798450273e+000

3.78423058690237e+004,-3.20631831842298e+001,-1.76148516951709e+000

3.83705647730104e+004,-3.20632299484649e+001,-1.78607067328164e+000

3.89061978964912e+004,-3.20632780268966e+001,-1.81099921178768e+000

3.94493081797342e+004,-3.20633274564422e+001,-1.83627556657301e+000

3.99999999999998e+004,-3.20633782750551e+001,-1.86190458562311e+000

4.05583791916010e+004,-3.20634305217537e+001,-1.88789118428813e+000

4.11245530662425e+004,-3.20634842366518e+001,-1.91424034620839e+000

4.16986304336447e+004,-3.20635394609886e+001,-1.94095712425492e+000

4.22807216224550e+004,-3.20635962371610e+001,-1.96804664148052e+000

4.28709385014515e+004,-3.20636546087550e+001,-1.99551409208611e+000

4.34693945010421e+004,-3.20637146205802e+001,-2.02336474239653e+000

4.40762046350642e+004,-3.20637763187030e+001,-2.05160393185204e+000

4.46914855228886e+004,-3.20638397504825e+001,-2.08023707401235e+000

4.53153554118317e+004,-3.20639049646063e+001,-2.10926965757285e+000

4.59479341998812e+004,-3.20639720111280e+001,-2.13870724739515e+000

4.65893434587380e+004,-3.20640409415051e+001,-2.16855548555189e+000

4.72397064571810e+004,-3.20641118086385e+001,-2.19882009238375e+000

4.78991481847569e+004,-3.20641846669128e+001,-2.22950686757125e+000

4.85677953758016e+004,-3.20642595722381e+001,-2.26062169122140e+000

4.92457765337964e+004,-3.20643365820921e+001,-2.29217052496649e+000

4.99332219560642e+004,-3.20644157555645e+001,-2.32415941307973e+000

5.06302637588109e+004,-3.20644971534018e+001,-2.35659448360380e+000

5.13370359025159e+004,-3.20645808380537e+001,-2.38948194949413e+000

5.20536742176771e+004,-3.20646668737207e+001,-2.42282810977789e+000

5.27803164309155e+004,-3.20647553264031e+001,-2.45663935072851e+000

5.35171021914442e+004,-3.20648462639514e+001,-2.49092214705258e+000

5.42641730979066e+004,-3.20649397561175e+001,-2.52568306309654e+000

5.50216727255895e+004,-3.20650358746087e+001,-2.56092875406388e+000

5.57897466540159e+004,-3.20651346931413e+001,-2.59666596725315e+000

5.65685424949235e+004,-3.20652362874977e+001,-2.63290154330686e+000

5.73582099206328e+004,-3.20653407355834e+001,-2.66964241748112e+000

5.81589006928121e+004,-3.20654481174867e+001,-2.70689562092720e+000

5.89707686916437e+004,-3.20655585155391e+001,-2.74466828199298e+000

5.97939699453972e+004,-3.20656720143787e+001,-2.78296762753811e+000

6.06286626604156e+004,-3.20657887010140e+001,-2.82180098426783e+000

6.14750072515201e+004,-3.20659086648899e+001,-2.86117578008286e+000

6.23331663728396e+004,-3.20660319979563e+001,-2.90109954544583e+000

6.32033049490698e+004,-3.20661587947375e+001,-2.94157991476544e+000

6.40855902071694e+004,-3.20662891524036e+001,-2.98262462779873e+000

6.49801917084985e+004,-3.20664231708454e+001,-3.02424153106790e+000

6.58872813814055e+004,-3.20665609527490e+001,-3.06643857929919e+000

6.68070335542691e+004,-3.20667026036744e+001,-3.10922383687542e+000

6.77396249890018e+004,-3.20668482321353e+001,-3.15260547930827e+000

6.86852349150199e+004,-3.20669979496814e+001,-3.19659179472924e+000

6.96440450636895e+004,-3.20671518709829e+001,-3.24119118539789e+000

7.06162397032520e+004,-3.20673101139174e+001,-3.28641216922834e+000

7.16020056742374e+004,-3.20674727996588e+001,-3.33226338133482e+000

7.26015324253724e+004,-3.20676400527697e+001,-3.37875357559612e+000

7.36150120499896e+004,-3.20678120012948e+001,-3.42589162623771e+000

7.46426393229441e+004,-3.20679887768583e+001,-3.47368652943381e+000

7.56846117380472e+004,-3.20681705147631e+001,-3.52214740492892e+000

7.67411295460207e+004,-3.20683573540931e+001,-3.57128349767671e+000

7.78123957929823e+004,-3.20685494378178e+001,-3.62110417950014e+000

7.88986163594682e+004,-3.20687469129010e+001,-3.67161895077028e+000

7.99999999999995e+004,-3.20689499304108e+001,-3.72283744210440e+000

8.11167583832018e+004,-3.20691586456337e+001,-3.77476941608458e+000

8.22491061324848e+004,-3.20693732181921e+001,-3.82742476899485e+000

8.33972608672892e+004,-3.20695938121635e+001,-3.88081353257935e+000

8.45614432449099e+004,-3.20698205962049e+001,-3.93494587582044e+000

8.57418770029029e+004,-3.20700537436790e+001,-3.98983210673554e+000

8.69387890020841e+004,-3.20702934327846e+001,-4.04548267419611e+000

8.81524092701283e+004,-3.20705398466908e+001,-4.10190816976509e+000

8.93829710457770e+004,-3.20707931736738e+001,-4.15911932955575e+000

9.06307108236633e+004,-3.20710536072590e+001,-4.21712703611044e+000

9.18958683997622e+004,-3.20713213463649e+001,-4.27594232029997e+000

9.31786869174758e+004,-3.20715965954531e+001,-4.33557636324314e+000

9.44794129143618e+004,-3.20718795646807e+001,-4.39604049824699e+000

9.57982963695136e+004,-3.20721704700579e+001,-4.45734621276779e+000

9.71355907516031e+004,-3.20724695336089e+001,-4.51950515039191e+000

9.84915530675926e+004,-3.20727769835381e+001,-4.58252911283788e+000

9.98664439121282e+004,-3.20730930544002e+001,-4.64643006197848e+000

1.01260527517622e+005,-3.20734179872747e+001,-4.71122012188424e+000

1.02674071805032e+005,-3.20737520299461e+001,-4.77691158088587e+000

1.04107348435354e+005,-3.20740954370878e+001,-4.84351689365880e+000

1.05560632861831e+005,-3.20744484704512e+001,-4.91104868332661e+000

1.07034204382888e+005,-3.20748113990609e+001,-4.97951974358612e+000

1.08528346195813e+005,-3.20751844994134e+001,-5.04894304085186e+000

1.10043345451179e+005,-3.20755680556824e+001,-5.11933171642065e+000

1.11579493308032e+005,-3.20759623599296e+001,-5.19069908865681e+000

1.13137084989847e+005,-3.20763677123200e+001,-5.26305865519623e+000

1.14716419841265e+005,-3.20767844213440e+001,-5.33642409517118e+000

1.16317801385624e+005,-3.20772128040451e+001,-5.41080927145407e+000

1.17941537383287e+005,-3.20776531862537e+001,-5.48622823292043e+000

1.19587939890794e+005,-3.20781059028266e+001,-5.56269521673115e+000

1.21257325320831e+005,-3.20785712978936e+001,-5.64022465063416e+000

1.22950014503040e+005,-3.20790497251100e+001,-5.71883115528371e+000

1.24666332745679e+005,-3.20795415479163e+001,-5.79852954657806e+000

1.26406609898139e+005,-3.20800471398038e+001,-5.87933483801679e+000

1.28171180414339e+005,-3.20805668845887e+001,-5.96126224307294e+000

1.29960383416997e+005,-3.20811011766914e+001,-6.04432717758527e+000

1.31774562762811e+005,-3.20816504214252e+001,-6.12854526216554e+000

1.33614067108538e+005,-3.20822150352907e+001,-6.21393232462312e+000

1.35479249978003e+005,-3.20827954462790e+001,-6.30050440240481e+000

1.37370469830040e+005,-3.20833920941826e+001,-6.38827774505156e+000

1.39288090127379e+005,-3.20840054309138e+001,-6.47726881666873e+000

1.41232479406504e+005,-3.20846359208319e+001,-6.56749429841191e+000

1.43204011348474e+005,-3.20852840410785e+001,-6.65897109098513e+000

1.45203064850745e+005,-3.20859502819220e+001,-6.75171631715408e+000

1.47230024099979e+005,-3.20866351471099e+001,-6.84574732427063e+000

1.49285278645888e+005,-3.20873391542311e+001,-6.94108168680924e+000

1.51369223476094e+005,-3.20880628350867e+001,-7.03773720891488e+000

1.53482259092041e+005,-3.20888067360711e+001,-7.13573192696067e+000

1.55624791585964e+005,-3.20895714185615e+001,-7.23508411211529e+000

1.57797232718936e+005,-3.20903574593188e+001,-7.33581227291843e+000

1.59999999999999e+005,-3.20911654508967e+001,-7.43793515786409e+000

1.62233516766403e+005,-3.20919960020632e+001,-7.54147175799041e+000

1.64498212264969e+005,-3.20928497382309e+001,-7.64644130947421e+000

1.66794521734578e+005,-3.20937273018987e+001,-7.75286329623100e+000

1.69122886489819e+005,-3.20946293531047e+001,-7.86075745251706e+000

1.71483754005805e+005,-3.20955565698899e+001,-7.97014376553415e+000

1.73877578004168e+005,-3.20965096487735e+001,-8.08104247803410e+000

1.76304818540256e+005,-3.20974893052400e+001,-8.19347409092325e+000

1.78765942091554e+005,-3.20984962742376e+001,-8.30745936586435e+000

1.81261421647326e+005,-3.20995313106895e+001,-8.42301932787453e+000

1.83791736799524e+005,-3.21005951900172e+001,-8.54017526791842e+000

1.86357373834951e+005,-3.21016887086763e+001,-8.65894874549387e+000

1.88958825828723e+005,-3.21028126847056e+001,-8.77936159120909e+000

1.91596592739027e+005,-3.21039679582886e+001,-8.90143590934932e+000

1.94271181503206e+005,-3.21051553923289e+001,-9.02519408043072e+000

1.96983106135185e+005,-3.21063758730393e+001,-9.15065876374070e+000

1.99732887824256e+005,-3.21076303105440e+001,-9.27785289986049e+000

2.02521055035243e+005,-3.21089196394956e+001,-9.40679971316989e+000

2.05348143610063e+005,-3.21102448197061e+001,-9.53752271433120e+000

2.08214696870707e+005,-3.21116068367922e+001,-9.67004570274919e+000

2.11121265723661e+005,-3.21130067028364e+001,-9.80439276900579e+000

2.14068408765776e+005,-3.21144454570615e+001,-9.94058829726612e+000

2.17056692391625e+005,-3.21159241665220e+001,-1.00786569676546e+001

2.20086690902357e+005,-3.21174439268101e+001,-1.02186237585953e+001

2.23158986616063e+005,-3.21190058627774e+001,-1.03605139491177e+001

2.26274169979693e+005,-3.21206111292730e+001,-1.05043531211217e+001

2.29432839682530e+005,-3.21222609118977e+001,-1.06501671616001e+001

2.32635602771247e+005,-3.21239564277741e+001,-1.07979822648148e+001

2.35883074766574e+005,-3.21256989263342e+001,-1.09478249344243e+001

2.39175879781588e+005,-3.21274896901226e+001,-1.10997219855576e+001

2.42514650641661e+005,-3.21293300356182e+001,-1.12537005468322e+001

2.45900029006080e+005,-3.21312213140716e+001,-1.14097880623112e+001

2.49332665491357e+005,-3.21331649123613e+001,-1.15680122933968e+001

2.52813219796278e+005,-3.21351622538662e+001,-1.17284013206555e+001

2.56342360828676e+005,-3.21372147993566e+001,-1.18909835455713e+001

2.59920766833993e+005,-3.21393240479028e+001,-1.20557876922207e+001

2.63549125525621e+005,-3.21414915378020e+001,-1.22228428088690e+001

2.67228134217075e+005,-3.21437188475226e+001,-1.23921782694789e+001

2.70958499956006e+005,-3.21460075966679e+001,-1.25638237751295e+001

2.74740939660078e+005,-3.21483594469566e+001,-1.27378093553398e+001

2.78576180254757e+005,-3.21507761032233e+001,-1.29141653692917e+001

2.82464958813007e+005,-3.21532593144367e+001,-1.30929225069469e+001

2.86408022696948e+005,-3.21558108747360e+001,-1.32741117900537e+001

2.90406129701488e+005,-3.21584326244862e+001,-1.34577645730361e+001

2.94460048199957e+005,-3.21611264513524e+001,-1.36439125437614e+001

2.98570557291775e+005,-3.21638942913917e+001,-1.38325877241794e+001

3.02738446952187e+005,-3.21667381301641e+001,-1.40238224708267e+001

3.06964518184081e+005,-3.21696600038618e+001,-1.42176494751921e+001

3.11249583171928e+005,-3.21726620004563e+001,-1.44141017639338e+001

3.15594465437872e+005,-3.21757462608646e+001,-1.46132126989444e+001

3.19999999999997e+005,-3.21789149801319e+001,-1.48150159772549e+001

3.24467033532806e+005,-3.21821704086335e+001,-1.50195456307735e+001

3.28996424529938e+005,-3.21855148532934e+001,-1.52268360258494e+001

3.33589043469155e+005,-3.21889506788206e+001,-1.54369218626561e+001

3.38245772979638e+005,-3.21924803089618e+001,-1.56498381743867e+001

3.42967508011610e+005,-3.21961062277714e+001,-1.58656203262537e+001

3.47755156008335e+005,-3.21998309808969e+001,-1.60843040142855e+001

3.52609637080511e+005,-3.22036571768806e+001,-1.63059252639116e+001

3.57531884183106e+005,-3.22075874884768e+001,-1.65305204283304e+001

3.62522843294651e+005,-3.22116246539827e+001,-1.67581261866486e+001

3.67583473599047e+005,-3.22157714785846e+001,-1.69887795417872e+001

3.72714747669902e+005,-3.22200308357165e+001,-1.72225178181439e+001

3.77917651657445e+005,-3.22244056684325e+001,-1.74593786590038e+001

3.83193185478053e+005,-3.22288989907904e+001,-1.76994000236917e+001

3.88542363006410e+005,-3.22335138892469e+001,-1.79426201844548e+001

3.93966212270369e+005,-3.22382535240628e+001,-1.81890777230697e+001

3.99465775648511e+005,-3.22431211307178e+001,-1.84388115271634e+001

4.05042110070485e+005,-3.22481200213335e+001,-1.86918607862407e+001

4.10696287220124e+005,-3.22532535861039e+001,-1.89482649874093e+001

4.16429393741414e+005,-3.22585252947308e+001,-1.92080639107926e+001

4.22242531447321e+005,-3.22639386978657e+001,-1.94712976246235e+001

4.28136817531551e+005,-3.22694974285538e+001,-1.97380064800086e+001

4.34113384783250e+005,-3.22752052036806e+001,-2.00082311053567e+001

4.40173381804713e+005,-3.22810658254192e+001,-2.02820124004591e+001

4.46317973232124e+005,-3.22870831826758e+001,-2.05593915302186e+001

4.52548339959385e+005,-3.22932612525337e+001,-2.08404099180130e+001

4.58865679365059e+005,-3.22996041016918e+001,-2.11251092386902e+001

4.65271205542494e+005,-3.23061158878971e+001,-2.14135314111833e+001

4.71766149533147e+005,-3.23128008613697e+001,-2.17057185907395e+001

4.78351759563174e+005,-3.23196633662158e+001,-2.20017131607546e+001

4.85029301283321e+005,-3.23267078418304e+001,-2.23015577242065e+001

4.91800058012158e+005,-3.23339388242836e+001,-2.26052950946797e+001

4.98665330982714e+005,-3.23413609476909e+001,-2.29129682869748e+001

5.05626439592555e+005,-3.23489789455633e+001,-2.32246205072964e+001

5.12684721657352e+005,-3.23567976521363e+001,-2.35402951430136e+001

5.19841533667984e+005,-3.23648220036737e+001,-2.38600357519877e+001

5.27098251051240e+005,-3.23730570397438e+001,-2.41838860514613e+001

5.34456268434150e+005,-3.23815079044658e+001,-2.45118899065067e+001

5.41916999912011e+005,-3.23901798477231e+001,-2.48440913180257e+001

