Freq.,VOut,OutRef

1.00000000000000e+004,-2.03273295151211e+001,-6.51030592837046e-002

1.01395947979003e+004,-2.03273296880674e+001,-6.60118583637613e-002

1.02811382665607e+004,-2.03273298658755e+001,-6.69333435626148e-002

1.04246576084112e+004,-2.03273300486822e+001,-6.78676919596544e-002

1.05701804056138e+004,-2.03273302366279e+001,-6.88150831089264e-002

1.07177346253629e+004,-2.03273304298572e+001,-6.97756990675418e-002

1.08673486252606e+004,-2.03273306285185e+001,-7.07497244369453e-002

1.10190511587661e+004,-2.03273308327642e+001,-7.17373463944516e-002

1.11728713807222e+004,-2.03273310427521e+001,-7.27387547241476e-002

1.13288388529580e+004,-2.03273312586429e+001,-7.37541418666373e-002

1.14869835499703e+004,-2.03273314806025e+001,-7.47837029459961e-002

1.16473358646846e+004,-2.03273317088021e+001,-7.58276358047761e-002

1.18099266142953e+004,-2.03273319434164e+001,-7.68861410541081e-002

1.19747870461893e+004,-2.03273321846263e+001,-7.79594220979711e-002

1.21419488439505e+004,-2.03273324326166e+001,-7.90476851857313e-002

1.23114441334492e+004,-2.03273326875786e+001,-8.01511394381331e-002

1.24833054890161e+004,-2.03273329497076e+001,-8.12699969011563e-002

1.26575659397028e+004,-2.03273332192053e+001,-8.24044725765521e-002

1.28342589756290e+004,-2.03273334962791e+001,-8.35547844654034e-002

1.30134185544193e+004,-2.03273337811415e+001,-8.47211536146313e-002

1.31950791077289e+004,-2.03273340740116e+001,-8.59038041531058e-002

1.33792755478611e+004,-2.03273343751146e+001,-8.71029633387537e-002

1.35660432744767e+004,-2.03273346846817e+001,-8.83188616016937e-002

1.37554181813974e+004,-2.03273350029511e+001,-8.95517325851483e-002

1.39474366635040e+004,-2.03273353301671e+001,-9.08018131960160e-002

1.41421356237309e+004,-2.03273356665813e+001,-9.20693436446201e-002

1.43395524801583e+004,-2.03273360124522e+001,-9.33545674962501e-002

1.45397251732031e+004,-2.03273363680456e+001,-9.46577317126778e-002

1.47426921729110e+004,-2.03273367336348e+001,-9.59790867019008e-002

1.49484924863494e+004,-2.03273371095007e+001,-9.73188863678282e-002

1.51571656651040e+004,-2.03273374959321e+001,-9.86773881569614e-002

1.53687518128801e+004,-2.03273378932260e+001,-1.00054853106844e-001

1.55832915932100e+004,-2.03273383016878e+001,-1.01451545899348e-001

1.58008262372675e+004,-2.03273387216312e+001,-1.02867734909177e-001

1.60213975517924e+004,-2.03273391533789e+001,-1.04303692256139e-001

1.62450479271247e+004,-2.03273395972628e+001,-1.05759693855145e-001

1.64718203453514e+004,-2.03273400536240e+001,-1.07236019473357e-001

1.67017583885674e+004,-2.03273405228129e+001,-1.08732952781947e-001

1.69349062472505e+004,-2.03273410051903e+001,-1.10250781406632e-001

1.71713087287550e+004,-2.03273415011267e+001,-1.11789796990686e-001

1.74110112659224e+004,-2.03273420110032e+001,-1.13350295244160e-001

1.76540599258131e+004,-2.03273425352117e+001,-1.14932576002670e-001

1.79005014185594e+004,-2.03273430741546e+001,-1.16536943288090e-001

1.81503831063432e+004,-2.03273436282464e+001,-1.18163705359525e-001

1.84037530124975e+004,-2.03273441979124e+001,-1.19813174781934e-001

1.86606598307361e+004,-2.03273447835907e+001,-1.21485668476127e-001

1.89211529345119e+004,-2.03273453857311e+001,-1.23181507788508e-001

1.91852823865052e+004,-2.03273460047961e+001,-1.24901018546853e-001

1.94530989482457e+004,-2.03273466412613e+001,-1.26644531124365e-001

1.97246540898671e+004,-2.03273472956158e+001,-1.28412380504171e-001

1.99999999999999e+004,-2.03273479683621e+001,-1.30204906342646e-001

2.02791895958005e+004,-2.03273486600173e+001,-1.32022453031571e-001

2.05622765331213e+004,-2.03273493711125e+001,-1.33865369772025e-001

2.08493152168224e+004,-2.03273501021940e+001,-1.35734010632085e-001

2.11403608112276e+004,-2.03273508538234e+001,-1.37628734620601e-001

2.14354692507258e+004,-2.03273516265782e+001,-1.39549905754249e-001

2.17346972505211e+004,-2.03273524210517e+001,-1.41497893128441e-001

2.20381023175322e+004,-2.03273532378543e+001,-1.43473070985301e-001

2.23457427614443e+004,-2.03273540776133e+001,-1.45475818787343e-001

2.26576777059159e+004,-2.03273549409739e+001,-1.47506521289770e-001

2.29739670999406e+004,-2.03273558285990e+001,-1.49565568615583e-001

2.32946717293690e+004,-2.03273567411704e+001,-1.51653356327168e-001

2.36198532285905e+004,-2.03273576793891e+001,-1.53770285504574e-001

2.39495740923785e+004,-2.03273586439754e+001,-1.55916762822521e-001

2.42838976879009e+004,-2.03273596356700e+001,-1.58093200626788e-001

2.46228882668982e+004,-2.03273606552347e+001,-1.60300017012707e-001

2.49666109780322e+004,-2.03273617034525e+001,-1.62537635906349e-001

2.53151318794055e+004,-2.03273627811282e+001,-1.64806487146341e-001

2.56685179512580e+004,-2.03273638890894e+001,-1.67107006566038e-001

2.60268371088386e+004,-2.03273650281865e+001,-1.69439636076096e-001

2.63901582154578e+004,-2.03273661992947e+001,-1.71804823745564e-001

2.67585510957221e+004,-2.03273674033126e+001,-1.74203023896612e-001

2.71320865489533e+004,-2.03273686411650e+001,-1.76634697182152e-001

2.75108363627948e+004,-2.03273699138022e+001,-1.79100310679061e-001

2.78948733270080e+004,-2.03273712222012e+001,-1.81600337976458e-001

2.82842712474618e+004,-2.03273725673663e+001,-1.84135259266658e-001

2.86791049603164e+004,-2.03273739503300e+001,-1.86705561435839e-001

2.90794503464061e+004,-2.03273753721544e+001,-1.89311738155504e-001

2.94853843458219e+004,-2.03273768339303e+001,-1.91954289983607e-001

2.98969849726987e+004,-2.03273783367801e+001,-1.94633724451603e-001

3.03143313302078e+004,-2.03273798818570e+001,-1.97350556168370e-001

3.07375036257601e+004,-2.03273814703471e+001,-2.00105306912114e-001

3.11665831864199e+004,-2.03273831034692e+001,-2.02898505737708e-001

3.16016524745350e+004,-2.03273847824766e+001,-2.05730689070850e-001

3.20427951035848e+004,-2.03273865086580e+001,-2.08602400813496e-001

3.24900958542493e+004,-2.03273882833377e+001,-2.11514192448641e-001

3.29436406907028e+004,-2.03273901078775e+001,-2.14466623143353e-001

3.34035167771346e+004,-2.03273919836773e+001,-2.17460259856098e-001

3.38698124945009e+004,-2.03273939121761e+001,-2.20495677447181e-001

3.43426174575100e+004,-2.03273958948533e+001,-2.23573458785867e-001

3.48220225318448e+004,-2.03273979332302e+001,-2.26694194859775e-001

3.53081198516260e+004,-2.03274000288702e+001,-2.29858484893313e-001

3.58010028371187e+004,-2.03274021833806e+001,-2.33066936457400e-001

3.63007662126863e+004,-2.03274043984138e+001,-2.36320165587348e-001

3.68075060249948e+004,-2.03274066756689e+001,-2.39618796897116e-001

3.73213196614721e+004,-2.03274090168921e+001,-2.42963463702969e-001

3.78423058690237e+004,-2.03274114238785e+001,-2.46354808141378e-001

3.83705647730104e+004,-2.03274138984739e+001,-2.49793481291731e-001

3.89061978964912e+004,-2.03274164425756e+001,-2.53280143298549e-001

3.94493081797342e+004,-2.03274190581339e+001,-2.56815463501079e-001

3.99999999999998e+004,-2.03274217471540e+001,-2.60400120557276e-001

4.05583791916010e+004,-2.03274245116970e+001,-2.64034802574677e-001

4.11245530662425e+004,-2.03274273538820e+001,-2.67720207239079e-001

4.16986304336447e+004,-2.03274302758869e+001,-2.71457041951924e-001

4.22807216224550e+004,-2.03274332799514e+001,-2.75246023957019e-001

4.28709385014515e+004,-2.03274363683769e+001,-2.79087880485724e-001

4.34693945010421e+004,-2.03274395435302e+001,-2.82983348887208e-001

4.40762046350642e+004,-2.03274428078436e+001,-2.86933176774209e-001

4.46914855228886e+004,-2.03274461638179e+001,-2.90938122160518e-001

4.53153554118317e+004,-2.03274496140235e+001,-2.94998953609961e-001

4.59479341998812e+004,-2.03274531611030e+001,-2.99116450375429e-001

4.65893434587380e+004,-2.03274568077728e+001,-3.03291402553505e-001

4.72397064571810e+004,-2.03274605568251e+001,-3.07524611229519e-001

4.78991481847569e+004,-2.03274644111306e+001,-3.11816888630605e-001

4.85677953758016e+004,-2.03274683736397e+001,-3.16169058280678e-001

4.92457765337964e+004,-2.03274724473859e+001,-3.20581955153397e-001

4.99332219560642e+004,-2.03274766354868e+001,-3.25056425834822e-001

5.06302637588109e+004,-2.03274809411478e+001,-3.29593328678722e-001

5.13370359025159e+004,-2.03274853676632e+001,-3.34193533972472e-001

5.20536742176771e+004,-2.03274899184198e+001,-3.38857924098925e-001

5.27803164309155e+004,-2.03274945968987e+001,-3.43587393705148e-001

5.35171021914442e+004,-2.03274994066784e+001,-3.48382849868435e-001

5.42641730979066e+004,-2.03275043514374e+001,-3.53245212271134e-001

5.50216727255895e+004,-2.03275094349564e+001,-3.58175413372240e-001

5.57897466540159e+004,-2.03275146611221e+001,-3.63174398581683e-001

5.65685424949235e+004,-2.03275200339294e+001,-3.68243126442054e-001

5.73582099206328e+004,-2.03275255574845e+001,-3.73382568805730e-001

5.81589006928121e+004,-2.03275312360086e+001,-3.78593711018854e-001

5.89707686916437e+004,-2.03275370738402e+001,-3.83877552107083e-001

5.97939699453972e+004,-2.03275430754387e+001,-3.89235104963366e-001

6.06286626604156e+004,-2.03275492453881e+001,-3.94667396537562e-001

6.14750072515201e+004,-2.03275555883997e+001,-4.00175468029913e-001

6.23331663728396e+004,-2.03275621093166e+001,-4.05760375085084e-001

6.32033049490698e+004,-2.03275688131162e+001,-4.11423187992191e-001

6.40855902071694e+004,-2.03275757049147e+001,-4.17164991884000e-001

6.49801917084985e+004,-2.03275827899708e+001,-4.22986886938677e-001

6.58872813814055e+004,-2.03275900736895e+001,-4.28889988588361e-001

6.68070335542691e+004,-2.03275975616259e+001,-4.34875427726055e-001

6.77396249890018e+004,-2.03276052594899e+001,-4.40944350917570e-001

6.86852349150199e+004,-2.03276131731499e+001,-4.47097920613761e-001

6.96440450636895e+004,-2.03276213086375e+001,-4.53337315370689e-001

7.06162397032520e+004,-2.03276296721519e+001,-4.59663730064762e-001

7.16020056742374e+004,-2.03276382700643e+001,-4.66078376119267e-001

7.26015324253724e+004,-2.03276471089230e+001,-4.72582481727423e-001

7.36150120499896e+004,-2.03276561954580e+001,-4.79177292080158e-001

7.46426393229441e+004,-2.03276655365857e+001,-4.85864069600337e-001

7.56846117380472e+004,-2.03276751394149e+001,-4.92644094172436e-001

7.67411295460207e+004,-2.03276850112508e+001,-4.99518663384206e-001

7.78123957929823e+004,-2.03276951596015e+001,-5.06489092762772e-001

7.88986163594682e+004,-2.03277055921829e+001,-5.13556716021165e-001

7.99999999999995e+004,-2.03277163169246e+001,-5.20722885301874e-001

8.11167583832018e+004,-2.03277273419755e+001,-5.27988971429530e-001

8.22491061324848e+004,-2.03277386757103e+001,-5.35356364159113e-001

8.33972608672892e+004,-2.03277503267348e+001,-5.42826472437194e-001

8.45614432449099e+004,-2.03277623038929e+001,-5.50400724656109e-001

8.57418770029029e+004,-2.03277746162727e+001,-5.58080568919161e-001

8.69387890020841e+004,-2.03277872732135e+001,-5.65867473304471e-001

8.81524092701283e+004,-2.03278002843121e+001,-5.73762926135447e-001

8.93829710457770e+004,-2.03278136594299e+001,-5.81768436251339e-001

9.06307108236633e+004,-2.03278274087005e+001,-5.89885533284005e-001

9.18958683997622e+004,-2.03278415425363e+001,-5.98115767937432e-001

9.31786869174758e+004,-2.03278560716368e+001,-6.06460712267736e-001

9.44794129143618e+004,-2.03278710069955e+001,-6.14921959972257e-001

9.57982963695136e+004,-2.03278863599087e+001,-6.23501126675313e-001

9.71355907516031e+004,-2.03279021419831e+001,-6.32199850224522e-001

9.84915530675926e+004,-2.03279183651440e+001,-6.41019790985924e-001

9.98664439121282e+004,-2.03279350416443e+001,-6.49962632142942e-001

1.01260527517622e+005,-2.03279521840728e+001,-6.59030080001386e-001

1.02674071805032e+005,-2.03279698053635e+001,-6.68223864296212e-001

1.04107348435354e+005,-2.03279879188049e+001,-6.77545738502259e-001

1.05560632861831e+005,-2.03280065380489e+001,-6.86997480149760e-001

1.07034204382888e+005,-2.03280256771211e+001,-6.96580891141098e-001

1.08528346195813e+005,-2.03280453504302e+001,-7.06297798073993e-001

1.10043345451179e+005,-2.03280655727785e+001,-7.16150052567318e-001

1.11579493308032e+005,-2.03280863593722e+001,-7.26139531590353e-001

1.13137084989847e+005,-2.03281077258321e+001,-7.36268137795433e-001

1.14716419841265e+005,-2.03281296882043e+001,-7.46537799857202e-001

1.16317801385624e+005,-2.03281522629720e+001,-7.56950472810692e-001

1.17941537383287e+005,-2.03281754670662e+001,-7.67508138399646e-001

1.19587939890794e+005,-2.03281993178779e+001,-7.78212805423069e-001

1.21257325320831e+005,-2.03282238332702e+001,-7.89066510087709e-001

1.22950014503040e+005,-2.03282490315902e+001,-8.00071316367165e-001

1.24666332745679e+005,-2.03282749316822e+001,-8.11229316358796e-001

1.26406609898139e+005,-2.03283015528998e+001,-8.22542630652672e-001

1.28171180414339e+005,-2.03283289151202e+001,-8.34013408696111e-001

1.29960383416997e+005,-2.03283570387565e+001,-8.45643829169072e-001

1.31774562762811e+005,-2.03283859447728e+001,-8.57436100357895e-001

1.33614067108538e+005,-2.03284156546973e+001,-8.69392460538777e-001

1.35479249978003e+005,-2.03284461906372e+001,-8.81515178360991e-001

1.37370469830040e+005,-2.03284775752939e+001,-8.93806553234343e-001

1.39288090127379e+005,-2.03285098319774e+001,-9.06268915723942e-001

1.41232479406504e+005,-2.03285429846225e+001,-9.18904627944516e-001

1.43204011348474e+005,-2.03285770578040e+001,-9.31716083964318e-001

1.45203064850745e+005,-2.03286120767535e+001,-9.44705710205755e-001

1.47230024099979e+005,-2.03286480673756e+001,-9.57875965857116e-001

1.49285278645888e+005,-2.03286850562648e+001,-9.71229343285341e-001

1.51369223476094e+005,-2.03287230707232e+001,-9.84768368450406e-001

1.53482259092041e+005,-2.03287621387773e+001,-9.98495601329201e-001

1.55624791585964e+005,-2.03288022891970e+001,-1.01241363633872e+000

1.57797232718936e+005,-2.03288435515134e+001,-1.02652510276540e+000

1.59999999999999e+005,-2.03288859560377e+001,-1.04083266519737e+000

1.62233516766403e+005,-2.03289295338803e+001,-1.05533902396368e+000

1.64498212264969e+005,-2.03289743169708e+001,-1.07004691557162e+000

1.66794521734578e+005,-2.03290203380773e+001,-1.08495911315516e+000

1.69122886489819e+005,-2.03290676308274e+001,-1.10007842692075e+000

1.71483754005805e+005,-2.03291162297283e+001,-1.11540770460260e+000

1.73877578004168e+005,-2.03291661701885e+001,-1.13094983191799e+000

1.76304818540256e+005,-2.03292174885391e+001,-1.14670773302665e+000

1.78765942091554e+005,-2.03292702220556e+001,-1.16268437099818e+000

1.81261421647326e+005,-2.03293244089807e+001,-1.17888274827732e+000

1.83791736799524e+005,-2.03293800885468e+001,-1.19530590715705e+000

1.86357373834951e+005,-2.03294373009990e+001,-1.21195693025371e+000

1.88958825828723e+005,-2.03294960876189e+001,-1.22883894098828e+000

1.91596592739027e+005,-2.03295564907487e+001,-1.24595510406583e+000

1.94271181503206e+005,-2.03296185538151e+001,-1.26330862596582e+000

1.96983106135185e+005,-2.03296823213549e+001,-1.28090275542953e+000

1.99732887824256e+005,-2.03297478390391e+001,-1.29874078395603e+000

2.02521055035243e+005,-2.03298151536991e+001,-1.31682604629809e+000

2.05348143610063e+005,-2.03298843133531e+001,-1.33516192096216e+000

2.08214696870707e+005,-2.03299553672312e+001,-1.35375183071469e+000

2.11121265723661e+005,-2.03300283658033e+001,-1.37259924308664e+000

2.14068408765776e+005,-2.03301033608055e+001,-1.39170767088637e+000

2.17056692391625e+005,-2.03301804052675e+001,-1.41108067271282e+000

2.20086690902357e+005,-2.03302595535408e+001,-1.43072185347133e+000

2.23158986616063e+005,-2.03303408613268e+001,-1.45063486489419e+000

2.26274169979693e+005,-2.03304243857046e+001,-1.47082340606515e+000

2.29432839682530e+005,-2.03305101851603e+001,-1.49129122394274e+000

2.32635602771247e+005,-2.03305983196162e+001,-1.51204211389106e+000

2.35883074766574e+005,-2.03306888504595e+001,-1.53307992021037e+000

2.39175879781588e+005,-2.03307818405726e+001,-1.55440853667196e+000

2.42514650641661e+005,-2.03308773543623e+001,-1.57603190705513e+000

2.45900029006080e+005,-2.03309754577903e+001,-1.59795402568636e+000

2.49332665491357e+005,-2.03310762184036e+001,-1.62017893798159e+000

2.52813219796278e+005,-2.03311797053641e+001,-1.64271074099186e+000

2.56342360828676e+005,-2.03312859894806e+001,-1.66555358394828e+000

2.59920766833993e+005,-2.03313951432379e+001,-1.68871166881390e+000

2.63549125525621e+005,-2.03315072408291e+001,-1.71218925083296e+000

2.67228134217075e+005,-2.03316223581854e+001,-1.73599063908682e+000

2.70958499956006e+005,-2.03317405730079e+001,-1.76012019704833e+000

2.74740939660078e+005,-2.03318619647978e+001,-1.78458234314141e+000

2.78576180254757e+005,-2.03319866148875e+001,-1.80938155129984e+000

2.82464958813007e+005,-2.03321146064716e+001,-1.83452235153106e+000

2.86408022696948e+005,-2.03322460246375e+001,-1.86000933047917e+000

2.90406129701488e+005,-2.03323809563956e+001,-1.88584713199176e+000

2.94460048199957e+005,-2.03325194907099e+001,-1.91204045768821e+000

2.98570557291775e+005,-2.03326617185278e+001,-1.93859406752998e+000

3.02738446952187e+005,-2.03328077328100e+001,-1.96551278039108e+000

3.06964518184081e+005,-2.03329576285594e+001,-1.99280147463480e+000

3.11249583171928e+005,-2.03331115028505e+001,-2.02046508868793e+000

3.15594465437872e+005,-2.03332694548571e+001,-2.04850862161920e+000

3.19999999999997e+005,-2.03334315858808e+001,-2.07693713371946e+000

3.24467033532806e+005,-2.03335979993777e+001,-2.10575574708418e+000

3.28996424529938e+005,-2.03337688009847e+001,-2.13496964619820e+000

3.33589043469155e+005,-2.03339440985458e+001,-2.16458407852138e+000

3.38245772979638e+005,-2.03341240021362e+001,-2.19460435508026e+000

3.42967508011610e+005,-2.03343086240867e+001,-2.22503585105768e+000

3.47755156008335e+005,-2.03344980790063e+001,-2.25588400638908e+000

3.52609637080511e+005,-2.03346924838042e+001,-2.28715432636030e+000

3.57531884183106e+005,-2.03348919577098e+001,-2.31885238220815e+000

3.62522843294651e+005,-2.03350966222927e+001,-2.35098381172488e+000

3.67583473599047e+005,-2.03353066014802e+001,-2.38355431986738e+000

3.72714747669902e+005,-2.03355220215738e+001,-2.41656967936942e+000

3.77917651657445e+005,-2.03357430112638e+001,-2.45003573135852e+000

3.83193185478053e+005,-2.03359697016430e+001,-2.48395838597803e+000

3.88542363006410e+005,-2.03362022262174e+001,-2.51834362301484e+000

3.93966212270369e+005,-2.03364407209165e+001,-2.55319749253208e+000

3.99465775648511e+005,-2.03366853240997e+001,-2.58852611550920e+000

4.05042110070485e+005,-2.03369361765629e+001,-2.62433568448814e+000

4.10696287220124e+005,-2.03371934215404e+001,-2.66063246422864e+000

4.16429393741414e+005,-2.03374572047067e+001,-2.69742279236921e+000

4.22242531447321e+005,-2.03377276741741e+001,-2.73471308010035e+000

4.28136817531551e+005,-2.03380049804888e+001,-2.77250981284502e+000

4.34113384783250e+005,-2.03382892766240e+001,-2.81081955095203e+000

4.40173381804713e+005,-2.03385807179700e+001,-2.84964893039918e+000

4.46317973232124e+005,-2.03388794623215e+001,-2.88900466351058e+000

4.52548339959385e+005,-2.03391856698619e+001,-2.92889353968797e+000

4.58865679365059e+005,-2.03394995031447e+001,-2.96932242615483e+000

4.65271205542494e+005,-2.03398211270709e+001,-3.01029826871981e+000

4.71766149533147e+005,-2.03401507088638e+001,-3.05182809255503e+000

4.78351759563174e+005,-2.03404884180401e+001,-3.09391900299489e+000

4.85029301283321e+005,-2.03408344263769e+001,-3.13657818635450e+000

4.91800058012158e+005,-2.03411889078762e+001,-3.17981291077074e+000

4.98665330982714e+005,-2.03415520387242e+001,-3.22363052706579e+000

5.05626439592555e+005,-2.03419239972477e+001,-3.26803846963706e+000

5.12684721657352e+005,-2.03423049638669e+001,-3.31304425737361e+000

5.19841533667984e+005,-2.03426951210427e+001,-3.35865549460218e+000

5.27098251051240e+005,-2.03430946532218e+001,-3.40487987206341e+000

5.34456268434150e+005,-2.03435037467763e+001,-3.45172516792217e+000

5.41916999912011e+005,-2.03439225899402e+001,-3.49919924881216e+000

