Freq.,VOut,OutRef

1.00000000000000e+004,-2.05824860031004e+001,-1.89477278458561e-001

1.01395947979003e+004,-2.05824864842653e+001,-1.92122275296173e-001

1.02811382665607e+004,-2.05824869789575e+001,-1.94804194598434e-001

1.04246576084112e+004,-2.05824874875569e+001,-1.97523551772523e-001

1.05701804056138e+004,-2.05824880104548e+001,-2.00280869415943e-001

1.07177346253629e+004,-2.05824885480529e+001,-2.03076677424043e-001

1.08673486252606e+004,-2.05824891007646e+001,-2.05911513085475e-001

1.10190511587661e+004,-2.05824896690150e+001,-2.08785921190779e-001

1.11728713807222e+004,-2.05824902532404e+001,-2.11700454135820e-001

1.13288388529580e+004,-2.05824908538903e+001,-2.14655672023078e-001

1.14869835499703e+004,-2.05824914714264e+001,-2.17652142777046e-001

1.16473358646846e+004,-2.05824921063233e+001,-2.20690442246364e-001

1.18099266142953e+004,-2.05824927590691e+001,-2.23771154319341e-001

1.19747870461893e+004,-2.05824934301656e+001,-2.26894871033644e-001

1.21419488439505e+004,-2.05824941201287e+001,-2.30062192690452e-001

1.23114441334492e+004,-2.05824948294886e+001,-2.33273727970778e-001

1.24833054890161e+004,-2.05824955587907e+001,-2.36530094049962e-001

1.26575659397028e+004,-2.05824963085957e+001,-2.39831916719114e-001

1.28342589756290e+004,-2.05824970794799e+001,-2.43179830503671e-001

1.30134185544193e+004,-2.05824978720359e+001,-2.46574478786010e-001

1.31950791077289e+004,-2.05824986868729e+001,-2.50016513927880e-001

1.33792755478611e+004,-2.05824995246173e+001,-2.53506597396973e-001

1.35660432744767e+004,-2.05825003859131e+001,-2.57045399892894e-001

1.37554181813974e+004,-2.05825012714222e+001,-2.60633601479217e-001

1.39474366635040e+004,-2.05825021818255e+001,-2.64271891707984e-001

1.41421356237309e+004,-2.05825031178226e+001,-2.67960969758045e-001

1.43395524801583e+004,-2.05825040801333e+001,-2.71701544564934e-001

1.45397251732031e+004,-2.05825050694970e+001,-2.75494334962073e-001

1.47426921729110e+004,-2.05825060866744e+001,-2.79340069813021e-001

1.49484924863494e+004,-2.05825071324472e+001,-2.83239488155970e-001

1.51571656651040e+004,-2.05825082076194e+001,-2.87193339343656e-001

1.53687518128801e+004,-2.05825093130174e+001,-2.91202383187133e-001

1.55832915932100e+004,-2.05825104494909e+001,-2.95267390102680e-001

1.58008262372675e+004,-2.05825116179135e+001,-2.99389141259324e-001

1.60213975517924e+004,-2.05825128191833e+001,-3.03568428728227e-001

1.62450479271247e+004,-2.05825140542235e+001,-3.07806055637019e-001

1.64718203453514e+004,-2.05825153239837e+001,-3.12102836320050e-001

1.67017583885674e+004,-2.05825166294398e+001,-3.16459596479200e-001

1.69349062472505e+004,-2.05825179715950e+001,-3.20877173339521e-001

1.71713087287550e+004,-2.05825193514814e+001,-3.25356415809859e-001

1.74110112659224e+004,-2.05825207701593e+001,-3.29898184648951e-001

1.76540599258131e+004,-2.05825222287192e+001,-3.34503352627196e-001

1.79005014185594e+004,-2.05825237282822e+001,-3.39172804696539e-001

1.81503831063432e+004,-2.05825252700010e+001,-3.43907438158116e-001

1.84037530124975e+004,-2.05825268550606e+001,-3.48708162837326e-001

1.86606598307361e+004,-2.05825284846791e+001,-3.53575901256934e-001

1.89211529345119e+004,-2.05825301601094e+001,-3.58511588813136e-001

1.91852823865052e+004,-2.05825318826389e+001,-3.63516173958781e-001

1.94530989482457e+004,-2.05825336535918e+001,-3.68590618380736e-001

1.97246540898671e+004,-2.05825354743293e+001,-3.73735897187549e-001

1.99999999999999e+004,-2.05825373462505e+001,-3.78952999097348e-001

2.02791895958005e+004,-2.05825392707944e+001,-3.84242926623989e-001

2.05622765331213e+004,-2.05825412494401e+001,-3.89606696273271e-001

2.08493152168224e+004,-2.05825432837085e+001,-3.95045338735384e-001

2.11403608112276e+004,-2.05825453751629e+001,-4.00559899085628e-001

2.14354692507258e+004,-2.05825475254108e+001,-4.06151436981856e-001

2.17346972505211e+004,-2.05825497361048e+001,-4.11821026869688e-001

2.20381023175322e+004,-2.05825520089441e+001,-4.17569758187761e-001

2.23457427614443e+004,-2.05825543456751e+001,-4.23398735579237e-001

2.26576777059159e+004,-2.05825567480943e+001,-4.29309079098328e-001

2.29739670999406e+004,-2.05825592180476e+001,-4.35301924433193e-001

2.32946717293690e+004,-2.05825617574332e+001,-4.41378423117210e-001

2.36198532285905e+004,-2.05825643682031e+001,-4.47539742750981e-001

2.39495740923785e+004,-2.05825670523635e+001,-4.53787067230156e-001

2.42838976879009e+004,-2.05825698119771e+001,-4.60121596969405e-001

2.46228882668982e+004,-2.05825726491648e+001,-4.66544549132362e-001

2.49666109780322e+004,-2.05825755661071e+001,-4.73057157866784e-001

2.53151318794055e+004,-2.05825785650455e+001,-4.79660674540994e-001

2.56685179512580e+004,-2.05825816482847e+001,-4.86356367983389e-001

2.60268371088386e+004,-2.05825848181941e+001,-4.93145524726229e-001

2.63901582154578e+004,-2.05825880772098e+001,-5.00029449251722e-001

2.67585510957221e+004,-2.05825914278359e+001,-5.07009464244277e-001

2.71320865489533e+004,-2.05825948726474e+001,-5.14086910840910e-001

2.75108363627948e+004,-2.05825984142914e+001,-5.21263148891740e-001

2.78948733270080e+004,-2.05826020554896e+001,-5.28539557217457e-001

2.82842712474618e+004,-2.05826057990397e+001,-5.35917533877724e-001

2.86791049603164e+004,-2.05826096478184e+001,-5.43398496435424e-001

2.90794503464061e+004,-2.05826136047831e+001,-5.50983882231171e-001

2.94853843458219e+004,-2.05826176729745e+001,-5.58675148656476e-001

2.98969849726987e+004,-2.05826218555183e+001,-5.66473773436145e-001

3.03143313302078e+004,-2.05826261556282e+001,-5.74381254909093e-001

3.07375036257601e+004,-2.05826305766085e+001,-5.82399112315751e-001

3.11665831864199e+004,-2.05826351218558e+001,-5.90528886091102e-001

3.16016524745350e+004,-2.05826397948625e+001,-5.98772138158057e-001

3.20427951035848e+004,-2.05826445992190e+001,-6.07130452226712e-001

3.24900958542493e+004,-2.05826495386165e+001,-6.15605434099631e-001

3.29436406907028e+004,-2.05826546168499e+001,-6.24198711978391e-001

3.34035167771346e+004,-2.05826598378209e+001,-6.32911936774587e-001

3.38698124945009e+004,-2.05826652055404e+001,-6.41746782427849e-001

3.43426174575100e+004,-2.05826707241324e+001,-6.50704946225407e-001

3.48220225318448e+004,-2.05826763978363e+001,-6.59788149128253e-001

3.53081198516260e+004,-2.05826822310110e+001,-6.68998136098480e-001

3.58010028371187e+004,-2.05826882281375e+001,-6.78336676436636e-001

3.63007662126863e+004,-2.05826943938227e+001,-6.87805564118346e-001

3.68075060249948e+004,-2.05827007328033e+001,-6.97406618137387e-001

3.73213196614721e+004,-2.05827072499483e+001,-7.07141682856622e-001

3.78423058690237e+004,-2.05827139502641e+001,-7.17012628357373e-001

3.83705647730104e+004,-2.05827208388972e+001,-7.27021350801275e-001

3.89061978964912e+004,-2.05827279211390e+001,-7.37169772789527e-001

3.94493081797342e+004,-2.05827352024291e+001,-7.47459843733721e-001

3.99999999999998e+004,-2.05827426883604e+001,-7.57893540226142e-001

4.05583791916010e+004,-2.05827503846823e+001,-7.68472866421465e-001

4.11245530662425e+004,-2.05827582973058e+001,-7.79199854416588e-001

4.16986304336447e+004,-2.05827664323080e+001,-7.90076564640277e-001

4.22807216224550e+004,-2.05827747959365e+001,-8.01105086248999e-001

4.28709385014515e+004,-2.05827833946142e+001,-8.12287537524818e-001

4.34693945010421e+004,-2.05827922349446e+001,-8.23626066279913e-001

4.40762046350642e+004,-2.05828013237164e+001,-8.35122850268210e-001

4.46914855228886e+004,-2.05828106679087e+001,-8.46780097601829e-001

4.53153554118317e+004,-2.05828202746969e+001,-8.58600047171641e-001

4.59479341998812e+004,-2.05828301514573e+001,-8.70584969076978e-001

4.65893434587380e+004,-2.05828403057738e+001,-8.82737165057083e-001

4.72397064571810e+004,-2.05828507454427e+001,-8.95058968932738e-001

4.78991481847569e+004,-2.05828614784794e+001,-9.07552747050992e-001

4.85677953758016e+004,-2.05828725131240e+001,-9.20220898737150e-001

4.92457765337964e+004,-2.05828838578480e+001,-9.33065856752178e-001

4.99332219560642e+004,-2.05828955213605e+001,-9.46090087758523e-001

5.06302637588109e+004,-2.05829075126151e+001,-9.59296092790216e-001

5.13370359025159e+004,-2.05829198408166e+001,-9.72686407728788e-001

5.20536742176771e+004,-2.05829325154279e+001,-9.86263603789161e-001

5.27803164309155e+004,-2.05829455461776e+001,-1.00003028800759e+000

5.35171021914442e+004,-2.05829589430669e+001,-1.01398910374179e+000

5.42641730979066e+004,-2.05829727163780e+001,-1.02814273117162e+000

5.50216727255895e+004,-2.05829868766811e+001,-1.04249388781221e+000

5.57897466540159e+004,-2.05830014348430e+001,-1.05704532903116e+000

5.65685424949235e+004,-2.05830164020353e+001,-1.07179984857255e+000

5.73582099206328e+004,-2.05830317897430e+001,-1.08676027909043e+000

5.81589006928121e+004,-2.05830476097729e+001,-1.10192949268679e+000

5.89707686916437e+004,-2.05830638742631e+001,-1.11731040146001e+000

5.97939699453972e+004,-2.05830805956918e+001,-1.13290595805703e+000

6.06286626604156e+004,-2.05830977868873e+001,-1.14871915623630e+000

6.14750072515201e+004,-2.05831154610374e+001,-1.16475303143723e+000

6.23331663728396e+004,-2.05831336316995e+001,-1.18101066135720e+000

6.32033049490698e+004,-2.05831523128110e+001,-1.19749516653624e+000

6.40855902071694e+004,-2.05831715187001e+001,-1.21420971095011e+000

6.49801917084985e+004,-2.05831912640964e+001,-1.23115750261176e+000

6.58872813814055e+004,-2.05832115641421e+001,-1.24834179418009e+000

6.68070335542691e+004,-2.05832324344040e+001,-1.26576588357825e+000

6.77396249890018e+004,-2.05832538908848e+001,-1.28343311461843e+000

6.86852349150199e+004,-2.05832759500356e+001,-1.30134687763675e+000

6.96440450636895e+004,-2.05832986287681e+001,-1.31951061013636e+000

7.06162397032520e+004,-2.05833219444681e+001,-1.33792779743882e+000

7.16020056742374e+004,-2.05833459150076e+001,-1.35660197334512e+000

7.26015324253724e+004,-2.05833705587599e+001,-1.37553672080403e+000

7.36150120499896e+004,-2.05833958946121e+001,-1.39473567259134e+000

7.46426393229441e+004,-2.05834219419802e+001,-1.41420251199724e+000

7.56846117380472e+004,-2.05834487208239e+001,-1.43394097352385e+000

7.67411295460207e+004,-2.05834762516613e+001,-1.45395484358984e+000

7.78123957929823e+004,-2.05835045555850e+001,-1.47424796124736e+000

7.88986163594682e+004,-2.05835336542774e+001,-1.49482421890763e+000

7.99999999999995e+004,-2.05835635700278e+001,-1.51568756307513e+000

8.11167583832018e+004,-2.05835943257492e+001,-1.53684199509231e+000

8.22491061324848e+004,-2.05836259449952e+001,-1.55829157189651e+000

8.33972608672892e+004,-2.05836584519782e+001,-1.58004040678155e+000

8.45614432449099e+004,-2.05836918715876e+001,-1.60209267017704e+000

8.57418770029029e+004,-2.05837262294089e+001,-1.62445259043004e+000

8.69387890020841e+004,-2.05837615517425e+001,-1.64712445460345e+000

8.81524092701283e+004,-2.05837978656241e+001,-1.67011260928259e+000

8.93829710457770e+004,-2.05838351988447e+001,-1.69342146139093e+000

9.06307108236633e+004,-2.05838735799721e+001,-1.71705547901973e+000

9.18958683997622e+004,-2.05839130383721e+001,-1.74101919226608e+000

9.31786869174758e+004,-2.05839536042304e+001,-1.76531719408481e+000

9.44794129143618e+004,-2.05839953085759e+001,-1.78995414114780e+000

9.57982963695136e+004,-2.05840381833038e+001,-1.81493475471855e+000

9.71355907516031e+004,-2.05840822611998e+001,-1.84026382153532e+000

9.84915530675926e+004,-2.05841275759642e+001,-1.86594619470850e+000

9.98664439121282e+004,-2.05841741622382e+001,-1.89198679462613e+000

1.01260527517622e+005,-2.05842220556290e+001,-1.91839060987577e+000

1.02674071805032e+005,-2.05842712927372e+001,-1.94516269817453e+000

1.04107348435354e+005,-2.05843219111840e+001,-1.97230818731383e+000

1.05560632861831e+005,-2.05843739496394e+001,-1.99983227611519e+000

1.07034204382888e+005,-2.05844274478513e+001,-2.02774023539831e+000

1.08528346195813e+005,-2.05844824466752e+001,-2.05603740896247e+000

1.10043345451179e+005,-2.05845389881048e+001,-2.08472921458050e+000

1.11579493308032e+005,-2.05845971153035e+001,-2.11382114500577e+000

1.13137084989847e+005,-2.05846568726367e+001,-2.14331876899019e+000

1.14716419841265e+005,-2.05847183057045e+001,-2.17322773231923e+000

1.16317801385624e+005,-2.05847814613765e+001,-2.20355375885588e+000

1.17941537383287e+005,-2.05848463878260e+001,-2.23430265160124e+000

1.19587939890794e+005,-2.05849131345664e+001,-2.26548029376739e+000

1.21257325320831e+005,-2.05849817524879e+001,-2.29709264986297e+000

1.22950014503040e+005,-2.05850522938952e+001,-2.32914576679517e+000

1.24666332745679e+005,-2.05851248125466e+001,-2.36164577498242e+000

1.26406609898139e+005,-2.05851993636939e+001,-2.39459888948442e+000

1.28171180414339e+005,-2.05852760041232e+001,-2.42801141114365e+000

1.29960383416997e+005,-2.05853547921972e+001,-2.46188972774258e+000

1.31774562762811e+005,-2.05854357878981e+001,-2.49624031517614e+000

1.33614067108538e+005,-2.05855190528723e+001,-2.53106973863675e+000

1.35479249978003e+005,-2.05856046504758e+001,-2.56638465381577e+000

1.37370469830040e+005,-2.05856926458208e+001,-2.60219180811995e+000

1.39288090127379e+005,-2.05857831058241e+001,-2.63849804190097e+000

1.41232479406504e+005,-2.05858760992558e+001,-2.67531028970289e+000

1.43204011348474e+005,-2.05859716967903e+001,-2.71263558152333e+000

1.45203064850745e+005,-2.05860699710580e+001,-2.75048104408975e+000

1.47230024099979e+005,-2.05861709966987e+001,-2.78885390215247e+000

1.49285278645888e+005,-2.05862748504164e+001,-2.82776147979250e+000

1.51369223476094e+005,-2.05863816110349e+001,-2.86721120174621e+000

1.53482259092041e+005,-2.05864913595560e+001,-2.90721059474440e+000

1.55624791585964e+005,-2.05866041792182e+001,-2.94776728886929e+000

1.57797232718936e+005,-2.05867201555575e+001,-2.98888901892627e+000

1.59999999999999e+005,-2.05868393764696e+001,-3.03058362583314e+000

1.62233516766403e+005,-2.05869619322739e+001,-3.07285905802417e+000

1.64498212264969e+005,-2.05870879157787e+001,-3.11572337287314e+000

1.66794521734578e+005,-2.05872174223486e+001,-3.15918473813109e+000

1.69122886489819e+005,-2.05873505499733e+001,-3.20325143338156e+000

1.71483754005805e+005,-2.05874873993388e+001,-3.24793185151263e+000

1.73877578004168e+005,-2.05876280738993e+001,-3.29323450020687e+000

1.76304818540256e+005,-2.05877726799519e+001,-3.33916800344661e+000

1.78765942091554e+005,-2.05879213267130e+001,-3.38574110303866e+000

1.81261421647326e+005,-2.05880741263964e+001,-3.43296266015460e+000

1.83791736799524e+005,-2.05882311942939e+001,-3.48084165688885e+000

1.86357373834951e+005,-2.05883926488569e+001,-3.52938719783609e+000

1.88958825828723e+005,-2.05885586117818e+001,-3.57860851168279e+000

1.91596592739027e+005,-2.05887292080957e+001,-3.62851495282008e+000

1.94271181503206e+005,-2.05889045662452e+001,-3.67911600297288e+000

1.96983106135185e+005,-2.05890848181880e+001,-3.73042127284545e+000

1.99732887824256e+005,-2.05892700994852e+001,-3.78244050378785e+000

2.02521055035243e+005,-2.05894605493978e+001,-3.83518356947822e+000

2.05348143610063e+005,-2.05896563109836e+001,-3.88866047762406e+000

2.08214696870707e+005,-2.05898575311985e+001,-3.94288137168142e+000

2.11121265723661e+005,-2.05900643609990e+001,-3.99785653259231e+000

2.14068408765776e+005,-2.05902769554472e+001,-4.05359638054025e+000

2.17056692391625e+005,-2.05904954738194e+001,-4.11011147672511e+000

2.20086690902357e+005,-2.05907200797165e+001,-4.16741252515421e+000

2.23158986616063e+005,-2.05909509411771e+001,-4.22551037445442e+000

2.26274169979693e+005,-2.05911882307937e+001,-4.28441601970047e+000

2.29432839682530e+005,-2.05914321258319e+001,-4.34414060426305e+000

2.32635602771247e+005,-2.05916828083517e+001,-4.40469542167494e+000

2.35883074766574e+005,-2.05919404653323e+001,-4.46609191751549e+000

2.39175879781588e+005,-2.05922052888002e+001,-4.52834169131385e+000

2.42514650641661e+005,-2.05924774759591e+001,-4.59145649847081e+000

2.45900029006080e+005,-2.05927572293244e+001,-4.65544825219817e+000

2.49332665491357e+005,-2.05930447568600e+001,-4.72032902547819e+000

2.52813219796278e+005,-2.05933402721182e+001,-4.78611105304042e+000

2.56342360828676e+005,-2.05936439943835e+001,-4.85280673335701e+000

2.59920766833993e+005,-2.05939561488192e+001,-4.92042863065697e+000

2.63549125525621e+005,-2.05942769666180e+001,-4.98898947695766e+000

2.67228134217075e+005,-2.05946066851551e+001,-5.05850217411675e+000

2.70958499956006e+005,-2.05949455481458e+001,-5.12897979589979e+000

2.74740939660078e+005,-2.05952938058063e+001,-5.20043559006850e+000

2.78576180254757e+005,-2.05956517150179e+001,-5.27288298048486e+000

2.82464958813007e+005,-2.05960195394955e+001,-5.34633556923600e+000

2.86408022696948e+005,-2.05963975499593e+001,-5.42080713877436e+000

2.90406129701488e+005,-2.05967860243108e+001,-5.49631165407769e+000

2.94460048199957e+005,-2.05971852478123e+001,-5.57286326482582e+000

2.98570557291775e+005,-2.05975955132707e+001,-5.65047630759655e+000

3.02738446952187e+005,-2.05980171212253e+001,-5.72916530807696e+000

3.06964518184081e+005,-2.05984503801395e+001,-5.80894498329479e+000

3.11249583171928e+005,-2.05988956065967e+001,-5.88983024386521e+000

3.15594465437872e+005,-2.05993531255006e+001,-5.97183619625682e+000

3.19999999999997e+005,-2.05998232702802e+001,-6.05497814507217e+000

3.24467033532806e+005,-2.06003063830975e+001,-6.13927159534871e+000

3.28996424529938e+005,-2.06008028150623e+001,-6.22473225487361e+000

3.33589043469155e+005,-2.06013129264487e+001,-6.31137603651784e+000

3.38245772979638e+005,-2.06018370869183e+001,-6.39921906058502e+000

3.42967508011610e+005,-2.06023756757469e+001,-6.48827765717773e+000

3.47755156008335e+005,-2.06029290820561e+001,-6.57856836858061e+000

3.52609637080511e+005,-2.06034977050498e+001,-6.67010795165841e+000

3.57531884183106e+005,-2.06040819542558e+001,-6.76291338027138e+000

3.62522843294651e+005,-2.06046822497714e+001,-6.85700184770599e+000

3.67583473599047e+005,-2.06052990225148e+001,-6.95239076912132e+000

3.72714747669902e+005,-2.06059327144816e+001,-7.04909778401174e+000

3.77917651657445e+005,-2.06065837790052e+001,-7.14714075868405e+000

3.83193185478053e+005,-2.06072526810242e+001,-7.24653778875110e+000

3.88542363006410e+005,-2.06079398973533e+001,-7.34730720163962e+000

3.93966212270369e+005,-2.06086459169608e+001,-7.44946755911350e+000

3.99465775648511e+005,-2.06093712412503e+001,-7.55303765981231e+000

4.05042110070485e+005,-2.06101163843492e+001,-7.65803654180391e+000

4.10696287220124e+005,-2.06108818734017e+001,-7.76448348515181e+000

4.16429393741414e+005,-2.06116682488676e+001,-7.87239801449751e+000

4.22242531447321e+005,-2.06124760648271e+001,-7.98179990165645e+000

4.28136817531551e+005,-2.06133058892910e+001,-8.09270916822882e+000

4.34113384783250e+005,-2.06141583045170e+001,-8.20514608822442e+000

4.40173381804713e+005,-2.06150339073321e+001,-8.31913119070024e+000

4.46317973232124e+005,-2.06159333094601e+001,-8.43468526241439e+000

4.52548339959385e+005,-2.06168571378563e+001,-8.55182935049140e+000

4.58865679365059e+005,-2.06178060350480e+001,-8.67058476510241e+000

4.65271205542494e+005,-2.06187806594807e+001,-8.79097308215914e+000

4.71766149533147e+005,-2.06197816858719e+001,-8.91301614602023e+000

4.78351759563174e+005,-2.06208098055705e+001,-9.03673607221250e+000

4.85029301283321e+005,-2.06218657269226e+001,-9.16215525016429e+000

4.91800058012158e+005,-2.06229501756450e+001,-9.28929634595321e+000

4.98665330982714e+005,-2.06240638952049e+001,-9.41818230506600e+000

5.05626439592555e+005,-2.06252076472066e+001,-9.54883635517261e+000

5.12684721657352e+005,-2.06263822117853e+001,-9.68128200891272e+000

5.19841533667984e+005,-2.06275883880085e+001,-9.81554306669551e+000

5.27098251051240e+005,-2.06288269942848e+001,-9.95164361951262e+000

5.34456268434150e+005,-2.06300988687794e+001,-1.00896080517638e+001

5.41916999912011e+005,-2.06314048698386e+001,-1.02294610440957e+001

