Freq.,VOut,OutRef

1.00000000000000e+004,-1.95795313068165e+001,-8.01293266339296e-002

1.01395947979003e+004,-1.95795314159812e+001,-8.12478881613568e-002

1.02811382665607e+004,-1.95795315282147e+001,-8.23820641338539e-002

1.04246576084112e+004,-1.95795316436036e+001,-8.35320725150748e-002

1.05701804056138e+004,-1.95795317622364e+001,-8.46981343135746e-002

1.07177346253629e+004,-1.95795318842040e+001,-8.58804736245050e-002

1.08673486252606e+004,-1.95795320096008e+001,-8.70793176658958e-002

1.10190511587661e+004,-1.95795321385226e+001,-8.82948968331349e-002

1.11728713807222e+004,-1.95795322710689e+001,-8.95274447331704e-002

1.13288388529580e+004,-1.95795324073413e+001,-9.07771982368120e-002

1.14869835499703e+004,-1.95795325474446e+001,-9.20443975199322e-002

1.16473358646846e+004,-1.95795326914868e+001,-9.33292861098171e-002

1.18099266142953e+004,-1.95795328395781e+001,-9.46321109363722e-002

1.19747870461893e+004,-1.95795329918328e+001,-9.59531223719918e-002

1.21419488439505e+004,-1.95795331483676e+001,-9.72925742879418e-002

1.23114441334492e+004,-1.95795333093032e+001,-9.86507240949997e-002

1.24833054890161e+004,-1.95795334747629e+001,-1.00027832801575e-001

1.26575659397028e+004,-1.95795336448742e+001,-1.01424165054936e-001

1.28342589756290e+004,-1.95795338197675e+001,-1.02839989200592e-001

1.30134185544193e+004,-1.95795339995774e+001,-1.04275577326656e-001

1.31950791077289e+004,-1.95795341844424e+001,-1.05731205318555e-001

1.33792755478611e+004,-1.95795343745042e+001,-1.07207152915699e-001

1.35660432744767e+004,-1.95795345699092e+001,-1.08703703759359e-001

1.37554181813974e+004,-1.95795347708073e+001,-1.10221145452236e-001

1.39474366635040e+004,-1.95795349773530e+001,-1.11759769610046e-001

1.41421356237309e+004,-1.95795351897051e+001,-1.13319871918993e-001

1.43395524801583e+004,-1.95795354080268e+001,-1.14901752192684e-001

1.45397251732031e+004,-1.95795356324860e+001,-1.16505714428610e-001

1.47426921729110e+004,-1.95795358632551e+001,-1.18132066869506e-001

1.49484924863494e+004,-1.95795361005115e+001,-1.19781122058509e-001

1.51571656651040e+004,-1.95795363444376e+001,-1.21453196902672e-001

1.53687518128801e+004,-1.95795365952207e+001,-1.23148612732338e-001

1.55832915932100e+004,-1.95795368530539e+001,-1.24867695359910e-001

1.58008262372675e+004,-1.95795371181349e+001,-1.26610775150992e-001

1.60213975517924e+004,-1.95795373906680e+001,-1.28378187076004e-001

1.62450479271247e+004,-1.95795376708622e+001,-1.30170270786840e-001

1.64718203453514e+004,-1.95795379589330e+001,-1.31987370671801e-001

1.67017583885674e+004,-1.95795382551019e+001,-1.33829835926724e-001

1.69349062472505e+004,-1.95795385595963e+001,-1.35698020623890e-001

1.71713087287550e+004,-1.95795388726503e+001,-1.37592283775036e-001

1.74110112659224e+004,-1.95795391945048e+001,-1.39512989401932e-001

1.76540599258131e+004,-1.95795395254066e+001,-1.41460506611794e-001

1.79005014185594e+004,-1.95795398656104e+001,-1.43435209657352e-001

1.81503831063432e+004,-1.95795402153777e+001,-1.45437478018790e-001

1.84037530124975e+004,-1.95795405749770e+001,-1.47467696472257e-001

1.86606598307361e+004,-1.95795409446850e+001,-1.49526255163577e-001

1.89211529345119e+004,-1.95795413247854e+001,-1.51613549685139e-001

1.91852823865052e+004,-1.95795417155708e+001,-1.53729981147850e-001

1.94530989482457e+004,-1.95795421173411e+001,-1.55875956264234e-001

1.97246540898671e+004,-1.95795425304052e+001,-1.58051887421157e-001

1.99999999999999e+004,-1.95795429550806e+001,-1.60258192760565e-001

2.02791895958005e+004,-1.95795433916935e+001,-1.62495296262869e-001

2.05622765331213e+004,-1.95795438405795e+001,-1.64763627822723e-001

2.08493152168224e+004,-1.95795443020835e+001,-1.67063623337135e-001

2.11403608112276e+004,-1.95795447765603e+001,-1.69395724784003e-001

2.14354692507258e+004,-1.95795452643744e+001,-1.71760380312008e-001

2.17346972505211e+004,-1.95795457659006e+001,-1.74158044324276e-001

2.20381023175322e+004,-1.95795462815242e+001,-1.76589177563868e-001

2.23457427614443e+004,-1.95795468116415e+001,-1.79054247205779e-001

2.26576777059159e+004,-1.95795473566599e+001,-1.81553726942552e-001

2.29739670999406e+004,-1.95795479169980e+001,-1.84088097080630e-001

2.32946717293690e+004,-1.95795484930863e+001,-1.86657844628034e-001

2.36198532285905e+004,-1.95795490853680e+001,-1.89263463386301e-001

2.39495740923785e+004,-1.95795496942974e+001,-1.91905454054795e-001

2.42838976879009e+004,-1.95795503203429e+001,-1.94584324313627e-001

2.46228882668982e+004,-1.95795509639852e+001,-1.97300588932885e-001

2.49666109780322e+004,-1.95795516257190e+001,-2.00054769863072e-001

2.53151318794055e+004,-1.95795523060525e+001,-2.02847396340749e-001

2.56685179512580e+004,-1.95795530055085e+001,-2.05679004985673e-001

2.60268371088386e+004,-1.95795537246244e+001,-2.08550139908012e-001

2.63901582154578e+004,-1.95795544639527e+001,-2.11461352809175e-001

2.67585510957221e+004,-1.95795552240612e+001,-2.14413203091937e-001

2.71320865489533e+004,-1.95795560055339e+001,-2.17406257962304e-001

2.75108363627948e+004,-1.95795568089712e+001,-2.20441092542773e-001

2.78948733270080e+004,-1.95795576349902e+001,-2.23518289980428e-001

2.82842712474618e+004,-1.95795584842253e+001,-2.26638441561459e-001

2.86791049603164e+004,-1.95795593573291e+001,-2.29802146819461e-001

2.90794503464061e+004,-1.95795602549721e+001,-2.33010013656728e-001

2.94853843458219e+004,-1.95795611778439e+001,-2.36262658456569e-001

2.98969849726987e+004,-1.95795621266532e+001,-2.39560706202688e-001

3.03143313302078e+004,-1.95795631021290e+001,-2.42904790600013e-001

3.07375036257601e+004,-1.95795641050201e+001,-2.46295554196127e-001

3.11665831864199e+004,-1.95795651360971e+001,-2.49733648501637e-001

3.16016524745350e+004,-1.95795661961517e+001,-2.53219734120317e-001

3.20427951035848e+004,-1.95795672859983e+001,-2.56754480869644e-001

3.24900958542493e+004,-1.95795684064734e+001,-2.60338567917007e-001

3.29436406907028e+004,-1.95795695584379e+001,-2.63972683900968e-001

3.34035167771346e+004,-1.95795707427763e+001,-2.67657527070111e-001

3.38698124945009e+004,-1.95795719603979e+001,-2.71393805415539e-001

3.43426174575100e+004,-1.95795732122377e+001,-2.75182236804277e-001

3.48220225318448e+004,-1.95795744992571e+001,-2.79023549118797e-001

3.53081198516260e+004,-1.95795758224442e+001,-2.82918480396844e-001

3.58010028371187e+004,-1.95795771828149e+001,-2.86867778971188e-001

3.63007662126863e+004,-1.95795785814139e+001,-2.90872203614462e-001

3.68075060249948e+004,-1.95795800193145e+001,-2.94932523685894e-001

3.73213196614721e+004,-1.95795814976210e+001,-2.99049519275619e-001

3.78423058690237e+004,-1.95795830174681e+001,-3.03223981354924e-001

3.83705647730104e+004,-1.95795845800226e+001,-3.07456711931007e-001

3.89061978964912e+004,-1.95795861864839e+001,-3.11748524197131e-001

3.94493081797342e+004,-1.95795878380850e+001,-3.16100242689563e-001

3.99999999999998e+004,-1.95795895360937e+001,-3.20512703446394e-001

4.05583791916010e+004,-1.95795912818133e+001,-3.24986754165163e-001

4.11245530662425e+004,-1.95795930765835e+001,-3.29523254369507e-001

4.16986304336447e+004,-1.95795949217818e+001,-3.34123075569226e-001

4.22807216224550e+004,-1.95795968188242e+001,-3.38787101429416e-001

4.28709385014515e+004,-1.95795987691664e+001,-3.43516227942177e-001

4.34693945010421e+004,-1.95796007743050e+001,-3.48311363591743e-001

4.40762046350642e+004,-1.95796028357786e+001,-3.53173429535361e-001

4.46914855228886e+004,-1.95796049551686e+001,-3.58103359775423e-001

4.53153554118317e+004,-1.95796071341014e+001,-3.63102101338412e-001

4.59479341998812e+004,-1.95796093742483e+001,-3.68170614458629e-001

4.65893434587380e+004,-1.95796116773279e+001,-3.73309872760280e-001

4.72397064571810e+004,-1.95796140451069e+001,-3.78520863442990e-001

4.78991481847569e+004,-1.95796164794013e+001,-3.83804587472430e-001

4.85677953758016e+004,-1.95796189820783e+001,-3.89162059771234e-001

4.92457765337964e+004,-1.95796215550571e+001,-3.94594309412364e-001

4.99332219560642e+004,-1.95796242003109e+001,-4.00102379818315e-001

5.06302637588109e+004,-1.95796269198684e+001,-4.05687328955905e-001

5.13370359025159e+004,-1.95796297158145e+001,-4.11350229544437e-001

5.20536742176771e+004,-1.95796325902931e+001,-4.17092169256731e-001

5.27803164309155e+004,-1.95796355455079e+001,-4.22914250927849e-001

5.35171021914442e+004,-1.95796385837243e+001,-4.28817592767621e-001

5.42641730979066e+004,-1.95796417072713e+001,-4.34803328571125e-001

5.50216727255895e+004,-1.95796449185429e+001,-4.40872607939664e-001

5.57897466540159e+004,-1.95796482200003e+001,-4.47026596495864e-001

5.65685424949235e+004,-1.95796516141735e+001,-4.53266476108982e-001

5.73582099206328e+004,-1.95796551036635e+001,-4.59593445121248e-001

5.81589006928121e+004,-1.95796586911437e+001,-4.66008718574140e-001

5.89707686916437e+004,-1.95796623793627e+001,-4.72513528441901e-001

5.97939699453972e+004,-1.95796661711460e+001,-4.79109123866640e-001

6.06286626604156e+004,-1.95796700693979e+001,-4.85796771397015e-001

6.14750072515201e+004,-1.95796740771042e+001,-4.92577755228401e-001

6.23331663728396e+004,-1.95796781973340e+001,-4.99453377450583e-001

6.32033049490698e+004,-1.95796824332423e+001,-5.06424958292718e-001

6.40855902071694e+004,-1.95796867880723e+001,-5.13493836378471e-001

6.49801917084985e+004,-1.95796912651581e+001,-5.20661368977319e-001

6.58872813814055e+004,-1.95796958679266e+001,-5.27928932268139e-001

6.68070335542691e+004,-1.95797005999008e+001,-5.35297921596981e-001

6.77396249890018e+004,-1.95797054647020e+001,-5.42769751745249e-001

6.86852349150199e+004,-1.95797104660528e+001,-5.50345857199025e-001

6.96440450636895e+004,-1.95797156077796e+001,-5.58027692421029e-001

7.06162397032520e+004,-1.95797208938158e+001,-5.65816732129553e-001

7.16020056742374e+004,-1.95797263282046e+001,-5.73714471576489e-001

7.26015324253724e+004,-1.95797319151021e+001,-5.81722426834499e-001

7.36150120499896e+004,-1.95797376587804e+001,-5.89842135083396e-001

7.46426393229441e+004,-1.95797435636307e+001,-5.98075154904332e-001

7.56846117380472e+004,-1.95797496341671e+001,-6.06423066572871e-001

7.67411295460207e+004,-1.95797558750292e+001,-6.14887472363363e-001

7.78123957929823e+004,-1.95797622909862e+001,-6.23469996851287e-001

7.88986163594682e+004,-1.95797688869403e+001,-6.32172287221208e-001

7.99999999999995e+004,-1.95797756679303e+001,-6.40996013581156e-001

8.11167583832018e+004,-1.95797826391355e+001,-6.49942869277725e-001

8.22491061324848e+004,-1.95797898058792e+001,-6.59014571220094e-001

8.33972608672892e+004,-1.95797971736337e+001,-6.68212860202174e-001

8.45614432449099e+004,-1.95798047480229e+001,-6.77539501236387e-001

8.57418770029029e+004,-1.95798125348279e+001,-6.86996283884744e-001

8.69387890020841e+004,-1.95798205399903e+001,-6.96585022601013e-001

8.81524092701283e+004,-1.95798287696173e+001,-7.06307557071930e-001

8.93829710457770e+004,-1.95798372299859e+001,-7.16165752566754e-001

9.06307108236633e+004,-1.95798459275476e+001,-7.26161500290529e-001

9.18958683997622e+004,-1.95798548689334e+001,-7.36296717740842e-001

9.31786869174758e+004,-1.95798640609586e+001,-7.46573349069928e-001

9.44794129143618e+004,-1.95798735106278e+001,-7.56993365455019e-001

9.57982963695136e+004,-1.95798832251401e+001,-7.67558765467430e-001

9.71355907516031e+004,-1.95798932118946e+001,-7.78271575451707e-001

9.84915530675926e+004,-1.95799034784959e+001,-7.89133849906563e-001

9.98664439121282e+004,-1.95799140327592e+001,-8.00147671875011e-001

1.01260527517622e+005,-1.95799248827169e+001,-8.11315153335256e-001

1.02674071805032e+005,-1.95799360366239e+001,-8.22638435598107e-001

1.04107348435354e+005,-1.95799475029639e+001,-8.34119689712261e-001

1.05560632861831e+005,-1.95799592904556e+001,-8.45761116871357e-001

1.07034204382888e+005,-1.95799714080594e+001,-8.57564948828856e-001

1.08528346195813e+005,-1.95799838649833e+001,-8.69533448318068e-001

1.10043345451179e+005,-1.95799966706906e+001,-8.81668909475804e-001

1.11579493308032e+005,-1.95800098349059e+001,-8.93973658275082e-001

1.13137084989847e+005,-1.95800233676230e+001,-9.06450052960669e-001

1.14716419841265e+005,-1.95800372791113e+001,-9.19100484492353e-001

1.16317801385624e+005,-1.95800515799246e+001,-9.31927376990995e-001

1.17941537383287e+005,-1.95800662809073e+001,-9.44933188195694e-001

1.19587939890794e+005,-1.95800813932034e+001,-9.58120409921186e-001

1.21257325320831e+005,-1.95800969282643e+001,-9.71491568525439e-001

1.22950014503040e+005,-1.95801128978567e+001,-9.85049225381945e-001

1.24666332745679e+005,-1.95801293140715e+001,-9.98795977357485e-001

1.26406609898139e+005,-1.95801461893327e+001,-1.01273445729750e+000

1.28171180414339e+005,-1.95801635364060e+001,-1.02686733451594e+000

1.29960383416997e+005,-1.95801813684081e+001,-1.04119731529524e+000

1.31774562762811e+005,-1.95801996988162e+001,-1.05572714338702e+000

1.33614067108538e+005,-1.95802185414775e+001,-1.07045960052569e+000

1.35479249978003e+005,-1.95802379106196e+001,-1.08539750694328e+000

1.37370469830040e+005,-1.95802578208599e+001,-1.10054372189461e+000

1.39288090127379e+005,-1.95802782872168e+001,-1.11590114418721e+000

1.41232479406504e+005,-1.95802993251199e+001,-1.13147271271933e+000

1.43204011348474e+005,-1.95803209504210e+001,-1.14726140702386e+000

1.45203064850745e+005,-1.95803431794056e+001,-1.16327024781979e+000

1.47230024099979e+005,-1.95803660288042e+001,-1.17950229757167e+000

1.49285278645888e+005,-1.95803895158042e+001,-1.19596066105267e+000

1.51369223476094e+005,-1.95804136580618e+001,-1.21264848592053e+000

1.53482259092041e+005,-1.95804384737147e+001,-1.22956896329600e+000

1.55624791585964e+005,-1.95804639813946e+001,-1.24672532835038e+000

1.57797232718936e+005,-1.95804902002404e+001,-1.26412086090096e+000

1.59999999999999e+005,-1.95805171499111e+001,-1.28175888601358e+000

1.62233516766403e+005,-1.95805448505999e+001,-1.29964277461206e+000

1.64498212264969e+005,-1.95805733230482e+001,-1.31777594409736e+000

1.66794521734578e+005,-1.95806025885596e+001,-1.33616185897112e+000

1.69122886489819e+005,-1.95806326690148e+001,-1.35480403147162e+000

1.71483754005805e+005,-1.95806635868864e+001,-1.37370602221342e+000

1.73877578004168e+005,-1.95806953652547e+001,-1.39287144083700e+000

1.76304818540256e+005,-1.95807280278229e+001,-1.41230394666644e+000

1.78765942091554e+005,-1.95807615989338e+001,-1.43200724937572e+000

1.81261421647326e+005,-1.95807961035858e+001,-1.45198510966142e+000

1.83791736799524e+005,-1.95808315674498e+001,-1.47224133992572e+000

1.86357373834951e+005,-1.95808680168870e+001,-1.49277980496627e+000

1.88958825828723e+005,-1.95809054789659e+001,-1.51360442267654e+000

1.91596592739027e+005,-1.95809439814809e+001,-1.53471916475211e+000

1.94271181503206e+005,-1.95809835529703e+001,-1.55612805740787e+000

1.96983106135185e+005,-1.95810242227356e+001,-1.57783518210305e+000

1.99732887824256e+005,-1.95810660208607e+001,-1.59984467627435e+000

2.02521055035243e+005,-1.95811089782316e+001,-1.62216073407990e+000

2.05348143610063e+005,-1.95811531265566e+001,-1.64478760714927e+000

2.08214696870707e+005,-1.95811984983869e+001,-1.66772960534623e+000

2.11121265723661e+005,-1.95812451271379e+001,-1.69099109753732e+000

2.14068408765776e+005,-1.95812930471106e+001,-1.71457651237158e+000

2.17056692391625e+005,-1.95813422935134e+001,-1.73849033906859e+000

2.20086690902357e+005,-1.95813929024852e+001,-1.76273712821672e+000

2.23158986616063e+005,-1.95814449111175e+001,-1.78732149258045e+000

2.26274169979693e+005,-1.95814983574785e+001,-1.81224810791707e+000

2.29432839682530e+005,-1.95815532806370e+001,-1.83752171380367e+000

2.32635602771247e+005,-1.95816097206862e+001,-1.86314711447242e+000

2.35883074766574e+005,-1.95816677187694e+001,-1.88912917965811e+000

2.39175879781588e+005,-1.95817273171049e+001,-1.91547284545312e+000

2.42514650641661e+005,-1.95817885590121e+001,-1.94218311517402e+000

2.45900029006080e+005,-1.95818514889378e+001,-1.96926506023743e+000

2.49332665491357e+005,-1.95819161524835e+001,-1.99672382104644e+000

2.52813219796278e+005,-1.95819825964323e+001,-2.02456460788777e+000

2.56342360828676e+005,-1.95820508687775e+001,-2.05279270183745e+000

2.59920766833993e+005,-1.95821210187507e+001,-2.08141345568012e+000

2.63549125525621e+005,-1.95821930968510e+001,-2.11043229483508e+000

2.67228134217075e+005,-1.95822671548744e+001,-2.13985471829756e+000

2.70958499956006e+005,-1.95823432459444e+001,-2.16968629958567e+000

2.74740939660078e+005,-1.95824214245420e+001,-2.19993268770268e+000

2.78576180254757e+005,-1.95825017465376e+001,-2.23059960810688e+000

2.82464958813007e+005,-1.95825842692218e+001,-2.26169286369645e+000

2.86408022696948e+005,-1.95826690513386e+001,-2.29321833580095e+000

2.90406129701488e+005,-1.95827561531178e+001,-2.32518198518736e+000

2.94460048199957e+005,-1.95828456363083e+001,-2.35758985307747e+000

2.98570557291775e+005,-1.95829375642121e+001,-2.39044806217405e+000

3.02738446952187e+005,-1.95830320017185e+001,-2.42376281770325e+000

3.06964518184081e+005,-1.95831290153396e+001,-2.45754040846472e+000

3.11249583171928e+005,-1.95832286732451e+001,-2.49178720789592e+000

3.15594465437872e+005,-1.95833310452989e+001,-2.52650967514862e+000

3.19999999999997e+005,-1.95834362030954e+001,-2.56171435617591e+000

3.24467033532806e+005,-1.95835442199964e+001,-2.59740788483487e+000

3.28996424529938e+005,-1.95836551711694e+001,-2.63359698399784e+000

3.33589043469155e+005,-1.95837691336246e+001,-2.67028846668090e+000

3.38245772979638e+005,-1.95838861862546e+001,-2.70748923718084e+000

3.42967508011610e+005,-1.95840064098731e+001,-2.74520629222932e+000

3.47755156008335e+005,-1.95841298872543e+001,-2.78344672215848e+000

3.52609637080511e+005,-1.95842567031733e+001,-2.82221771207923e+000

3.57531884183106e+005,-1.95843869444467e+001,-2.86152654307560e+000

3.62522843294651e+005,-1.95845206999736e+001,-2.90138059341231e+000

3.67583473599047e+005,-1.95846580607773e+001,-2.94178733975558e+000

3.72714747669902e+005,-1.95847991200468e+001,-2.98275435840959e+000

3.77917651657445e+005,-1.95849439731802e+001,-3.02428932656784e+000

3.83193185478053e+005,-1.95850927178266e+001,-3.06640002357892e+000

3.88542363006410e+005,-1.95852454539301e+001,-3.10909433222903e+000

3.93966212270369e+005,-1.95854022837734e+001,-3.15238024003788e+000

3.99465775648511e+005,-1.95855633120216e+001,-3.19626584057374e+000

4.05042110070485e+005,-1.95857286457676e+001,-3.24075933478220e+000

4.10696287220124e+005,-1.95858983945764e+001,-3.28586903233296e+000

4.16429393741414e+005,-1.95860726705306e+001,-3.33160335298456e+000

4.22242531447321e+005,-1.95862515882763e+001,-3.37797082796455e+000

4.28136817531551e+005,-1.95864352650693e+001,-3.42498010137018e+000

4.34113384783250e+005,-1.95866238208214e+001,-3.47263993158540e+000

4.40173381804713e+005,-1.95868173781476e+001,-3.52095919271837e+000

4.46317973232124e+005,-1.95870160624126e+001,-3.56994687605767e+000

4.52548339959385e+005,-1.95872200017795e+001,-3.61961209154832e+000

4.58865679365059e+005,-1.95874293272567e+001,-3.66996406928895e+000

4.65271205542494e+005,-1.95876441727469e+001,-3.72101216104934e+000

4.71766149533147e+005,-1.95878646750954e+001,-3.77276584181042e+000

4.78351759563174e+005,-1.95880909741392e+001,-3.82523471132587e+000

4.85029301283321e+005,-1.95883232127566e+001,-3.87842849570663e+000

4.91800058012158e+005,-1.95885615369166e+001,-3.93235704903032e+000

4.98665330982714e+005,-1.95888060957292e+001,-3.98703035497295e+000

5.05626439592555e+005,-1.95890570414964e+001,-4.04245852846728e+000

5.12684721657352e+005,-1.95893145297624e+001,-4.09865181738660e+000

5.19841533667984e+005,-1.95895787193658e+001,-4.15562060425493e+000

5.27098251051240e+005,-1.95898497724912e+001,-4.21337540798488e+000

5.34456268434150e+005,-1.95901278547216e+001,-4.27192688564394e+000

5.41916999912011e+005,-1.95904131350915e+001,-4.33128583424959e+000

