Freq.,VOut,OutRef

1.00000000000000e+004,-1.70966703443615e+001,-1.79955140599284e-001

1.01395947979003e+004,-1.70966706589374e+001,-1.82467215400528e-001

1.02811382665607e+004,-1.70966709823571e+001,-1.85014357232129e-001

1.04246576084112e+004,-1.70966713148690e+001,-1.87597055601893e-001

1.05701804056138e+004,-1.70966716567290e+001,-1.90215806850458e-001

1.07177346253629e+004,-1.70966720081995e+001,-1.92871114247675e-001

1.08673486252606e+004,-1.70966723695511e+001,-1.95563488085503e-001

1.10190511587661e+004,-1.70966727410614e+001,-1.98293445782592e-001

1.11728713807222e+004,-1.70966731230158e+001,-2.01061511977754e-001

1.13288388529580e+004,-1.70966735157082e+001,-2.03868218632885e-001

1.14869835499703e+004,-1.70966739194402e+001,-2.06714105136434e-001

1.16473358646846e+004,-1.70966743345225e+001,-2.09599718404305e-001

1.18099266142953e+004,-1.70966747612738e+001,-2.12525612988737e-001

1.19747870461893e+004,-1.70966752000222e+001,-2.15492351181279e-001

1.21419488439505e+004,-1.70966756511053e+001,-2.18500503120437e-001

1.23114441334492e+004,-1.70966761148694e+001,-2.21550646907021e-001

1.24833054890161e+004,-1.70966765916714e+001,-2.24643368706654e-001

1.26575659397028e+004,-1.70966770818776e+001,-2.27779262870419e-001

1.28342589756290e+004,-1.70966775858647e+001,-2.30958932044098e-001

1.30134185544193e+004,-1.70966781040202e+001,-2.34182987284830e-001

1.31950791077289e+004,-1.70966786367425e+001,-2.37452048179592e-001

1.33792755478611e+004,-1.70966791844410e+001,-2.40766742963357e-001

1.35660432744767e+004,-1.70966797475369e+001,-2.44127708639684e-001

1.37554181813974e+004,-1.70966803264626e+001,-2.47535591105559e-001

1.39474366635040e+004,-1.70966809216634e+001,-2.50991045271116e-001

1.41421356237309e+004,-1.70966815335969e+001,-2.54494735187405e-001

1.43395524801583e+004,-1.70966821627332e+001,-2.58047334177207e-001

1.45397251732031e+004,-1.70966828095561e+001,-2.61649524958580e-001

1.47426921729110e+004,-1.70966834745628e+001,-2.65301999779413e-001

1.49484924863494e+004,-1.70966841582644e+001,-2.69005460550522e-001

1.51571656651040e+004,-1.70966848611863e+001,-2.72760618980656e-001

1.53687518128801e+004,-1.70966855838688e+001,-2.76568196710676e-001

1.55832915932100e+004,-1.70966863268676e+001,-2.80428925454453e-001

1.58008262372675e+004,-1.70966870907537e+001,-2.84343547138673e-001

1.60213975517924e+004,-1.70966878761143e+001,-2.88312814046135e-001

1.62450479271247e+004,-1.70966886835530e+001,-2.92337488958650e-001

1.64718203453514e+004,-1.70966895136902e+001,-2.96418345306660e-001

1.67017583885674e+004,-1.70966903671644e+001,-3.00556167312233e-001

1.69349062472505e+004,-1.70966912446312e+001,-3.04751750146743e-001

1.71713087287550e+004,-1.70966921467654e+001,-3.09005900076785e-001

1.74110112659224e+004,-1.70966930742601e+001,-3.13319434624246e-001

1.76540599258131e+004,-1.70966940278283e+001,-3.17693182720495e-001

1.79005014185594e+004,-1.70966950082028e+001,-3.22127984867310e-001

1.81503831063432e+004,-1.70966960161373e+001,-3.26624693295389e-001

1.84037530124975e+004,-1.70966970524063e+001,-3.31184172132152e-001

1.86606598307361e+004,-1.70966981178065e+001,-3.35807297563731e-001

1.89211529345119e+004,-1.70966992131565e+001,-3.40494958006856e-001

1.91852823865052e+004,-1.70967003392983e+001,-3.45248054275770e-001

1.94530989482457e+004,-1.70967014970974e+001,-3.50067499758146e-001

1.97246540898671e+004,-1.70967026874436e+001,-3.54954220589962e-001

1.99999999999999e+004,-1.70967039112518e+001,-3.59909155830723e-001

2.02791895958005e+004,-1.70967051694624e+001,-3.64933257648598e-001

2.05622765331213e+004,-1.70967064630428e+001,-3.70027491497394e-001

2.08493152168224e+004,-1.70967077929867e+001,-3.75192836308259e-001

2.11403608112276e+004,-1.70967091603164e+001,-3.80430284672081e-001

2.14354692507258e+004,-1.70967105660828e+001,-3.85740843033309e-001

2.17346972505211e+004,-1.70967120113662e+001,-3.91125531882115e-001

2.20381023175322e+004,-1.70967134972774e+001,-3.96585385950089e-001

2.23457427614443e+004,-1.70967150249580e+001,-4.02121454410896e-001

2.26576777059159e+004,-1.70967165955825e+001,-4.07734801077222e-001

2.29739670999406e+004,-1.70967182103576e+001,-4.13426504611089e-001

2.32946717293690e+004,-1.70967198705243e+001,-4.19197658724979e-001

2.36198532285905e+004,-1.70967215773583e+001,-4.25049372396108e-001

2.39495740923785e+004,-1.70967233321716e+001,-4.30982770076496e-001

2.42838976879009e+004,-1.70967251363122e+001,-4.36998991911592e-001

2.46228882668982e+004,-1.70967269911668e+001,-4.43099193955972e-001

2.49666109780322e+004,-1.70967288981607e+001,-4.49284548397757e-001

2.53151318794055e+004,-1.70967308587592e+001,-4.55556243781851e-001

2.56685179512580e+004,-1.70967328744689e+001,-4.61915485238807e-001

2.60268371088386e+004,-1.70967349468388e+001,-4.68363494716740e-001

2.63901582154578e+004,-1.70967370774612e+001,-4.74901511214590e-001

2.67585510957221e+004,-1.70967392679732e+001,-4.81530791020560e-001

2.71320865489533e+004,-1.70967415200581e+001,-4.88252607953325e-001

2.75108363627948e+004,-1.70967438354462e+001,-4.95068253605895e-001

2.78948733270080e+004,-1.70967462159166e+001,-5.01979037593740e-001

2.82842712474618e+004,-1.70967486632983e+001,-5.08986287806527e-001

2.86791049603164e+004,-1.70967511794717e+001,-5.16091350661985e-001

2.90794503464061e+004,-1.70967537663700e+001,-5.23295591364171e-001

2.94853843458219e+004,-1.70967564259808e+001,-5.30600394166496e-001

2.98969849726987e+004,-1.70967591603473e+001,-5.38007162636940e-001

3.03143313302078e+004,-1.70967619715705e+001,-5.45517319926009e-001

3.07375036257601e+004,-1.70967648618100e+001,-5.53132309040697e-001

3.11665831864199e+004,-1.70967678332863e+001,-5.60853593121728e-001

3.16016524745350e+004,-1.70967708882822e+001,-5.68682655723163e-001

3.20427951035848e+004,-1.70967740291445e+001,-5.76621001098176e-001

3.24900958542493e+004,-1.70967772582863e+001,-5.84670154484897e-001

3.29436406907028e+004,-1.70967805781879e+001,-5.92831662402164e-001

3.34035167771346e+004,-1.70967839913997e+001,-6.01107092944343e-001

3.38698124945009e+004,-1.70967875005436e+001,-6.09498036081229e-001

3.43426174575100e+004,-1.70967911083150e+001,-6.18006103964881e-001

3.48220225318448e+004,-1.70967948174852e+001,-6.26632931237318e-001

3.53081198516260e+004,-1.70967986309033e+001,-6.35380175342941e-001

3.58010028371187e+004,-1.70968025514982e+001,-6.44249516849240e-001

3.63007662126863e+004,-1.70968065822814e+001,-6.53242659765046e-001

3.68075060249948e+004,-1.70968107263484e+001,-6.62361331870966e-001

3.73213196614721e+004,-1.70968149868821e+001,-6.71607285047363e-001

3.78423058690237e+004,-1.70968193671547e+001,-6.80982295611279e-001

3.83705647730104e+004,-1.70968238705300e+001,-6.90488164656817e-001

3.89061978964912e+004,-1.70968285004666e+001,-7.00126718400543e-001

3.94493081797342e+004,-1.70968332605199e+001,-7.09899808530330e-001

3.99999999999998e+004,-1.70968381543452e+001,-7.19809312560735e-001

4.05583791916010e+004,-1.70968431857005e+001,-7.29857134191911e-001

4.11245530662425e+004,-1.70968483584491e+001,-7.40045203675735e-001

4.16986304336447e+004,-1.70968536765629e+001,-7.50375478183256e-001

4.22807216224550e+004,-1.70968591441253e+001,-7.60849942181162e-001

4.28709385014515e+004,-1.70968647653340e+001,-7.71470607811228e-001

4.34693945010421e+004,-1.70968705445050e+001,-7.82239515274558e-001

4.40762046350642e+004,-1.70968764860751e+001,-7.93158733222906e-001

4.46914855228886e+004,-1.70968825946055e+001,-8.04230359155874e-001

4.53153554118317e+004,-1.70968888747856e+001,-8.15456519819967e-001

4.59479341998812e+004,-1.70968953314365e+001,-8.26839371615593e-001

4.65893434587380e+004,-1.70969019695142e+001,-8.38381101012342e-001

4.72397064571810e+004,-1.70969087941139e+001,-8.50083924964311e-001

4.78991481847569e+004,-1.70969158104739e+001,-8.61950091335341e-001

4.85677953758016e+004,-1.70969230239792e+001,-8.73981879329386e-001

4.92457765337964e+004,-1.70969304401661e+001,-8.86181599924570e-001

4.99332219560642e+004,-1.70969380647260e+001,-8.98551596317364e-001

5.06302637588109e+004,-1.70969459035099e+001,-9.11094244368648e-001

5.13370359025159e+004,-1.70969539625331e+001,-9.23811953059062e-001

5.20536742176771e+004,-1.70969622479793e+001,-9.36707164947872e-001

5.27803164309155e+004,-1.70969707662059e+001,-9.49782356641822e-001

5.35171021914442e+004,-1.70969795237483e+001,-9.63040039265633e-001

5.42641730979066e+004,-1.70969885273254e+001,-9.76482758943631e-001

5.50216727255895e+004,-1.70969977838441e+001,-9.90113097285950e-001

5.57897466540159e+004,-1.70970073004052e+001,-1.00393367188020e+000

5.65685424949235e+004,-1.70970170843086e+001,-1.01794713679216e+000

5.73582099206328e+004,-1.70970271430584e+001,-1.03215618307202e+000

5.81589006928121e+004,-1.70970374843694e+001,-1.04656353926805e+000

5.89707686916437e+004,-1.70970481161726e+001,-1.06117197194624e+000

5.97939699453972e+004,-1.70970590466209e+001,-1.07598428622131e+000

6.06286626604156e+004,-1.70970702840958e+001,-1.09100332628674e+000

6.14750072515201e+004,-1.70970818372138e+001,-1.10623197596071e+000

6.23331663728396e+004,-1.70970937148325e+001,-1.12167315923533e+000

6.32033049490698e+004,-1.70971059260576e+001,-1.13732984083322e+000

6.40855902071694e+004,-1.70971184802501e+001,-1.15320502677137e+000

6.49801917084985e+004,-1.70971313870328e+001,-1.16930176493720e+000

6.58872813814055e+004,-1.70971446562982e+001,-1.18562314566526e+000

6.68070335542691e+004,-1.70971582982156e+001,-1.20217230232789e+000

6.77396249890018e+004,-1.70971723232391e+001,-1.21895241193132e+000

6.86852349150199e+004,-1.70971867421153e+001,-1.23596669572012e+000

6.96440450636895e+004,-1.70972015658917e+001,-1.25321841978922e+000

7.06162397032520e+004,-1.70972168059249e+001,-1.27071089570679e+000

7.16020056742374e+004,-1.70972324738892e+001,-1.28844748114303e+000

7.26015324253724e+004,-1.70972485817856e+001,-1.30643158050838e+000

7.36150120499896e+004,-1.70972651419508e+001,-1.32466664560034e+000

7.46426393229441e+004,-1.70972821670664e+001,-1.34315617625960e+000

7.56846117380472e+004,-1.70972996701689e+001,-1.36190372103451e+000

7.67411295460207e+004,-1.70973176646589e+001,-1.38091287785586e+000

7.78123957929823e+004,-1.70973361643121e+001,-1.40018729471757e+000

7.88986163594682e+004,-1.70973551832890e+001,-1.41973067037012e+000

7.99999999999995e+004,-1.70973747361459e+001,-1.43954675502246e+000

8.11167583832018e+004,-1.70973948378457e+001,-1.45963935105200e+000

8.22491061324848e+004,-1.70974155037697e+001,-1.48001231372600e+000

8.33972608672892e+004,-1.70974367497284e+001,-1.50066955193115e+000

8.45614432449099e+004,-1.70974585919742e+001,-1.52161502891471e+000

8.57418770029029e+004,-1.70974810472131e+001,-1.54285276303350e+000

8.69387890020841e+004,-1.70975041326178e+001,-1.56438682851574e+000

8.81524092701283e+004,-1.70975278658399e+001,-1.58622135623001e+000

8.93829710457770e+004,-1.70975522650238e+001,-1.60836053446745e+000

9.06307108236633e+004,-1.70975773488204e+001,-1.63080860973239e+000

9.18958683997622e+004,-1.70976031364003e+001,-1.65356988754499e+000

9.31786869174758e+004,-1.70976296474694e+001,-1.67664873325309e+000

9.44794129143618e+004,-1.70976569022825e+001,-1.70004957285735e+000

9.57982963695136e+004,-1.70976849216593e+001,-1.72377689384451e+000

9.71355907516031e+004,-1.70977137269996e+001,-1.74783524603409e+000

9.84915530675926e+004,-1.70977433402998e+001,-1.77222924243508e+000

9.98664439121282e+004,-1.70977737841686e+001,-1.79696356011505e+000

1.01260527517622e+005,-1.70978050818446e+001,-1.82204294108014e+000

1.02674071805032e+005,-1.70978372572132e+001,-1.84747219316664e+000

1.04107348435354e+005,-1.70978703348248e+001,-1.87325619094495e+000

1.05560632861831e+005,-1.70979043399128e+001,-1.89939987663538e+000

1.07034204382888e+005,-1.70979392984127e+001,-1.92590826103526e+000

1.08528346195813e+005,-1.70979752369812e+001,-1.95278642446018e+000

1.10043345451179e+005,-1.70980121830161e+001,-1.98003951769567e+000

1.11579493308032e+005,-1.70980501646765e+001,-2.00767276296274e+000

1.13137084989847e+005,-1.70980892109042e+001,-2.03569145489552e+000

1.14716419841265e+005,-1.70981293514448e+001,-2.06410096153144e+000

1.16317801385624e+005,-1.70981706168695e+001,-2.09290672531556e+000

1.17941537383287e+005,-1.70982130385983e+001,-2.12211426411729e+000

1.19587939890794e+005,-1.70982566489231e+001,-2.15172917226007e+000

1.21257325320831e+005,-1.70983014810311e+001,-2.18175712156522e+000

1.22950014503040e+005,-1.70983475690300e+001,-2.21220386240903e+000

1.24666332745679e+005,-1.70983949479726e+001,-2.24307522479375e+000

1.26406609898139e+005,-1.70984436538829e+001,-2.27437711943228e+000

1.28171180414339e+005,-1.70984937237824e+001,-2.30611553884715e+000

1.29960383416997e+005,-1.70985451957175e+001,-2.33829655848323e+000

1.31774562762811e+005,-1.70985981087875e+001,-2.37092633783612e+000

1.33614067108538e+005,-1.70986525031728e+001,-2.40401112159286e+000

1.35479249978003e+005,-1.70987084201647e+001,-2.43755724078948e+000

1.37370469830040e+005,-1.70987659021954e+001,-2.47157111398292e+000

1.39288090127379e+005,-1.70988249928693e+001,-2.50605924843564e+000

1.41232479406504e+005,-1.70988857369943e+001,-2.54102824131958e+000

1.43204011348474e+005,-1.70989481806146e+001,-2.57648478093130e+000

1.45203064850745e+005,-1.70990123710442e+001,-2.61243564792534e+000

1.47230024099979e+005,-1.70990783569014e+001,-2.64888771656190e+000

1.49285278645888e+005,-1.70991461881438e+001,-2.68584795597035e+000

1.51369223476094e+005,-1.70992159161041e+001,-2.72332343143025e+000

1.53482259092041e+005,-1.70992875935280e+001,-2.76132130566546e+000

1.55624791585964e+005,-1.70993612746113e+001,-2.79984884015702e+000

1.57797232718936e+005,-1.70994370150398e+001,-2.83891339647186e+000

1.59999999999999e+005,-1.70995148720283e+001,-2.87852243760760e+000

1.62233516766403e+005,-1.70995949043626e+001,-2.91868352935372e+000

1.64498212264969e+005,-1.70996771724407e+001,-2.95940434167161e+000

1.66794521734578e+005,-1.70997617383166e+001,-3.00069265008910e+000

1.69122886489819e+005,-1.70998486657440e+001,-3.04255633711361e+000

1.71483754005805e+005,-1.70999380202219e+001,-3.08500339366254e+000

1.73877578004168e+005,-1.71000298690411e+001,-3.12804192051108e+000

1.76304818540256e+005,-1.71001242813319e+001,-3.17168012975693e+000

1.78765942091554e+005,-1.71002213281126e+001,-3.21592634630496e+000

1.81261421647326e+005,-1.71003210823397e+001,-3.26078900936688e+000

1.83791736799524e+005,-1.71004236189596e+001,-3.30627667398113e+000

1.86357373834951e+005,-1.71005290149605e+001,-3.35239801255091e+000

1.88958825828723e+005,-1.71006373494269e+001,-3.39916181639910e+000

1.91596592739027e+005,-1.71007487035943e+001,-3.44657699734442e+000

1.94271181503206e+005,-1.71008631609061e+001,-3.49465258929290e+000

1.96983106135185e+005,-1.71009808070712e+001,-3.54339774985184e+000

1.99732887824256e+005,-1.71011017301238e+001,-3.59282176195937e+000

2.02521055035243e+005,-1.71012260204836e+001,-3.64293403553623e+000

2.05348143610063e+005,-1.71013537710185e+001,-3.69374410915476e+000

2.08214696870707e+005,-1.71014850771083e+001,-3.74526165172764e+000

2.11121265723661e+005,-1.71016200367096e+001,-3.79749646421751e+000

2.14068408765776e+005,-1.71017587504231e+001,-3.85045848136501e+000

2.17056692391625e+005,-1.71019013215616e+001,-3.90415777343692e+000

2.20086690902357e+005,-1.71020478562202e+001,-3.95860454799501e+000

2.23158986616063e+005,-1.71021984633482e+001,-4.01380915168380e+000

2.26274169979693e+005,-1.71023532548218e+001,-4.06978207204050e+000

2.29432839682530e+005,-1.71025123455199e+001,-4.12653393932322e+000

2.32635602771247e+005,-1.71026758534003e+001,-4.18407552836115e+000

2.35883074766574e+005,-1.71028438995784e+001,-4.24241776042483e+000

2.39175879781588e+005,-1.71030166084079e+001,-4.30157170511803e+000

2.42514650641661e+005,-1.71031941075623e+001,-4.36154858228896e+000

2.45900029006080e+005,-1.71033765281196e+001,-4.42235976396463e+000

2.49332665491357e+005,-1.71035640046476e+001,-4.48401677630492e+000

2.52813219796278e+005,-1.71037566752924e+001,-4.54653130157783e+000

2.56342360828676e+005,-1.71039546818675e+001,-4.60991518015813e+000

2.59920766833993e+005,-1.71041581699463e+001,-4.67418041254446e+000

2.63549125525621e+005,-1.71043672889552e+001,-4.73933916140142e+000

2.67228134217075e+005,-1.71045821922698e+001,-4.80540375362106e+000

2.70958499956006e+005,-1.71048030373129e+001,-4.87238668240754e+000

2.74740939660078e+005,-1.71050299856541e+001,-4.94030060938338e+000

2.78576180254757e+005,-1.71052632031123e+001,-5.00915836671804e+000

2.82464958813007e+005,-1.71055028598601e+001,-5.07897295927851e+000

2.86408022696948e+005,-1.71057491305298e+001,-5.14975756680332e+000

2.90406129701488e+005,-1.71060021943227e+001,-5.22152554609733e+000

2.94460048199957e+005,-1.71062622351196e+001,-5.29429043325128e+000

2.98570557291775e+005,-1.71065294415944e+001,-5.36806594588220e+000

3.02738446952187e+005,-1.71068040073294e+001,-5.44286598539854e+000

3.06964518184081e+005,-1.71070861309337e+001,-5.51870463928688e+000

3.11249583171928e+005,-1.71073760161628e+001,-5.59559618342204e+000

3.15594465437872e+005,-1.71076738720417e+001,-5.67355508440240e+000

3.19999999999997e+005,-1.71079799129900e+001,-5.75259600190541e+000

3.24467033532806e+005,-1.71082943589493e+001,-5.83273379106963e+000

3.28996424529938e+005,-1.71086174355131e+001,-5.91398350489926e+000

3.33589043469155e+005,-1.71089493740597e+001,-5.99636039669219e+000

3.38245772979638e+005,-1.71092904118870e+001,-6.07987992249340e+000

3.42967508011610e+005,-1.71096407923500e+001,-6.16455774357095e+000

3.47755156008335e+005,-1.71100007650010e+001,-6.25040972891860e+000

3.52609637080511e+005,-1.71103705857327e+001,-6.33745195778022e+000

3.57531884183106e+005,-1.71107505169233e+001,-6.42570072220187e+000

3.62522843294651e+005,-1.71111408275844e+001,-6.51517252960618e+000

3.67583473599047e+005,-1.71115417935121e+001,-6.60588410539454e+000

3.72714747669902e+005,-1.71119536974403e+001,-6.69785239557241e+000

3.77917651657445e+005,-1.71123768291968e+001,-6.79109456940182e+000

3.83193185478053e+005,-1.71128114858623e+001,-6.88562802207908e+000

3.88542363006410e+005,-1.71132579719317e+001,-6.98147037743883e+000

3.93966212270369e+005,-1.71137165994793e+001,-7.07863949068470e+000

3.99465775648511e+005,-1.71141876883254e+001,-7.17715345114616e+000

4.05042110070485e+005,-1.71146715662071e+001,-7.27703058506283e+000

4.10696287220124e+005,-1.71151685689506e+001,-7.37828945839681e+000

4.16429393741414e+005,-1.71156790406479e+001,-7.48094887967120e+000

4.22242531447321e+005,-1.71162033338353e+001,-7.58502790283759e+000

4.28136817531551e+005,-1.71167418096753e+001,-7.69054583017259e+000

4.34113384783250e+005,-1.71172948381415e+001,-7.79752221520214e+000

4.40173381804713e+005,-1.71178627982065e+001,-7.90597686565550e+000

4.46317973232124e+005,-1.71184460780333e+001,-8.01592984644940e+000

4.52548339959385e+005,-1.71190450751686e+001,-8.12740148270174e+000

4.58865679365059e+005,-1.71196601967408e+001,-8.24041236277699e+000

4.65271205542494e+005,-1.71202918596603e+001,-8.35498334136149e+000

4.71766149533147e+005,-1.71209404908231e+001,-8.47113554257190e+000

4.78351759563174e+005,-1.71216065273182e+001,-8.58889036309510e+000

4.85029301283321e+005,-1.71222904166378e+001,-8.70826947536156e+000

4.91800058012158e+005,-1.71229926168911e+001,-8.82929483075246e+000

4.98665330982714e+005,-1.71237135970222e+001,-8.95198866283999e+000

5.05626439592555e+005,-1.71244538370308e+001,-9.07637349066440e+000

5.12684721657352e+005,-1.71252138281970e+001,-9.20247212204476e+000

5.19841533667984e+005,-1.71259940733095e+001,-9.33030765692760e+000

5.27098251051240e+005,-1.71267950868985e+001,-9.45990349077213e+000

5.34456268434150e+005,-1.71276173954716e+001,-9.59128331797271e+000

5.41916999912011e+005,-1.71284615377543e+001,-9.72447113532110e+000

