Freq.,VOut,OutRef

1.00000000000000e+004,-1.79248310843499e+001,-6.28967839287919e-002

1.01395947979003e+004,-1.79248312367549e+001,-6.37747850061842e-002

1.02811382665607e+004,-1.79248313934445e+001,-6.46650422953109e-002

1.04246576084112e+004,-1.79248315545391e+001,-6.55677268773508e-002

1.05701804056138e+004,-1.79248317201619e+001,-6.64830122243350e-002

1.07177346253629e+004,-1.79248318904410e+001,-6.74110742209993e-002

1.08673486252606e+004,-1.79248320655071e+001,-6.83520912136447e-002

1.10190511587661e+004,-1.79248322454942e+001,-6.93062440385691e-002

1.11728713807222e+004,-1.79248324305414e+001,-7.02737160489742e-002

1.13288388529580e+004,-1.79248326207901e+001,-7.12546931663084e-002

1.14869835499703e+004,-1.79248328163873e+001,-7.22493638981922e-002

1.16473358646846e+004,-1.79248330174828e+001,-7.32579193890257e-002

1.18099266142953e+004,-1.79248332242317e+001,-7.42805534467616e-002

1.19747870461893e+004,-1.79248334367923e+001,-7.53174625890358e-002

1.21419488439505e+004,-1.79248336553283e+001,-7.63688460721952e-002

1.23114441334492e+004,-1.79248338800074e+001,-7.74349059355550e-002

1.24833054890161e+004,-1.79248341110027e+001,-7.85158470354971e-002

1.26575659397028e+004,-1.79248343484915e+001,-7.96118770899895e-002

1.28342589756290e+004,-1.79248345926562e+001,-8.07232067168382e-002

1.30134185544193e+004,-1.79248348436846e+001,-8.18500494690367e-002

1.31950791077289e+004,-1.79248351017696e+001,-8.29926218835944e-002

1.33792755478611e+004,-1.79248353671096e+001,-8.41511435181372e-002

1.35660432744767e+004,-1.79248356399084e+001,-8.53258369941578e-002

1.37554181813974e+004,-1.79248359203756e+001,-8.65169280403851e-002

1.39474366635040e+004,-1.79248362087268e+001,-8.77246455357460e-002

1.41421356237309e+004,-1.79248365051838e+001,-8.89492215517393e-002

1.43395524801583e+004,-1.79248368099740e+001,-9.01908914017005e-002

1.45397251732031e+004,-1.79248371233320e+001,-9.14498936787559e-002

1.47426921729110e+004,-1.79248374454986e+001,-9.27264703076672e-002

1.49484924863494e+004,-1.79248377767211e+001,-9.40208665897721e-002

1.51571656651040e+004,-1.79248381172541e+001,-9.53333312489594e-002

1.53687518128801e+004,-1.79248384673595e+001,-9.66641164789915e-002

1.55832915932100e+004,-1.79248388273059e+001,-9.80134779947765e-002

1.58008262372675e+004,-1.79248391973704e+001,-9.93816750760093e-002

1.60213975517924e+004,-1.79248395778371e+001,-1.00768970624292e-001

1.62450479271247e+004,-1.79248399689983e+001,-1.02175631208555e-001

1.64718203453514e+004,-1.79248403711547e+001,-1.03601927114915e-001

1.67017583885674e+004,-1.79248407846151e+001,-1.05048132405567e-001

1.69349062472505e+004,-1.79248412096974e+001,-1.06514524962031e-001

1.71713087287550e+004,-1.79248416467283e+001,-1.08001386544950e-001

1.74110112659224e+004,-1.79248420960433e+001,-1.09509002848450e-001

1.76540599258131e+004,-1.79248425579877e+001,-1.11037663550649e-001

1.79005014185594e+004,-1.79248430329164e+001,-1.12587662372423e-001

1.81503831063432e+004,-1.79248435211944e+001,-1.14159297131059e-001

1.84037530124975e+004,-1.79248440231968e+001,-1.15752869801075e-001

1.86606598307361e+004,-1.79248445393094e+001,-1.17368686568829e-001

1.89211529345119e+004,-1.79248450699285e+001,-1.19007057893733e-001

1.91852823865052e+004,-1.79248456154618e+001,-1.20668298566136e-001

1.94530989482457e+004,-1.79248461763283e+001,-1.22352727768452e-001

1.97246540898671e+004,-1.79248467529592e+001,-1.24060669133975e-001

1.99999999999999e+004,-1.79248473457972e+001,-1.25792450814152e-001

2.02791895958005e+004,-1.79248479552976e+001,-1.27548405537900e-001

2.05622765331213e+004,-1.79248485819290e+001,-1.29328870672470e-001

2.08493152168224e+004,-1.79248492261722e+001,-1.31134188296237e-001

2.11403608112276e+004,-1.79248498885226e+001,-1.32964705255901e-001

2.14354692507258e+004,-1.79248505694886e+001,-1.34820773238636e-001

2.17346972505211e+004,-1.79248512695935e+001,-1.36702748836011e-001

2.20381023175322e+004,-1.79248519893747e+001,-1.38610993615211e-001

2.23457427614443e+004,-1.79248527293855e+001,-1.40545874185344e-001

2.26576777059159e+004,-1.79248534901939e+001,-1.42507762270742e-001

2.29739670999406e+004,-1.79248542723844e+001,-1.44497034779667e-001

2.32946717293690e+004,-1.79248550765575e+001,-1.46514073877864e-001

2.36198532285905e+004,-1.79248559033310e+001,-1.48559267061591e-001

2.39495740923785e+004,-1.79248567533398e+001,-1.50633007230012e-001

2.42838976879009e+004,-1.79248576272363e+001,-1.52735692765633e-001

2.46228882668982e+004,-1.79248585256921e+001,-1.54867727602500e-001

2.49666109780322e+004,-1.79248594493968e+001,-1.57029521311104e-001

2.53151318794055e+004,-1.79248603990598e+001,-1.59221489172933e-001

2.56685179512580e+004,-1.79248613754101e+001,-1.61444052260605e-001

2.60268371088386e+004,-1.79248623791975e+001,-1.63697637519303e-001

2.63901582154578e+004,-1.79248634111928e+001,-1.65982677846102e-001

2.67585510957221e+004,-1.79248644721880e+001,-1.68299612177027e-001

2.71320865489533e+004,-1.79248655629977e+001,-1.70648885567568e-001

2.75108363627948e+004,-1.79248666844595e+001,-1.73030949277347e-001

2.78948733270080e+004,-1.79248678374342e+001,-1.75446260859114e-001

2.82842712474618e+004,-1.79248690228068e+001,-1.77895284246118e-001

2.86791049603164e+004,-1.79248702414873e+001,-1.80378489837311e-001

2.90794503464061e+004,-1.79248714944110e+001,-1.82896354591832e-001

2.94853843458219e+004,-1.79248727825397e+001,-1.85449362117091e-001

2.98969849726987e+004,-1.79248741068618e+001,-1.88038002762583e-001

3.03143313302078e+004,-1.79248754683938e+001,-1.90662773713872e-001

3.07375036257601e+004,-1.79248768681805e+001,-1.93324179085544e-001

3.11665831864199e+004,-1.79248783072962e+001,-1.96022730019701e-001

3.16016524745350e+004,-1.79248797868451e+001,-1.98758944783150e-001

3.20427951035848e+004,-1.79248813079625e+001,-2.01533348865726e-001

3.24900958542493e+004,-1.79248828718155e+001,-2.04346475081950e-001

3.29436406907028e+004,-1.79248844796037e+001,-2.07198863671385e-001

3.34035167771346e+004,-1.79248861325610e+001,-2.10091062400170e-001

3.38698124945009e+004,-1.79248878319550e+001,-2.13023626672838e-001

3.43426174575100e+004,-1.79248895790895e+001,-2.15997119627043e-001

3.48220225318448e+004,-1.79248913753047e+001,-2.19012112250794e-001

3.53081198516260e+004,-1.79248932219779e+001,-2.22069183488944e-001

3.58010028371187e+004,-1.79248951205257e+001,-2.25168920347139e-001

3.63007662126863e+004,-1.79248970724040e+001,-2.28311918014673e-001

3.68075060249948e+004,-1.79248990791095e+001,-2.31498779968724e-001

3.73213196614721e+004,-1.79249011421810e+001,-2.34730118093997e-001

3.78423058690237e+004,-1.79249032632002e+001,-2.38006552798792e-001

3.83705647730104e+004,-1.79249054437933e+001,-2.41328713130647e-001

3.89061978964912e+004,-1.79249076856318e+001,-2.44697236901009e-001

3.94493081797342e+004,-1.79249099904344e+001,-2.48112770801367e-001

3.99999999999998e+004,-1.79249123599674e+001,-2.51575970530515e-001

4.05583791916010e+004,-1.79249147960471e+001,-2.55087500915679e-001

4.11245530662425e+004,-1.79249173005403e+001,-2.58648036042951e-001

4.16986304336447e+004,-1.79249198753661e+001,-2.62258259382246e-001

4.22807216224550e+004,-1.79249225224975e+001,-2.65918863918726e-001

4.28709385014515e+004,-1.79249252439623e+001,-2.69630552285189e-001

4.34693945010421e+004,-1.79249280418456e+001,-2.73394036893599e-001

4.40762046350642e+004,-1.79249309182905e+001,-2.77210040072060e-001

4.46914855228886e+004,-1.79249338755000e+001,-2.81079294200884e-001

4.53153554118317e+004,-1.79249369157390e+001,-2.85002541852565e-001

4.59479341998812e+004,-1.79249400413352e+001,-2.88980535934355e-001

4.65893434587380e+004,-1.79249432546821e+001,-2.93014039825580e-001

4.72397064571810e+004,-1.79249465582398e+001,-2.97103827527936e-001

4.78991481847569e+004,-1.79249499545370e+001,-3.01250683810010e-001

4.85677953758016e+004,-1.79249534461731e+001,-3.05455404356891e-001

4.92457765337964e+004,-1.79249570358204e+001,-3.09718795918858e-001

4.99332219560642e+004,-1.79249607262256e+001,-3.14041676467231e-001

5.06302637588109e+004,-1.79249645202124e+001,-3.18424875345208e-001

5.13370359025159e+004,-1.79249684206830e+001,-3.22869233429960e-001

5.20536742176771e+004,-1.79249724306210e+001,-3.27375603285624e-001

5.27803164309155e+004,-1.79249765530932e+001,-3.31944849329475e-001

5.35171021914442e+004,-1.79249807912519e+001,-3.36577847992886e-001

5.42641730979066e+004,-1.79249851483373e+001,-3.41275487888083e-001

5.50216727255895e+004,-1.79249896276800e+001,-3.46038669974754e-001

5.57897466540159e+004,-1.79249942327041e+001,-3.50868307728444e-001

5.65685424949235e+004,-1.79249989669283e+001,-3.55765327318261e-001

5.73582099206328e+004,-1.79250038339702e+001,-3.60730667774408e-001

5.81589006928121e+004,-1.79250088375476e+001,-3.65765281171151e-001

5.89707686916437e+004,-1.79250139814824e+001,-3.70870132801913e-001

5.97939699453972e+004,-1.79250192697029e+001,-3.76046201362526e-001

6.06286626604156e+004,-1.79250247062464e+001,-3.81294479137172e-001

6.14750072515201e+004,-1.79250302952633e+001,-3.86615972179984e-001

6.23331663728396e+004,-1.79250360410191e+001,-3.92011700508520e-001

6.32033049490698e+004,-1.79250419478981e+001,-3.97482698293460e-001

6.40855902071694e+004,-1.79250480204068e+001,-4.03030014051764e-001

6.49801917084985e+004,-1.79250542631769e+001,-4.08654710845403e-001

6.58872813814055e+004,-1.79250606809688e+001,-4.14357866477766e-001

6.68070335542691e+004,-1.79250672786755e+001,-4.20140573697756e-001

6.77396249890018e+004,-1.79250740613259e+001,-4.26003940402018e-001

6.86852349150199e+004,-1.79250810340885e+001,-4.31949089845165e-001

6.96440450636895e+004,-1.79250882022755e+001,-4.37977160844964e-001

7.06162397032520e+004,-1.79250955713465e+001,-4.44089307999487e-001

7.16020056742374e+004,-1.79251031469127e+001,-4.50286701898931e-001

7.26015324253724e+004,-1.79251109347409e+001,-4.56570529345969e-001

7.36150120499896e+004,-1.79251189407580e+001,-4.62941993574939e-001

7.46426393229441e+004,-1.79251271710551e+001,-4.69402314475490e-001

7.56846117380472e+004,-1.79251356318919e+001,-4.75952728822304e-001

7.67411295460207e+004,-1.79251443297020e+001,-4.82594490500189e-001

7.78123957929823e+004,-1.79251532710968e+001,-4.89328870739246e-001

7.88986163594682e+004,-1.79251624628706e+001,-4.96157158351032e-001

7.99999999999995e+004,-1.79251719120061e+001,-5.03080659964215e-001

8.11167583832018e+004,-1.79251816256786e+001,-5.10100700268371e-001

8.22491061324848e+004,-1.79251916112622e+001,-5.17218622257940e-001

8.33972608672892e+004,-1.79252018763343e+001,-5.24435787480884e-001

8.45614432449099e+004,-1.79252124286819e+001,-5.31753576285872e-001

8.57418770029029e+004,-1.79252232763065e+001,-5.39173388082773e-001

8.69387890020841e+004,-1.79252344274307e+001,-5.46696641592775e-001

8.81524092701283e+004,-1.79252458905039e+001,-5.54324775113765e-001

8.93829710457770e+004,-1.79252576742078e+001,-5.62059246782126e-001

9.06307108236633e+004,-1.79252697874636e+001,-5.69901534840122e-001

9.18958683997622e+004,-1.79252822394381e+001,-5.77853137905407e-001

9.31786869174758e+004,-1.79252950395498e+001,-5.85915575246752e-001

9.44794129143618e+004,-1.79253081974765e+001,-5.94090387057537e-001

9.57982963695136e+004,-1.79253217231620e+001,-6.02379134739154e-001

9.71355907516031e+004,-1.79253356268224e+001,-6.10783401185353e-001

9.84915530675926e+004,-1.79253499189549e+001,-6.19304791066274e-001

9.98664439121282e+004,-1.79253646103441e+001,-6.27944931121808e-001

1.01260527517622e+005,-1.79253797120701e+001,-6.36705470455328e-001

1.02674071805032e+005,-1.79253952355163e+001,-6.45588080831598e-001

1.04107348435354e+005,-1.79254111923777e+001,-6.54594456978275e-001

1.05560632861831e+005,-1.79254275946686e+001,-6.63726316891189e-001

1.07034204382888e+005,-1.79254444547320e+001,-6.72985402141825e-001

1.08528346195813e+005,-1.79254617852472e+001,-6.82373478191035e-001

1.10043345451179e+005,-1.79254795992396e+001,-6.91892334705352e-001

1.11579493308032e+005,-1.79254979100892e+001,-7.01543785875316e-001

1.13137084989847e+005,-1.79255167315404e+001,-7.11329670739687e-001

1.14716419841265e+005,-1.79255360777115e+001,-7.21251853512083e-001

1.16317801385624e+005,-1.79255559631039e+001,-7.31312223914529e-001

1.17941537383287e+005,-1.79255764026129e+001,-7.41512697508470e-001

1.19587939890794e+005,-1.79255974115377e+001,-7.51855216035539e-001

1.21257325320831e+005,-1.79256190055919e+001,-7.62341747760470e-001

1.22950014503040e+005,-1.79256412009142e+001,-7.72974287815334e-001

1.24666332745679e+005,-1.79256640140794e+001,-7.83754858552603e-001

1.26406609898139e+005,-1.79256874621100e+001,-7.94685509896888e-001

1.28171180414339e+005,-1.79257115624873e+001,-8.05768319704589e-001

1.29960383416997e+005,-1.79257363331639e+001,-8.17005394123435e-001

1.31774562762811e+005,-1.79257617925747e+001,-8.28398867962189e-001

1.33614067108538e+005,-1.79257879596503e+001,-8.39950905056905e-001

1.35479249978003e+005,-1.79258148538291e+001,-8.51663698646910e-001

1.37370469830040e+005,-1.79258424950705e+001,-8.63539471751878e-001

1.39288090127379e+005,-1.79258709038679e+001,-8.75580477553019e-001

1.41232479406504e+005,-1.79259001012622e+001,-8.87788999780968e-001

1.43204011348474e+005,-1.79259301088560e+001,-9.00167353102757e-001

1.45203064850745e+005,-1.79259609488272e+001,-9.12717883518291e-001

1.47230024099979e+005,-1.79259926439438e+001,-9.25442968756051e-001

1.49285278645888e+005,-1.79260252175781e+001,-9.38345018677500e-001

1.51369223476094e+005,-1.79260586937226e+001,-9.51426475679981e-001

1.53482259092041e+005,-1.79260930970046e+001,-9.64689815108726e-001

1.55624791585964e+005,-1.79261284527022e+001,-9.78137545670152e-001

1.57797232718936e+005,-1.79261647867602e+001,-9.91772209849812e-001

1.59999999999999e+005,-1.79262021258065e+001,-1.00559638433493e+000

1.62233516766403e+005,-1.79262404971688e+001,-1.01961268043913e+000

1.64498212264969e+005,-1.79262799288912e+001,-1.03382374453394e+000

1.66794521734578e+005,-1.79263204497521e+001,-1.04823225848116e+000

1.69122886489819e+005,-1.79263620892813e+001,-1.06284094007264e+000

1.71483754005805e+005,-1.79264048777785e+001,-1.07765254347022e+000

1.73877578004168e+005,-1.79264488463312e+001,-1.09266985965276e+000

1.76304818540256e+005,-1.79264940268334e+001,-1.10789571686588e+000

1.78765942091554e+005,-1.79265404520049e+001,-1.12333298107531e+000

1.81261421647326e+005,-1.79265881554101e+001,-1.13898455642418e+000

1.83791736799524e+005,-1.79266371714783e+001,-1.15485338569443e+000

1.86357373834951e+005,-1.79266875355233e+001,-1.17094245077199e+000

1.88958825828723e+005,-1.79267392837637e+001,-1.18725477311733e+000

1.91596592739027e+005,-1.79267924533437e+001,-1.20379341423489e+000

1.94271181503206e+005,-1.79268470823544e+001,-1.22056147615196e+000

1.96983106135185e+005,-1.79269032098541e+001,-1.23756210189960e+000

1.99732887824256e+005,-1.79269608758912e+001,-1.25479847599365e+000

2.02521055035243e+005,-1.79270201215254e+001,-1.27227382492410e+000

2.05348143610063e+005,-1.79270809888501e+001,-1.28999141764551e+000

2.08214696870707e+005,-1.79271435210152e+001,-1.30795456607156e+000

2.11121265723661e+005,-1.79272077622495e+001,-1.32616662557334e+000

2.14068408765776e+005,-1.79272737578841e+001,-1.34463099548048e+000

2.17056692391625e+005,-1.79273415543762e+001,-1.36335111958561e+000

2.20086690902357e+005,-1.79274111993321e+001,-1.38233048665331e+000

2.23158986616063e+005,-1.79274827415317e+001,-1.40157263093087e+000

2.26274169979693e+005,-1.79275562309522e+001,-1.42108113266359e+000

2.29432839682530e+005,-1.79276317187931e+001,-1.44085961861179e+000

2.32635602771247e+005,-1.79277092575005e+001,-1.46091176257231e+000

2.35883074766574e+005,-1.79277889007919e+001,-1.48124128590300e+000

2.39175879781588e+005,-1.79278707036812e+001,-1.50185195804891e+000

2.42514650641661e+005,-1.79279547225042e+001,-1.52274759707231e+000

2.45900029006080e+005,-1.79280410149436e+001,-1.54393207018628e+000

2.49332665491357e+005,-1.79281296400545e+001,-1.56540929429064e+000

2.52813219796278e+005,-1.79282206582898e+001,-1.58718323650966e+000

2.56342360828676e+005,-1.79283141315263e+001,-1.60925791473351e+000

2.59920766833993e+005,-1.79284101230897e+001,-1.63163739816325e+000

2.63549125525621e+005,-1.79285086977806e+001,-1.65432580785645e+000

2.67228134217075e+005,-1.79286099219001e+001,-1.67732731727673e+000

2.70958499956006e+005,-1.79287138632754e+001,-1.70064615284603e+000

2.74740939660078e+005,-1.79288205912849e+001,-1.72428659449904e+000

2.78576180254757e+005,-1.79289301768842e+001,-1.74825297623930e+000

2.82464958813007e+005,-1.79290426926307e+001,-1.77254968669948e+000

2.86408022696948e+005,-1.79291582127090e+001,-1.79718116970218e+000

2.90406129701488e+005,-1.79292768129552e+001,-1.82215192482555e+000

2.94460048199957e+005,-1.79293985708819e+001,-1.84746650796876e+000

2.98570557291775e+005,-1.79295235657016e+001,-1.87312953192221e+000

3.02738446952187e+005,-1.79296518783508e+001,-1.89914566693761e+000

3.06964518184081e+005,-1.79297835915132e+001,-1.92551964130357e+000

3.11249583171928e+005,-1.79299187896420e+001,-1.95225624192188e+000

3.15594465437872e+005,-1.79300575589826e+001,-1.97936031488564e+000

3.19999999999997e+005,-1.79301999875935e+001,-2.00683676606233e+000

3.24467033532806e+005,-1.79303461653675e+001,-2.03469056167722e+000

3.28996424529938e+005,-1.79304961840514e+001,-2.06292672890153e+000

3.33589043469155e+005,-1.79306501372653e+001,-2.09155035644245e+000

3.38245772979638e+005,-1.79308081205208e+001,-2.12056659513516e+000

3.42967508011610e+005,-1.79309702312382e+001,-2.14998065854148e+000

3.47755156008335e+005,-1.79311365687626e+001,-2.17979782354794e+000

3.52609637080511e+005,-1.79313072343790e+001,-2.21002343096961e+000

3.57531884183106e+005,-1.79314823313259e+001,-2.24066288615793e+000

3.62522843294651e+005,-1.79316619648079e+001,-2.27172165961131e+000

3.67583473599047e+005,-1.79318462420064e+001,-2.30320528759176e+000

3.72714747669902e+005,-1.79320352720892e+001,-2.33511937274361e+000

3.77917651657445e+005,-1.79322291662182e+001,-2.36746958472146e+000

3.83193185478053e+005,-1.79324280375559e+001,-2.40026166081856e+000

3.88542363006410e+005,-1.79326320012690e+001,-2.43350140660573e+000

3.93966212270369e+005,-1.79328411745315e+001,-2.46719469657253e+000

3.99465775648511e+005,-1.79330556765242e+001,-2.50134747477945e+000

4.05042110070485e+005,-1.79332756284337e+001,-2.53596575551372e+000

4.10696287220124e+005,-1.79335011534476e+001,-2.57105562395574e+000

4.16429393741414e+005,-1.79337323767485e+001,-2.60662323685310e+000

4.22242531447321e+005,-1.79339694255050e+001,-2.64267482320441e+000

4.28136817531551e+005,-1.79342124288602e+001,-2.67921668495327e+000

4.34113384783250e+005,-1.79344615179170e+001,-2.71625519769401e+000

4.40173381804713e+005,-1.79347168257220e+001,-2.75379681138722e+000

4.46317973232124e+005,-1.79349784872447e+001,-2.79184805109154e+000

4.52548339959385e+005,-1.79352466393549e+001,-2.83041551770593e+000

4.58865679365059e+005,-1.79355214207966e+001,-2.86950588873006e+000

4.65271205542494e+005,-1.79358029721580e+001,-2.90912591903896e+000

4.71766149533147e+005,-1.79360914358397e+001,-2.94928244167492e+000

4.78351759563174e+005,-1.79363869560174e+001,-2.98998236866095e+000

4.85029301283321e+005,-1.79366896786028e+001,-3.03123269183015e+000

4.91800058012158e+005,-1.79369997512000e+001,-3.07304048368034e+000

4.98665330982714e+005,-1.79373173230577e+001,-3.11541289825028e+000

5.05626439592555e+005,-1.79376425450188e+001,-3.15835717202092e+000

5.12684721657352e+005,-1.79379755694648e+001,-3.20188062484334e+000

5.19841533667984e+005,-1.79383165502576e+001,-3.24599066089463e+000

5.27098251051240e+005,-1.79386656426754e+001,-3.29069476966465e+000

5.34456268434150e+005,-1.79390230033465e+001,-3.33600052697461e+000

5.41916999912011e+005,-1.79393887901773e+001,-3.38191559603004e+000

