Freq.,VOut,OutRef

1.00000000000000e+004,-1.64634163166784e+001,-2.21230258682409e-001

1.01395947979003e+004,-1.64634168202179e+001,-2.24318498296706e-001

1.02811382665607e+004,-1.64634173379119e+001,-2.27449847291886e-001

1.04246576084112e+004,-1.64634178701583e+001,-2.30624907417850e-001

1.05701804056138e+004,-1.64634184173660e+001,-2.33844288821986e-001

1.07177346253629e+004,-1.64634189799555e+001,-2.37108610167798e-001

1.08673486252606e+004,-1.64634195583592e+001,-2.40418498753180e-001

1.10190511587661e+004,-1.64634201530215e+001,-2.43774590630671e-001

1.11728713807222e+004,-1.64634207643993e+001,-2.47177530731274e-001

1.13288388529580e+004,-1.64634213929624e+001,-2.50627972985538e-001

1.14869835499703e+004,-1.64634220391937e+001,-2.54126580452730e-001

1.16473358646846e+004,-1.64634227035900e+001,-2.57674025442591e-001

1.18099266142953e+004,-1.64634233866618e+001,-2.61270989650474e-001

1.19747870461893e+004,-1.64634240889337e+001,-2.64918164285631e-001

1.21419488439505e+004,-1.64634248109453e+001,-2.68616250203369e-001

1.23114441334492e+004,-1.64634255532514e+001,-2.72365958040351e-001

1.24833054890161e+004,-1.64634263164225e+001,-2.76168008350017e-001

1.26575659397028e+004,-1.64634271010448e+001,-2.80023131742409e-001

1.28342589756290e+004,-1.64634279077212e+001,-2.83932069024402e-001

1.30134185544193e+004,-1.64634287370714e+001,-2.87895571340991e-001

1.31950791077289e+004,-1.64634295897325e+001,-2.91914400319583e-001

1.33792755478611e+004,-1.64634304663597e+001,-2.95989328216195e-001

1.35660432744767e+004,-1.64634313676263e+001,-3.00121138064426e-001

1.37554181813974e+004,-1.64634322942249e+001,-3.04310623824815e-001

1.39474366635040e+004,-1.64634332468671e+001,-3.08558590539032e-001

1.41421356237309e+004,-1.64634342262849e+001,-3.12865854480802e-001

1.43395524801583e+004,-1.64634352332305e+001,-3.17233243317436e-001

1.45397251732031e+004,-1.64634362684775e+001,-3.21661596264320e-001

1.47426921729110e+004,-1.64634373328213e+001,-3.26151764247587e-001

1.49484924863494e+004,-1.64634384270790e+001,-3.30704610069620e-001

1.51571656651040e+004,-1.64634395520914e+001,-3.35321008571012e-001

1.53687518128801e+004,-1.64634407087226e+001,-3.40001846799749e-001

1.55832915932100e+004,-1.64634418978610e+001,-3.44748024182666e-001

1.58008262372675e+004,-1.64634431204198e+001,-3.49560452697102e-001

1.60213975517924e+004,-1.64634443773381e+001,-3.54440057045127e-001

1.62450479271247e+004,-1.64634456695812e+001,-3.59387774831803e-001

1.64718203453514e+004,-1.64634469981415e+001,-3.64404556746160e-001

1.67017583885674e+004,-1.64634483640392e+001,-3.69491366741357e-001

1.69349062472505e+004,-1.64634497683234e+001,-3.74649182220849e-001

1.71713087287550e+004,-1.64634512120723e+001,-3.79878994225348e-001

1.74110112659224e+004,-1.64634526963947e+001,-3.85181807624170e-001

1.76540599258131e+004,-1.64634542224304e+001,-3.90558641305776e-001

1.79005014185594e+004,-1.64634557913509e+001,-3.96010528376373e-001

1.81503831063432e+004,-1.64634574043612e+001,-4.01538516353075e-001

1.84037530124975e+004,-1.64634590626995e+001,-4.07143667371804e-001

1.86606598307361e+004,-1.64634607676392e+001,-4.12827058383863e-001

1.89211529345119e+004,-1.64634625204891e+001,-4.18589781367829e-001

1.91852823865052e+004,-1.64634643225950e+001,-4.24432943534641e-001

1.94530989482457e+004,-1.64634661753404e+001,-4.30357667543278e-001

1.97246540898671e+004,-1.64634680801473e+001,-4.36365091715093e-001

1.99999999999999e+004,-1.64634700384781e+001,-4.42456370250146e-001

2.02791895958005e+004,-1.64634720518358e+001,-4.48632673451979e-001

2.05622765331213e+004,-1.64634741217660e+001,-4.54895187947420e-001

2.08493152168224e+004,-1.64634762498572e+001,-4.61245116918333e-001

2.11403608112276e+004,-1.64634784377427e+001,-4.67683680329814e-001

2.14354692507258e+004,-1.64634806871018e+001,-4.74212115163984e-001

2.17346972505211e+004,-1.64634829996604e+001,-4.80831675658712e-001

2.20381023175322e+004,-1.64634853771932e+001,-4.87543633545965e-001

2.23457427614443e+004,-1.64634878215245e+001,-4.94349278296211e-001

2.26576777059159e+004,-1.64634903345301e+001,-5.01249917365136e-001

2.29739670999406e+004,-1.64634929181377e+001,-5.08246876445740e-001

2.32946717293690e+004,-1.64634955743297e+001,-5.15341499719806e-001

2.36198532285905e+004,-1.64634983051438e+001,-5.22535150116519e-001

2.39495740923785e+004,-1.64635011126748e+001,-5.29829209574154e-001

2.42838976879009e+004,-1.64635039990763e+001,-5.37225079303681e-001

2.46228882668982e+004,-1.64635069665624e+001,-5.44724180055961e-001

2.49666109780322e+004,-1.64635100174088e+001,-5.52327952396958e-001

2.53151318794055e+004,-1.64635131539554e+001,-5.60037856981439e-001

2.56685179512580e+004,-1.64635163786077e+001,-5.67855374830576e-001

2.60268371088386e+004,-1.64635196938382e+001,-5.75782007620018e-001

2.63901582154578e+004,-1.64635231021890e+001,-5.83819277963479e-001

2.67585510957221e+004,-1.64635266062733e+001,-5.91968729705818e-001

2.71320865489533e+004,-1.64635302087774e+001,-6.00231928217327e-001

2.75108363627948e+004,-1.64635339124632e+001,-6.08610460692984e-001

2.78948733270080e+004,-1.64635377201695e+001,-6.17105936459062e-001

2.82842712474618e+004,-1.64635416348147e+001,-6.25719987276567e-001

2.86791049603164e+004,-1.64635456593992e+001,-6.34454267654998e-001

2.90794503464061e+004,-1.64635497970072e+001,-6.43310455169925e-001

2.94853843458219e+004,-1.64635540508090e+001,-6.52290250782939e-001

2.98969849726987e+004,-1.64635584240641e+001,-6.61395379164253e-001

3.03143313302078e+004,-1.64635629201226e+001,-6.70627589027172e-001

3.07375036257601e+004,-1.64635675424292e+001,-6.79988653456716e-001

3.11665831864199e+004,-1.64635722945241e+001,-6.89480370252762e-001

3.16016524745350e+004,-1.64635771800471e+001,-6.99104562271217e-001

3.20427951035848e+004,-1.64635822027395e+001,-7.08863077772312e-001

3.24900958542493e+004,-1.64635873664474e+001,-7.18757790774195e-001

3.29436406907028e+004,-1.64635926751245e+001,-7.28790601409118e-001

3.34035167771346e+004,-1.64635981328347e+001,-7.38963436289606e-001

3.38698124945009e+004,-1.64636037437559e+001,-7.49278248870702e-001

3.43426174575100e+004,-1.64636095121825e+001,-7.59737019827775e-001

3.48220225318448e+004,-1.64636154425291e+001,-7.70341757430906e-001

3.53081198516260e+004,-1.64636215393333e+001,-7.81094497930346e-001

3.58010028371187e+004,-1.64636278072599e+001,-7.91997305942429e-001

3.63007662126863e+004,-1.64636342511038e+001,-8.03052274844861e-001

3.68075060249948e+004,-1.64636408757934e+001,-8.14261527175442e-001

3.73213196614721e+004,-1.64636476863954e+001,-8.25627215035295e-001

3.78423058690237e+004,-1.64636546881175e+001,-8.37151520500104e-001

3.83705647730104e+004,-1.64636618863128e+001,-8.48836656035275e-001

3.89061978964912e+004,-1.64636692864838e+001,-8.60684864917189e-001

3.94493081797342e+004,-1.64636768942863e+001,-8.72698421660728e-001

3.99999999999998e+004,-1.64636847155343e+001,-8.84879632449747e-001

4.05583791916010e+004,-1.64636927562034e+001,-8.97230835579582e-001

4.11245530662425e+004,-1.64637010224362e+001,-9.09754401898802e-001

4.16986304336447e+004,-1.64637095205461e+001,-9.22452735261664e-001

4.22807216224550e+004,-1.64637182570227e+001,-9.35328272984082e-001

4.28709385014515e+004,-1.64637272385363e+001,-9.48383486306594e-001

4.34693945010421e+004,-1.64637364719432e+001,-9.61620880865004e-001

4.40762046350642e+004,-1.64637459642901e+001,-9.75042997165801e-001

4.46914855228886e+004,-1.64637557228201e+001,-9.88652411067606e-001

4.53153554118317e+004,-1.64637657549780e+001,-1.00245173427106e+000

4.59479341998812e+004,-1.64637760684155e+001,-1.01644361481376e+000

4.65893434587380e+004,-1.64637866709972e+001,-1.03063073757201e+000

4.72397064571810e+004,-1.64637975708064e+001,-1.04501582477153e+000

4.78991481847569e+004,-1.64638087761509e+001,-1.05960163650190e+000

4.85677953758016e+004,-1.64638202955694e+001,-1.07439097123919e+000

4.92457765337964e+004,-1.64638321378378e+001,-1.08938666637732e+000

4.99332219560642e+004,-1.64638443119759e+001,-1.10459159876331e+000

5.06302637588109e+004,-1.64638568272533e+001,-1.12000868524375e+000

5.13370359025159e+004,-1.64638696931974e+001,-1.13564088321454e+000

5.20536742176771e+004,-1.64638829195994e+001,-1.15149119118136e+000

5.27803164309155e+004,-1.64638965165223e+001,-1.16756264932538e+000

5.35171021914442e+004,-1.64639104943078e+001,-1.18385834007795e+000

5.42641730979066e+004,-1.64639248635843e+001,-1.20038138870238e+000

5.50216727255895e+004,-1.64639396352742e+001,-1.21713496388440e+000

5.57897466540159e+004,-1.64639548206026e+001,-1.23412227832792e+000

5.65685424949235e+004,-1.64639704311051e+001,-1.25134658936301e+000

5.73582099206328e+004,-1.64639864786362e+001,-1.26881119955814e+000

5.81589006928121e+004,-1.64640029753784e+001,-1.28651945734229e+000

5.89707686916437e+004,-1.64640199338503e+001,-1.30447475763661e+000

5.97939699453972e+004,-1.64640373669169e+001,-1.32268054249002e+000

6.06286626604156e+004,-1.64640552877980e+001,-1.34114030172945e+000

6.14750072515201e+004,-1.64640737100779e+001,-1.35985757361447e+000

6.23331663728396e+004,-1.64640926477161e+001,-1.37883594550062e+000

6.32033049490698e+004,-1.64641121150563e+001,-1.39807905451416e+000

6.40855902071694e+004,-1.64641321268376e+001,-1.41759058823327e+000

6.49801917084985e+004,-1.64641526982048e+001,-1.43737428538053e+000

6.58872813814055e+004,-1.64641738447195e+001,-1.45743393652097e+000

6.68070335542691e+004,-1.64641955823710e+001,-1.47777338477325e+000

6.77396249890018e+004,-1.64642179275883e+001,-1.49839652652864e+000

6.86852349150199e+004,-1.64642408972512e+001,-1.51930731217857e+000

6.96440450636895e+004,-1.64642645087033e+001,-1.54050974685228e+000

7.06162397032520e+004,-1.64642887797635e+001,-1.56200789116497e+000

7.16020056742374e+004,-1.64643137287393e+001,-1.58380586197549e+000

7.26015324253724e+004,-1.64643393744395e+001,-1.60590783315242e+000

7.36150120499896e+004,-1.64643657361877e+001,-1.62831803635226e+000

7.46426393229441e+004,-1.64643928338363e+001,-1.65104076180564e+000

7.56846117380472e+004,-1.64644206877799e+001,-1.67408035911665e+000

7.67411295460207e+004,-1.64644493189701e+001,-1.69744123806851e+000

7.78123957929823e+004,-1.64644787489302e+001,-1.72112786944414e+000

7.88986163594682e+004,-1.64645089997705e+001,-1.74514478585305e+000

7.99999999999995e+004,-1.64645400942033e+001,-1.76949658257319e+000

8.11167583832018e+004,-1.64645720555590e+001,-1.79418791839955e+000

8.22491061324848e+004,-1.64646049078027e+001,-1.81922351650600e+000

8.33972608672892e+004,-1.64646386755503e+001,-1.84460816531861e+000

8.45614432449099e+004,-1.64646733840859e+001,-1.87034671939836e+000

8.57418770029029e+004,-1.64647090593793e+001,-1.89644410033642e+000

8.69387890020841e+004,-1.64647457281035e+001,-1.92290529766026e+000

8.81524092701283e+004,-1.64647834176536e+001,-1.94973536975155e+000

8.93829710457770e+004,-1.64648221561650e+001,-1.97693944477620e+000

9.06307108236633e+004,-1.64648619725329e+001,-2.00452272162539e+000

9.18958683997622e+004,-1.64649028964318e+001,-2.03249047086831e+000

9.31786869174758e+004,-1.64649449583359e+001,-2.06084803571811e+000

9.44794129143618e+004,-1.64649881895394e+001,-2.08960083300822e+000

9.57982963695136e+004,-1.64650326221777e+001,-2.11875435418400e+000

9.71355907516031e+004,-1.64650782892488e+001,-2.14831416630289e+000

9.84915530675926e+004,-1.64651252246354e+001,-2.17828591305039e+000

9.98664439121282e+004,-1.64651734631277e+001,-2.20867531576644e+000

1.01260527517622e+005,-1.64652230404459e+001,-2.23948817448619e+000

1.02674071805032e+005,-1.64652739932647e+001,-2.27073036899225e+000

1.04107348435354e+005,-1.64653263592362e+001,-2.30240785988204e+000

1.05560632861831e+005,-1.64653801770156e+001,-2.33452668964613e+000

1.07034204382888e+005,-1.64654354862856e+001,-2.36709298376089e+000

1.08528346195813e+005,-1.64654923277830e+001,-2.40011295179482e+000

1.10043345451179e+005,-1.64655507433240e+001,-2.43359288852835e+000

1.11579493308032e+005,-1.64656107758318e+001,-2.46753917508682e+000

1.13137084989847e+005,-1.64656724693637e+001,-2.50195828008800e+000

1.14716419841265e+005,-1.64657358691394e+001,-2.53685676080330e+000

1.16317801385624e+005,-1.64658010215691e+001,-2.57224126433285e+000

1.17941537383287e+005,-1.64658679742836e+001,-2.60811852879531e+000

1.19587939890794e+005,-1.64659367761628e+001,-2.64449538453306e+000

1.21257325320831e+005,-1.64660074773676e+001,-2.68137875532881e+000

1.22950014503040e+005,-1.64660801293698e+001,-2.71877565964037e+000

1.24666332745679e+005,-1.64661547849843e+001,-2.75669321184894e+000

1.26406609898139e+005,-1.64662314984013e+001,-2.79513862352129e+000

1.28171180414339e+005,-1.64663103252194e+001,-2.83411920468944e+000

1.29960383416997e+005,-1.64663913224786e+001,-2.87364236514342e+000

1.31774562762811e+005,-1.64664745486953e+001,-2.91371561574094e+000

1.33614067108538e+005,-1.64665600638966e+001,-2.95434656973229e+000

1.35479249978003e+005,-1.64666479296559e+001,-2.99554294410042e+000

1.37370469830040e+005,-1.64667382091293e+001,-3.03731256091837e+000

1.39288090127379e+005,-1.64668309670923e+001,-3.07966334872054e+000

1.41232479406504e+005,-1.64669262699775e+001,-3.12260334389379e+000

1.43204011348474e+005,-1.64670241859124e+001,-3.16614069208089e+000

1.45203064850745e+005,-1.64671247847585e+001,-3.21028364960380e+000

1.47230024099979e+005,-1.64672281381508e+001,-3.25504058490235e+000

1.49285278645888e+005,-1.64673343195381e+001,-3.30041997999003e+000

1.51369223476094e+005,-1.64674434042235e+001,-3.34643043192779e+000

1.53482259092041e+005,-1.64675554694065e+001,-3.39308065431377e+000

1.55624791585964e+005,-1.64676705942247e+001,-3.44037947879272e+000

1.57797232718936e+005,-1.64677888597969e+001,-3.48833585658121e+000

1.59999999999999e+005,-1.64679103492670e+001,-3.53695886001224e+000

1.62233516766403e+005,-1.64680351478476e+001,-3.58625768409736e+000

1.64498212264969e+005,-1.64681633428653e+001,-3.63624164810852e+000

1.66794521734578e+005,-1.64682950238065e+001,-3.68692019717689e+000

1.69122886489819e+005,-1.64684302823630e+001,-3.73830290391215e+000

1.71483754005805e+005,-1.64685692124794e+001,-3.79039947004096e+000

1.73877578004168e+005,-1.64687119104007e+001,-3.84321972806381e+000

1.76304818540256e+005,-1.64688584747203e+001,-3.89677364293293e+000

1.78765942091554e+005,-1.64690090064288e+001,-3.95107131375044e+000

1.81261421647326e+005,-1.64691636089637e+001,-4.00612297548564e+000

1.83791736799524e+005,-1.64693223882595e+001,-4.06193900071445e+000

1.86357373834951e+005,-1.64694854527984e+001,-4.11852990137950e+000

1.88958825828723e+005,-1.64696529136618e+001,-4.17590633057088e+000

1.91596592739027e+005,-1.64698248845821e+001,-4.23407908433044e+000

1.94271181503206e+005,-1.64700014819958e+001,-4.29305910347609e+000

1.96983106135185e+005,-1.64701828250961e+001,-4.35285747545124e+000

1.99732887824256e+005,-1.64703690358872e+001,-4.41348543619474e+000

2.02521055035243e+005,-1.64705602392385e+001,-4.47495437203612e+000

2.05348143610063e+005,-1.64707565629399e+001,-4.53727582161392e+000

2.08214696870707e+005,-1.64709581377571e+001,-4.60046147781810e+000

2.11121265723661e+005,-1.64711650974875e+001,-4.66452318975861e+000

2.14068408765776e+005,-1.64713775790179e+001,-4.72947296475795e+000

2.17056692391625e+005,-1.64715957223809e+001,-4.79532297036993e+000

2.20086690902357e+005,-1.64718196708131e+001,-4.86208553642660e+000

2.23158986616063e+005,-1.64720495708137e+001,-4.92977315710884e+000

2.26274169979693e+005,-1.64722855722032e+001,-4.99839849304836e+000

2.29432839682530e+005,-1.64725278281833e+001,-5.06797437345635e+000

2.32635602771247e+005,-1.64727764953969e+001,-5.13851379828026e+000

2.35883074766574e+005,-1.64730317339889e+001,-5.21002994039183e+000

2.39175879781588e+005,-1.64732937076675e+001,-5.28253614780518e+000

2.42514650641661e+005,-1.64735625837660e+001,-5.35604594592574e+000

2.45900029006080e+005,-1.64738385333056e+001,-5.43057303983112e+000

2.49332665491357e+005,-1.64741217310585e+001,-5.50613131658566e+000

2.52813219796278e+005,-1.64744123556118e+001,-5.58273484758672e+000

2.56342360828676e+005,-1.64747105894315e+001,-5.66039789094863e+000

2.59920766833993e+005,-1.64750166189288e+001,-5.73913489391813e+000

2.63549125525621e+005,-1.64753306345250e+001,-5.81896049532994e+000

2.67228134217075e+005,-1.64756528307188e+001,-5.89988952809668e+000

2.70958499956006e+005,-1.64759834061541e+001,-5.98193702173919e+000

2.74740939660078e+005,-1.64763225636880e+001,-6.06511820495479e+000

2.78576180254757e+005,-1.64766705104608e+001,-6.14944850822712e+000

2.82464958813007e+005,-1.64770274579661e+001,-6.23494356647636e+000

2.86408022696948e+005,-1.64773936221225e+001,-6.32161922175313e+000

2.90406129701488e+005,-1.64777692233465e+001,-6.40949152597486e+000

2.94460048199957e+005,-1.64781544866262e+001,-6.49857674370827e+000

2.98570557291775e+005,-1.64785496415974e+001,-6.58889135499721e+000

3.02738446952187e+005,-1.64789549226196e+001,-6.68045205823789e+000

3.06964518184081e+005,-1.64793705688553e+001,-6.77327577310245e+000

3.11249583171928e+005,-1.64797968243499e+001,-6.86737964351271e+000

3.15594465437872e+005,-1.64802339381139e+001,-6.96278104066460e+000

3.19999999999997e+005,-1.64806821642073e+001,-7.05949756610354e+000

3.24467033532806e+005,-1.64811417618257e+001,-7.15754705485581e+000

3.28996424529938e+005,-1.64816129953896e+001,-7.25694757861202e+000

3.33589043469155e+005,-1.64820961346355e+001,-7.35771744896815e+000

3.38245772979638e+005,-1.64825914547102e+001,-7.45987522072233e+000

3.42967508011610e+005,-1.64830992362684e+001,-7.56343969523118e+000

3.47755156008335e+005,-1.64836197655730e+001,-7.66842992382474e+000

3.52609637080511e+005,-1.64841533345993e+001,-7.77486521128227e+000

3.57531884183106e+005,-1.64847002411433e+001,-7.88276511937000e+000

3.62522843294651e+005,-1.64852607889330e+001,-7.99214947044120e+000

3.67583473599047e+005,-1.64858352877457e+001,-8.10303835110059e+000

3.72714747669902e+005,-1.64864240535285e+001,-8.21545211593275e+000

3.77917651657445e+005,-1.64870274085252e+001,-8.32941139129714e+000

3.83193185478053e+005,-1.64876456814072e+001,-8.44493707918862e+000

3.88542363006410e+005,-1.64882792074116e+001,-8.56205036116594e+000

3.93966212270369e+005,-1.64889283284844e+001,-8.68077270234752e+000

3.99465775648511e+005,-1.64895933934308e+001,-8.80112585547560e+000

4.05042110070485e+005,-1.64902747580726e+001,-8.92313186504949e+000

4.10696287220124e+005,-1.64909727854122e+001,-9.04681307152744e+000

4.16429393741414e+005,-1.64916878458053e+001,-9.17219211559852e+000

4.22242531447321e+005,-1.64924203171419e+001,-9.29929194252232e+000

4.28136817531551e+005,-1.64931705850350e+001,-9.42813580653965e+000

4.34113384783250e+005,-1.64939390430203e+001,-9.55874727535041e+000

4.40173381804713e+005,-1.64947260927639e+001,-9.69115023466104e+000

4.46317973232124e+005,-1.64955321442813e+001,-9.82536889279925e+000

4.52548339959385e+005,-1.64963576161669e+001,-9.96142778539581e+000

4.58865679365059e+005,-1.64972029358347e+001,-1.00993517801324e+001

4.65271205542494e+005,-1.64980685397705e+001,-1.02391660815545e+001

4.71766149533147e+005,-1.64989548737971e+001,-1.03808962359476e+001

4.78351759563174e+005,-1.64998623933516e+001,-1.05245681362745e+001

4.85029301283321e+005,-1.65007915637763e+001,-1.06702080271743e+001

4.91800058012158e+005,-1.65017428606234e+001,-1.08178425100177e+001

4.98665330982714e+005,-1.65027167699743e+001,-1.09674985480188e+001

5.05626439592555e+005,-1.65037137887733e+001,-1.11192034714003e+001

5.12684721657352e+005,-1.65047344251769e+001,-1.12729849826084e+001

5.19841533667984e+005,-1.65057791989192e+001,-1.14288711615764e+001

5.27098251051240e+005,-1.65068486416926e+001,-1.15868904710319e+001

5.34456268434150e+005,-1.65079432975465e+001,-1.17470717618453e+001

5.41916999912011e+005,-1.65090637233024e+001,-1.19094442784152e+001

