Freq.,VOut,OutRef

1.00000000000000e+004,-1.46751210775847e+001,-1.99370408611616e-001

1.01395947979003e+004,-1.46751214145386e+001,-2.02153497463017e-001

1.02811382665607e+004,-1.46751217609635e+001,-2.04975436009467e-001

1.04246576084112e+004,-1.46751221171256e+001,-2.07836766538529e-001

1.05701804056138e+004,-1.46751224832989e+001,-2.10738038905913e-001

1.07177346253629e+004,-1.46751228597641e+001,-2.13679810646112e-001

1.08673486252606e+004,-1.46751232468109e+001,-2.16662647069155e-001

1.10190511587661e+004,-1.46751236447365e+001,-2.19687121378246e-001

1.11728713807222e+004,-1.46751240538466e+001,-2.22753814776263e-001

1.13288388529580e+004,-1.46751244744554e+001,-2.25863316577743e-001

1.14869835499703e+004,-1.46751249068862e+001,-2.29016224320572e-001

1.16473358646846e+004,-1.46751253514710e+001,-2.32213143883926e-001

1.18099266142953e+004,-1.46751258085514e+001,-2.35454689601316e-001

1.19747870461893e+004,-1.46751262784786e+001,-2.38741484379956e-001

1.21419488439505e+004,-1.46751267616133e+001,-2.42074159822394e-001

1.23114441334492e+004,-1.46751272583268e+001,-2.45453356344127e-001

1.24833054890161e+004,-1.46751277690007e+001,-2.48879723297392e-001

1.26575659397028e+004,-1.46751282940269e+001,-2.52353919099241e-001

1.28342589756290e+004,-1.46751288338091e+001,-2.55876611352107e-001

1.30134185544193e+004,-1.46751293887616e+001,-2.59448476978161e-001

1.31950791077289e+004,-1.46751299593106e+001,-2.63070202345284e-001

1.33792755478611e+004,-1.46751305458943e+001,-2.66742483399352e-001

1.35660432744767e+004,-1.46751311489632e+001,-2.70466025798461e-001

1.37554181813974e+004,-1.46751317689805e+001,-2.74241545048370e-001

1.39474366635040e+004,-1.46751324064223e+001,-2.78069766640033e-001

1.41421356237309e+004,-1.46751330617780e+001,-2.81951426188340e-001

1.43395524801583e+004,-1.46751337355509e+001,-2.85887269573381e-001

1.45397251732031e+004,-1.46751344282584e+001,-2.89878053083536e-001

1.47426921729110e+004,-1.46751351404322e+001,-2.93924543561366e-001

1.49484924863494e+004,-1.46751358726193e+001,-2.98027518549864e-001

1.51571656651040e+004,-1.46751366253817e+001,-3.02187766441217e-001

1.53687518128801e+004,-1.46751373992976e+001,-3.06406086629844e-001

1.55832915932100e+004,-1.46751381949608e+001,-3.10683289664731e-001

1.58008262372675e+004,-1.46751390129824e+001,-3.15020197404427e-001

1.60213975517924e+004,-1.46751398539901e+001,-3.19417643176595e-001

1.62450479271247e+004,-1.46751407186297e+001,-3.23876471935098e-001

1.64718203453514e+004,-1.46751416075648e+001,-3.28397540423947e-001

1.67017583885674e+004,-1.46751425214777e+001,-3.32981717342342e-001

1.69349062472505e+004,-1.46751434610698e+001,-3.37629883509756e-001

1.71713087287550e+004,-1.46751444270625e+001,-3.42342932034326e-001

1.74110112659224e+004,-1.46751454201968e+001,-3.47121768487255e-001

1.76540599258131e+004,-1.46751464412349e+001,-3.51967311073626e-001

1.79005014185594e+004,-1.46751474909604e+001,-3.56880490808706e-001

1.81503831063432e+004,-1.46751485701790e+001,-3.61862251697518e-001

1.84037530124975e+004,-1.46751496797185e+001,-3.66913550916427e-001

1.86606598307361e+004,-1.46751508204302e+001,-3.72035358995645e-001

1.89211529345119e+004,-1.46751519931894e+001,-3.77228660003451e-001

1.91852823865052e+004,-1.46751531988958e+001,-3.82494451739610e-001

1.94530989482457e+004,-1.46751544384743e+001,-3.87833745921875e-001

1.97246540898671e+004,-1.46751557128757e+001,-3.93247568383679e-001

1.99999999999999e+004,-1.46751570230774e+001,-3.98736959268077e-001

2.02791895958005e+004,-1.46751583700847e+001,-4.04302973227177e-001

2.05622765331213e+004,-1.46751597549303e+001,-4.09946679626877e-001

2.08493152168224e+004,-1.46751611786763e+001,-4.15669162749658e-001

2.11403608112276e+004,-1.46751626424145e+001,-4.21471522002879e-001

2.14354692507258e+004,-1.46751641472672e+001,-4.27354872129102e-001

2.17346972505211e+004,-1.46751656943883e+001,-4.33320343419936e-001

2.20381023175322e+004,-1.46751672849638e+001,-4.39369081932713e-001

2.23457427614443e+004,-1.46751689202130e+001,-4.45502249710963e-001

2.26576777059159e+004,-1.46751706013896e+001,-4.51721025003797e-001

2.29739670999406e+004,-1.46751723297819e+001,-4.58026602495815e-001

2.32946717293690e+004,-1.46751741067148e+001,-4.64420193532835e-001

2.36198532285905e+004,-1.46751759335499e+001,-4.70903026355215e-001

2.39495740923785e+004,-1.46751778116871e+001,-4.77476346332804e-001

2.42838976879009e+004,-1.46751797425653e+001,-4.84141416203008e-001

2.46228882668982e+004,-1.46751817276641e+001,-4.90899516312162e-001

2.49666109780322e+004,-1.46751837685040e+001,-4.97751944862751e-001

2.53151318794055e+004,-1.46751858666484e+001,-5.04700018159092e-001

2.56685179512580e+004,-1.46751880237040e+001,-5.11745070861026e-001

2.60268371088386e+004,-1.46751902413230e+001,-5.18888456238630e-001

2.63901582154578e+004,-1.46751925212034e+001,-5.26131546430843e-001

2.67585510957221e+004,-1.46751948650908e+001,-5.33475732709495e-001

2.71320865489533e+004,-1.46751972747797e+001,-5.40922425743102e-001

2.75108363627948e+004,-1.46751997521146e+001,-5.48473055868711e-001

2.78948733270080e+004,-1.46752022989916e+001,-5.56129073364316e-001

2.82842712474618e+004,-1.46752049173599e+001,-5.63891948726263e-001

2.86791049603164e+004,-1.46752076092230e+001,-5.71763172950188e-001

2.90794503464061e+004,-1.46752103766404e+001,-5.79744257817103e-001

2.94853843458219e+004,-1.46752132217292e+001,-5.87836736181194e-001

2.98969849726987e+004,-1.46752161466655e+001,-5.96042162263178e-001

3.03143313302078e+004,-1.46752191536863e+001,-6.04362111947217e-001

3.07375036257601e+004,-1.46752222450910e+001,-6.12798183081169e-001

3.11665831864199e+004,-1.46752254232430e+001,-6.21351995783123e-001

3.16016524745350e+004,-1.46752286905719e+001,-6.30025192750714e-001

3.20427951035848e+004,-1.46752320495749e+001,-6.38819439572510e-001

3.24900958542493e+004,-1.46752355028190e+001,-6.47736425049439e-001

3.29436406907028e+004,-1.46752390529425e+001,-6.56777861513876e-001

3.34035167771346e+004,-1.46752427026575e+001,-6.65945485158977e-001

3.38698124945009e+004,-1.46752464547517e+001,-6.75241056367519e-001

3.43426174575100e+004,-1.46752503120903e+001,-6.84666360050282e-001

3.48220225318448e+004,-1.46752542776183e+001,-6.94223205983868e-001

3.53081198516260e+004,-1.46752583543631e+001,-7.03913429156621e-001

3.58010028371187e+004,-1.46752625454359e+001,-7.13738890120851e-001

3.63007662126863e+004,-1.46752668540347e+001,-7.23701475342628e-001

3.68075060249948e+004,-1.46752712834466e+001,-7.33803097565424e-001

3.73213196614721e+004,-1.46752758370500e+001,-7.44045696172844e-001

3.78423058690237e+004,-1.46752805183172e+001,-7.54431237558122e-001

3.83705647730104e+004,-1.46752853308173e+001,-7.64961715497193e-001

3.89061978964912e+004,-1.46752902782182e+001,-7.75639151530947e-001

3.94493081797342e+004,-1.46752953642901e+001,-7.86465595348139e-001

3.99999999999998e+004,-1.46753005929078e+001,-7.97443125174244e-001

4.05583791916010e+004,-1.46753059680534e+001,-8.08573848169940e-001

4.11245530662425e+004,-1.46753114938200e+001,-8.19859900828400e-001

4.16986304336447e+004,-1.46753171744139e+001,-8.31303449383850e-001

4.22807216224550e+004,-1.46753230141581e+001,-8.42906690222036e-001

4.28709385014515e+004,-1.46753290174957e+001,-8.54671850297212e-001

4.34693945010421e+004,-1.46753351889927e+001,-8.66601187555604e-001

4.40762046350642e+004,-1.46753415333417e+001,-8.78696991364480e-001

4.46914855228886e+004,-1.46753480553651e+001,-8.90961582945471e-001

4.53153554118317e+004,-1.46753547600190e+001,-9.03397315816083e-001

4.59479341998812e+004,-1.46753616523965e+001,-9.16006576234813e-001

4.65893434587380e+004,-1.46753687377315e+001,-9.28791783655011e-001

4.72397064571810e+004,-1.46753760214026e+001,-9.41755391182526e-001

4.78991481847569e+004,-1.46753835089371e+001,-9.54899886039806e-001

4.85677953758016e+004,-1.46753912060148e+001,-9.68227790038823e-001

4.92457765337964e+004,-1.46753991184724e+001,-9.81741660055449e-001

4.99332219560642e+004,-1.46754072523075e+001,-9.95444088516950e-001

5.06302637588109e+004,-1.46754156136832e+001,-1.00933770388869e+000

5.13370359025159e+004,-1.46754242089321e+001,-1.02342517117390e+000

5.20536742176771e+004,-1.46754330445617e+001,-1.03770919241533e+000

5.27803164309155e+004,-1.46754421272583e+001,-1.05219250720658e+000

5.35171021914442e+004,-1.46754514638923e+001,-1.06687789320887e+000

5.42641730979066e+004,-1.46754610615227e+001,-1.08176816667587e+000

5.50216727255895e+004,-1.46754709274028e+001,-1.09686618298398e+000

5.57897466540159e+004,-1.46754810689848e+001,-1.11217483717124e+000

5.65685424949235e+004,-1.46754914939255e+001,-1.12769706448265e+000

5.73582099206328e+004,-1.46755022100916e+001,-1.14343584092243e+000

5.81589006928121e+004,-1.46755132255655e+001,-1.15939418381523e+000

5.89707686916437e+004,-1.46755245486504e+001,-1.17557515237349e+000

5.97939699453972e+004,-1.46755361878775e+001,-1.19198184827049e+000

6.06286626604156e+004,-1.46755481520105e+001,-1.20861741622686e+000

6.14750072515201e+004,-1.46755604500528e+001,-1.22548504459831e+000

6.23331663728396e+004,-1.46755730912536e+001,-1.24258796597465e+000

6.32033049490698e+004,-1.46755860851144e+001,-1.25992945778644e+000

6.40855902071694e+004,-1.46755994413952e+001,-1.27751284291947e+000

6.49801917084985e+004,-1.46756131701223e+001,-1.29534149033645e+000

6.58872813814055e+004,-1.46756272815943e+001,-1.31341881570767e+000

6.68070335542691e+004,-1.46756417863898e+001,-1.33174828205144e+000

6.77396249890018e+004,-1.46756566953747e+001,-1.35033340037957e+000

6.86852349150199e+004,-1.46756720197094e+001,-1.36917773035325e+000

6.96440450636895e+004,-1.46756877708569e+001,-1.38828488094977e+000

7.06162397032520e+004,-1.46757039605904e+001,-1.40765851113193e+000

7.16020056742374e+004,-1.46757206010013e+001,-1.42730233053380e+000

7.26015324253724e+004,-1.46757377045077e+001,-1.44722010014971e+000

7.36150120499896e+004,-1.46757552838627e+001,-1.46741563303268e+000

7.46426393229441e+004,-1.46757733521630e+001,-1.48789279500640e+000

7.56846117380472e+004,-1.46757919228579e+001,-1.50865550538099e+000

7.67411295460207e+004,-1.46758110097579e+001,-1.52970773768175e+000

7.78123957929823e+004,-1.46758306270446e+001,-1.55105352038541e+000

7.88986163594682e+004,-1.46758507892798e+001,-1.57269693766605e+000

7.99999999999995e+004,-1.46758715114149e+001,-1.59464213015268e+000

8.11167583832018e+004,-1.46758928088014e+001,-1.61689329569302e+000

8.22491061324848e+004,-1.46759146972006e+001,-1.63945469013115e+000

8.33972608672892e+004,-1.46759371927940e+001,-1.66233062809030e+000

8.45614432449099e+004,-1.46759603121938e+001,-1.68552548377204e+000

8.57418770029029e+004,-1.46759840724539e+001,-1.70904369175859e+000

8.69387890020841e+004,-1.46760084910806e+001,-1.73288974783061e+000

8.81524092701283e+004,-1.46760335860443e+001,-1.75706820979328e+000

8.93829710457770e+004,-1.46760593757905e+001,-1.78158369831353e+000

9.06307108236633e+004,-1.46760858792518e+001,-1.80644089776674e+000

9.18958683997622e+004,-1.46761131158599e+001,-1.83164455709546e+000

9.31786869174758e+004,-1.46761411055576e+001,-1.85719949067852e+000

9.44794129143618e+004,-1.46761698688115e+001,-1.88311057921141e+000

9.57982963695136e+004,-1.46761994266248e+001,-1.90938277059579e+000

9.71355907516031e+004,-1.46762298005496e+001,-1.93602108084378e+000

9.84915530675926e+004,-1.46762610127011e+001,-1.96303059499031e+000

9.98664439121282e+004,-1.46762930857704e+001,-1.99041646801801e+000

1.01260527517622e+005,-1.46763260430383e+001,-2.01818392579485e+000

1.02674071805032e+005,-1.46763599083895e+001,-2.04633826602074e+000

1.04107348435354e+005,-1.46763947063267e+001,-2.07488485918839e+000

1.05560632861831e+005,-1.46764304619851e+001,-2.10382914955557e+000

1.07034204382888e+005,-1.46764672011474e+001,-2.13317665612745e+000

1.08528346195813e+005,-1.46765049502583e+001,-2.16293297365406e+000

1.10043345451179e+005,-1.46765437364402e+001,-2.19310377363831e+000

1.11579493308032e+005,-1.46765835875087e+001,-2.22369480535562e+000

1.13137084989847e+005,-1.46766245319881e+001,-2.25471189688873e+000

1.14716419841265e+005,-1.46766665991278e+001,-2.28616095617176e+000

1.16317801385624e+005,-1.46767098189184e+001,-2.31804797205078e+000

1.17941537383287e+005,-1.46767542221082e+001,-2.35037901535380e+000

1.19587939890794e+005,-1.46767998402201e+001,-2.38316023997546e+000

1.21257325320831e+005,-1.46768467055685e+001,-2.41639788397649e+000

1.22950014503040e+005,-1.46768948512769e+001,-2.45009827069264e+000

1.24666332745679e+005,-1.46769443112947e+001,-2.48426780986115e+000

1.26406609898139e+005,-1.46769951204160e+001,-2.51891299875748e+000

1.28171180414339e+005,-1.46770473142964e+001,-2.55404042334865e+000

1.29960383416997e+005,-1.46771009294721e+001,-2.58965675945829e+000

1.31774562762811e+005,-1.46771560033779e+001,-2.62576877394680e+000

1.33614067108538e+005,-1.46772125743657e+001,-2.66238332590548e+000

1.35479249978003e+005,-1.46772706817234e+001,-2.69950736786622e+000

1.37370469830040e+005,-1.46773303656941e+001,-2.73714794702264e+000

1.39288090127379e+005,-1.46773916674949e+001,-2.77531220647003e+000

1.41232479406504e+005,-1.46774546293365e+001,-2.81400738645680e+000

1.43204011348474e+005,-1.46775192944425e+001,-2.85324082565285e+000

1.45203064850745e+005,-1.46775857070690e+001,-2.89301996243258e+000

1.47230024099979e+005,-1.46776539125248e+001,-2.93335233617354e+000

1.49285278645888e+005,-1.46777239571906e+001,-2.97424558857059e+000

1.51369223476094e+005,-1.46777958885394e+001,-3.01570746496611e+000

1.53482259092041e+005,-1.46778697551567e+001,-3.05774581569571e+000

1.55624791585964e+005,-1.46779456067600e+001,-3.10036859745101e+000

1.57797232718936e+005,-1.46780234942199e+001,-3.14358387465806e+000

1.59999999999999e+005,-1.46781034695794e+001,-3.18739982087388e+000

1.62233516766403e+005,-1.46781855860749e+001,-3.23182472019745e+000

1.64498212264969e+005,-1.46782698981561e+001,-3.27686696870099e+000

1.66794521734578e+005,-1.46783564615062e+001,-3.32253507587630e+000

1.69122886489819e+005,-1.46784453330620e+001,-3.36883766610027e+000

1.71483754005805e+005,-1.46785365710343e+001,-3.41578348011749e+000

1.73877578004168e+005,-1.46786302349276e+001,-3.46338137654206e+000

1.76304818540256e+005,-1.46787263855602e+001,-3.51164033337706e+000

1.78765942091554e+005,-1.46788250850838e+001,-3.56056944955426e+000

1.81261421647326e+005,-1.46789263970029e+001,-3.61017794649202e+000

1.83791736799524e+005,-1.46790303861948e+001,-3.66047516967241e+000

1.86357373834951e+005,-1.46791371189280e+001,-3.71147059024095e+000

1.88958825828723e+005,-1.46792466628814e+001,-3.76317380662336e+000

1.91596592739027e+005,-1.46793590871629e+001,-3.81559454616560e+000

1.94271181503206e+005,-1.46794744623276e+001,-3.86874266679416e+000

1.96983106135185e+005,-1.46795928603957e+001,-3.92262815869794e+000

1.99732887824256e+005,-1.46797143548702e+001,-3.97726114603318e+000

2.02521055035243e+005,-1.46798390207536e+001,-4.03265188864920e+000

2.05348143610063e+005,-1.46799669345651e+001,-4.08881078383986e+000

2.08214696870707e+005,-1.46800981743562e+001,-4.14574836811675e+000

2.11121265723661e+005,-1.46802328197269e+001,-4.20347531900650e+000

2.14068408765776e+005,-1.46803709518404e+001,-4.26200245687517e+000

2.17056692391625e+005,-1.46805126534379e+001,-4.32134074677507e+000

2.20086690902357e+005,-1.46806580088521e+001,-4.38150130032059e+000

2.23158986616063e+005,-1.46808071040210e+001,-4.44249537758810e+000

2.26274169979693e+005,-1.46809600265001e+001,-4.50433438904571e+000

2.29432839682530e+005,-1.46811168654745e+001,-4.56702989750941e+000

2.32635602771247e+005,-1.46812777117696e+001,-4.63059362012934e+000

2.35883074766574e+005,-1.46814426578619e+001,-4.69503743040576e+000

2.39175879781588e+005,-1.46816117978887e+001,-4.76037336023423e+000

2.42514650641661e+005,-1.46817852276560e+001,-4.82661360198530e+000

2.45900029006080e+005,-1.46819630446476e+001,-4.89377051061234e+000

2.49332665491357e+005,-1.46821453480311e+001,-4.96185660579735e+000

2.52813219796278e+005,-1.46823322386645e+001,-5.03088457412721e+000

2.56342360828676e+005,-1.46825238191018e+001,-5.10086727130793e+000

2.59920766833993e+005,-1.46827201935970e+001,-5.17181772441355e+000

2.63549125525621e+005,-1.46829214681074e+001,-5.24374913417377e+000

2.67228134217075e+005,-1.46831277502969e+001,-5.31667487729953e+000

2.70958499956006e+005,-1.46833391495371e+001,-5.39060850884855e+000

2.74740939660078e+005,-1.46835557769086e+001,-5.46556376463197e+000

2.78576180254757e+005,-1.46837777452003e+001,-5.54155456366321e+000

2.82464958813007e+005,-1.46840051689094e+001,-5.61859501065060e+000

2.86408022696948e+005,-1.46842381642388e+001,-5.69669939853439e+000

2.90406129701488e+005,-1.46844768490956e+001,-5.77588221107014e+000

2.94460048199957e+005,-1.46847213430870e+001,-5.85615812546042e+000

2.98570557291775e+005,-1.46849717675172e+001,-5.93754201503423e+000

3.02738446952187e+005,-1.46852282453825e+001,-6.02004895197851e+000

3.06964518184081e+005,-1.46854909013664e+001,-6.10369421012011e+000

3.11249583171928e+005,-1.46857598618344e+001,-6.18849326776205e+000

3.15594465437872e+005,-1.46860352548279e+001,-6.27446181057477e+000

3.19999999999997e+005,-1.46863172100585e+001,-6.36161573454368e+000

3.24467033532806e+005,-1.46866058589016e+001,-6.44997114897485e+000

3.28996424529938e+005,-1.46869013343905e+001,-6.53954437956026e+000

3.33589043469155e+005,-1.46872037712102e+001,-6.63035197150511e+000

3.38245772979638e+005,-1.46875133056918e+001,-6.72241069271612e+000

3.42967508011610e+005,-1.46878300758076e+001,-6.81573753705678e+000

3.47755156008335e+005,-1.46881542211662e+001,-6.91034972766572e+000

3.52609637080511e+005,-1.46884858830089e+001,-7.00626472034537e+000

3.57531884183106e+005,-1.46888252042075e+001,-7.10350020701768e+000

3.62522843294651e+005,-1.46891723292626e+001,-7.20207411925126e+000

3.67583473599047e+005,-1.46895274043042e+001,-7.30200463186031e+000

3.72714747669902e+005,-1.46898905770940e+001,-7.40331016657716e+000

3.77917651657445e+005,-1.46902619970293e+001,-7.50600939579967e+000

3.83193185478053e+005,-1.46906418151496e+001,-7.61012124641480e+000

3.88542363006410e+005,-1.46910301841464e+001,-7.71566490369929e+000

3.93966212270369e+005,-1.46914272583753e+001,-7.82265981529950e+000

3.99465775648511e+005,-1.46918331938718e+001,-7.93112569529059e+000

4.05042110070485e+005,-1.46922481483706e+001,-8.04108252831704e+000

4.10696287220124e+005,-1.46926722813297e+001,-8.15255057381367e+000

4.16429393741414e+005,-1.46931057539576e+001,-8.26555037031078e+000

4.22242531447321e+005,-1.46935487292471e+001,-8.38010273982100e+000

4.28136817531551e+005,-1.46940013720127e+001,-8.49622879231085e+000

4.34113384783250e+005,-1.46944638489351e+001,-8.61394993025662e+000

4.40173381804713e+005,-1.46949363286106e+001,-8.73328785328359e+000

4.46317973232124e+005,-1.46954189816081e+001,-8.85426456289154e+000

4.52548339959385e+005,-1.46959119805324e+001,-8.97690236726397e+000

4.58865679365059e+005,-1.46964155000952e+001,-9.10122388616200e+000

4.65271205542494e+005,-1.46969297171940e+001,-9.22725205590300e+000

4.71766149533147e+005,-1.46974548109994e+001,-9.35501013442185e+000

4.78351759563174e+005,-1.46979909630507e+001,-9.48452170641712e+000

4.85029301283321e+005,-1.46985383573620e+001,-9.61581068857719e+000

4.91800058012158e+005,-1.46990971805365e+001,-9.74890133488944e+000

4.98665330982714e+005,-1.46996676218920e+001,-9.88381824202828e+000

5.05626439592555e+005,-1.47002498735968e+001,-1.00205863548223e+001

5.12684721657352e+005,-1.47008441308167e+001,-1.01592309717980e+001

5.19841533667984e+005,-1.47014505918726e+001,-1.02997777507989e+001

5.27098251051240e+005,-1.47020694584118e+001,-1.04422527146776e+001

5.34456268434150e+005,-1.47027009355897e+001,-1.05866822570592e+001

5.41916999912011e+005,-1.47033452322653e+001,-1.07330931481732e+001

