Freq.,VOut,OutRef

1.00000000000000e+004,-8.44188804223682e+000,-1.67752720851075e-001

1.01395947979003e+004,-8.44188789332564e+000,-1.70094456783733e-001

1.02811382665607e+004,-8.44188774022750e+000,-1.72468881927215e-001

1.04246576084112e+004,-8.44188758282422e+000,-1.74876452599850e-001

1.05701804056138e+004,-8.44188742099477e+000,-1.77317631486689e-001

1.07177346253629e+004,-8.44188725461514e+000,-1.79792887728723e-001

1.08673486252606e+004,-8.44188708355674e+000,-1.82302697021894e-001

1.10190511587661e+004,-8.44188690768836e+000,-1.84847541696719e-001

1.11728713807222e+004,-8.44188672687470e+000,-1.87427910818011e-001

1.13288388529580e+004,-8.44188654097643e+000,-1.90044300279003e-001

1.14869835499703e+004,-8.44188634985061e+000,-1.92697212893077e-001

1.16473358646846e+004,-8.44188615335043e+000,-1.95387158491164e-001

1.18099266142953e+004,-8.44188595132460e+000,-1.98114654022451e-001

1.19747870461893e+004,-8.44188574361754e+000,-2.00880223652367e-001

1.21419488439505e+004,-8.44188553006968e+000,-2.03684398860738e-001

1.23114441334492e+004,-8.44188531051660e+000,-2.06527718547802e-001

1.24833054890161e+004,-8.44188508478948e+000,-2.09410729134848e-001

1.26575659397028e+004,-8.44188485271466e+000,-2.12333984670528e-001

1.28342589756290e+004,-8.44188461411338e+000,-2.15298046938786e-001

1.30134185544193e+004,-8.44188436880217e+000,-2.18303485562776e-001

1.31950791077289e+004,-8.44188411659249e+000,-2.21350878116137e-001

1.33792755478611e+004,-8.44188385728983e+000,-2.24440810238403e-001

1.35660432744767e+004,-8.44188359069508e+000,-2.27573875738398e-001

1.37554181813974e+004,-8.44188331660284e+000,-2.30750676717442e-001

1.39474366635040e+004,-8.44188303480241e+000,-2.33971823678045e-001

1.41421356237309e+004,-8.44188274507680e+000,-2.37237935646380e-001

1.43395524801583e+004,-8.44188244720296e+000,-2.40549640288894e-001

1.45397251732031e+004,-8.44188214095192e+000,-2.43907574030134e-001

1.47426921729110e+004,-8.44188182608777e+000,-2.47312382181857e-001

1.49484924863494e+004,-8.44188150236823e+000,-2.50764719060449e-001

1.51571656651040e+004,-8.44188116954422e+000,-2.54265248115364e-001

1.53687518128801e+004,-8.44188082735935e+000,-2.57814642058359e-001

1.55832915932100e+004,-8.44188047555063e+000,-2.61413582986432e-001

1.58008262372675e+004,-8.44188011384705e+000,-2.65062762520885e-001

1.60213975517924e+004,-8.44187974197007e+000,-2.68762881936684e-001

1.62450479271247e+004,-8.44187935963361e+000,-2.72514652293924e-001

1.64718203453514e+004,-8.44187896654330e+000,-2.76318794579316e-001

1.67017583885674e+004,-8.44187856239654e+000,-2.80176039842618e-001

1.69349062472505e+004,-8.44187814688221e+000,-2.84087129336102e-001

1.71713087287550e+004,-8.44187771968031e+000,-2.88052814659977e-001

1.74110112659224e+004,-8.44187728046204e+000,-2.92073857902808e-001

1.76540599258131e+004,-8.44187682888922e+000,-2.96151031790419e-001

1.79005014185594e+004,-8.44187636461398e+000,-3.00285119834882e-001

1.81503831063432e+004,-8.44187588727907e+000,-3.04476916481636e-001

1.84037530124975e+004,-8.44187539651665e+000,-3.08727227266720e-001

1.86606598307361e+004,-8.44187489194905e+000,-3.13036868966118e-001

1.89211529345119e+004,-8.44187437318758e+000,-3.17406669758287e-001

1.91852823865052e+004,-8.44187383983266e+000,-3.21837469379336e-001

1.94530989482457e+004,-8.44187329147360e+000,-3.26330119284332e-001

1.97246540898671e+004,-8.44187272768789e+000,-3.30885482814318e-001

1.99999999999999e+004,-8.44187214804138e+000,-3.35504435357393e-001

2.02791895958005e+004,-8.44187155208754e+000,-3.40187864519550e-001

2.05622765331213e+004,-8.44187093936719e+000,-3.44936670295711e-001

2.08493152168224e+004,-8.44187030940822e+000,-3.49751765240995e-001

2.11403608112276e+004,-8.44186966172544e+000,-3.54634074645128e-001

2.14354692507258e+004,-8.44186899581979e+000,-3.59584536712395e-001

2.17346972505211e+004,-8.44186831117809e+000,-3.64604102741211e-001

2.20381023175322e+004,-8.44186760727278e+000,-3.69693737305642e-001

2.23457427614443e+004,-8.44186688356130e+000,-3.74854418441910e-001

2.26576777059159e+004,-8.44186613948602e+000,-3.80087137834544e-001

2.29739670999406e+004,-8.44186537447335e+000,-3.85392901008628e-001

2.32946717293690e+004,-8.44186458793365e+000,-3.90772727521461e-001

2.36198532285905e+004,-8.44186377926051e+000,-3.96227651159338e-001

2.39495740923785e+004,-8.44186294783056e+000,-4.01758720134957e-001

2.42838976879009e+004,-8.44186209300282e+000,-4.07366997288958e-001

2.46228882668982e+004,-8.44186121411803e+000,-4.13053560295184e-001

2.49666109780322e+004,-8.44186031049849e+000,-4.18819501865548e-001

2.53151318794055e+004,-8.44185938144739e+000,-4.24665929960497e-001

2.56685179512580e+004,-8.44185842624828e+000,-4.30593968001923e-001

2.60268371088386e+004,-8.44185744416423e+000,-4.36604755089717e-001

2.63901582154578e+004,-8.44185643443771e+000,-4.42699446218441e-001

2.67585510957221e+004,-8.44185539628988e+000,-4.48879212499515e-001

2.71320865489533e+004,-8.44185432891954e+000,-4.55145241388166e-001

2.75108363627948e+004,-8.44185323150327e+000,-4.61498736907249e-001

2.78948733270080e+004,-8.44185210319405e+000,-4.67940919882293e-001

2.82842712474618e+004,-8.44185094312119e+000,-4.74473028172815e-001

2.86791049603164e+004,-8.44184975038917e+000,-4.81096316911947e-001

2.90794503464061e+004,-8.44184852407725e+000,-4.87812058745784e-001

2.94853843458219e+004,-8.44184726323877e+000,-4.94621544077888e-001

2.98969849726987e+004,-8.44184596690007e+000,-5.01526081317846e-001

3.03143313302078e+004,-8.44184463406013e+000,-5.08526997130658e-001

3.07375036257601e+004,-8.44184326368961e+000,-5.15625636691977e-001

3.11665831864199e+004,-8.44184185472994e+000,-5.22823363947160e-001

3.16016524745350e+004,-8.44184040609268e+000,-5.30121561870934e-001

3.20427951035848e+004,-8.44183891665859e+000,-5.37521632733838e-001

3.24900958542493e+004,-8.44183738527666e+000,-5.45024998371953e-001

3.29436406907028e+004,-8.44183581076345e+000,-5.52633100456872e-001

3.34035167771346e+004,-8.44183419190183e+000,-5.60347400775394e-001

3.38698124945009e+004,-8.44183252744048e+000,-5.68169381506836e-001

3.43426174575100e+004,-8.44183081609217e+000,-5.76100545510582e-001

3.48220225318448e+004,-8.44182905653364e+000,-5.84142416610815e-001

3.53081198516260e+004,-8.44182724740389e+000,-5.92296539890820e-001

3.58010028371187e+004,-8.44182538730351e+000,-6.00564481988036e-001

3.63007662126863e+004,-8.44182347479321e+000,-6.08947831396134e-001

3.68075060249948e+004,-8.44182150839305e+000,-6.17448198766673e-001

3.73213196614721e+004,-8.44181948658111e+000,-6.26067217220024e-001

3.78423058690237e+004,-8.44181740779208e+000,-6.34806542658629e-001

3.83705647730104e+004,-8.44181527041651e+000,-6.43667854082057e-001

3.89061978964912e+004,-8.44181307279912e+000,-6.52652853910632e-001

3.94493081797342e+004,-8.44181081323761e+000,-6.61763268311310e-001

3.99999999999998e+004,-8.44180848998131e+000,-6.71000847528599e-001

4.05583791916010e+004,-8.44180610123003e+000,-6.80367366218046e-001

4.11245530662425e+004,-8.44180364513210e+000,-6.89864623789361e-001

4.16986304336447e+004,-8.44180111978341e+000,-6.99494444748399e-001

4.22807216224550e+004,-8.44179852322583e+000,-7.09258679046751e-001

4.28709385014515e+004,-8.44179585344523e+000,-7.19159202438446e-001

4.34693945010421e+004,-8.44179310837031e+000,-7.29197916837231e-001

4.40762046350642e+004,-8.44179028587101e+000,-7.39376750679322e-001

4.46914855228886e+004,-8.44178738375629e+000,-7.49697659296407e-001

4.53153554118317e+004,-8.44178439977289e+000,-7.60162625287038e-001

4.59479341998812e+004,-8.44178133160340e+000,-7.70773658896401e-001

4.65893434587380e+004,-8.44177817686424e+000,-7.81532798402642e-001

4.72397064571810e+004,-8.44177493310396e+000,-7.92442110505250e-001

4.78991481847569e+004,-8.44177159780116e+000,-8.03503690721354e-001

4.85677953758016e+004,-8.44176816836243e+000,-8.14719663786916e-001

4.92457765337964e+004,-8.44176464212049e+000,-8.26092184062041e-001

4.99332219560642e+004,-8.44176101633181e+000,-8.37623435944172e-001

5.06302637588109e+004,-8.44175728817445e+000,-8.49315634285793e-001

5.13370359025159e+004,-8.44175345474577e+000,-8.61171024817944e-001

5.20536742176771e+004,-8.44174951306041e+000,-8.73191884578355e-001

5.27803164309155e+004,-8.44174546004719e+000,-8.85380522349793e-001

5.35171021914442e+004,-8.44174129254744e+000,-8.97739279097344e-001

5.42641730979066e+004,-8.44173700731189e+000,-9.10270528419327e-001

5.50216727255895e+004,-8.44173260099805e+000,-9.22976676999889e-001

5.57897466540159e+004,-8.44172807016788e+000,-9.35860165067733e-001

5.65685424949235e+004,-8.44172341128454e+000,-9.48923466864221e-001

5.73582099206328e+004,-8.44171862071001e+000,-9.62169091113362e-001

5.81589006928121e+004,-8.44171369470151e+000,-9.75599581504895e-001

5.89707686916437e+004,-8.44170862940896e+000,-9.89217517176371e-001

5.97939699453972e+004,-8.44170342087159e+000,-1.00302551320729e+000

6.06286626604156e+004,-8.44169806501488e+000,-1.01702622111791e+000

6.14750072515201e+004,-8.44169255764676e+000,-1.03122232937666e+000

6.23331663728396e+004,-8.44168689445493e+000,-1.04561656391046e+000

6.32033049490698e+004,-8.44168107100241e+000,-1.06021168862850e+000

6.40855902071694e+004,-8.44167508272474e+000,-1.07501050594537e+000

6.49801917084985e+004,-8.44166892492553e+000,-1.09001585731987e+000

6.58872813814055e+004,-8.44166259277302e+000,-1.10523062379338e+000

6.68070335542691e+004,-8.44165608129590e+000,-1.12065772654074e+000

6.77396249890018e+004,-8.44164938537905e+000,-1.13630012742814e+000

6.86852349150199e+004,-8.44164249975963e+000,-1.15216082957525e+000

6.96440450636895e+004,-8.44163541902229e+000,-1.16824287792977e+000

7.06162397032520e+004,-8.44162813759507e+000,-1.18454935984537e+000

7.16020056742374e+004,-8.44162064974418e+000,-1.20108340567287e+000

7.26015324253724e+004,-8.44161294956982e+000,-1.21784818935292e+000

7.36150120499896e+004,-8.44160503100090e+000,-1.23484692902182e+000

7.46426393229441e+004,-8.44159688778965e+000,-1.25208288762618e+000

7.56846117380472e+004,-8.44158851350702e+000,-1.26955937353964e+000

7.67411295460207e+004,-8.44157990153668e+000,-1.28727974119607e+000

7.78123957929823e+004,-8.44157104506955e+000,-1.30524739172631e+000

7.88986163594682e+004,-8.44156193709818e+000,-1.32346577360458e+000

7.99999999999995e+004,-8.44155257041061e+000,-1.34193838330475e+000

8.11167583832018e+004,-8.44154293758414e+000,-1.36066876596580e+000

8.22491061324848e+004,-8.44153303097923e+000,-1.37966051606419e+000

8.33972608672892e+004,-8.44152284273286e+000,-1.39891727809689e+000

8.45614432449099e+004,-8.44151236475151e+000,-1.41844274727509e+000

8.57418770029029e+004,-8.44150158870463e+000,-1.43824067022452e+000

8.69387890020841e+004,-8.44149050601687e+000,-1.45831484569864e+000

8.81524092701283e+004,-8.44147910786133e+000,-1.47866912529647e+000

8.93829710457770e+004,-8.44146738515117e+000,-1.49930741419764e+000

9.06307108236633e+004,-8.44145532853238e+000,-1.52023367189930e+000

9.18958683997622e+004,-8.44144292837489e+000,-1.54145191297064e+000

9.31786869174758e+004,-8.44143017476476e+000,-1.56296620781153e+000

9.44794129143618e+004,-8.44141705749516e+000,-1.58478068342534e+000

9.57982963695136e+004,-8.44140356605731e+000,-1.60689952420090e+000

9.71355907516031e+004,-8.44138968963131e+000,-1.62932697270552e+000

9.84915530675926e+004,-8.44137541707662e+000,-1.65206733048786e+000

9.98664439121282e+004,-8.44136073692199e+000,-1.67512495889322e+000

1.01260527517622e+005,-8.44134563735514e+000,-1.69850427988948e+000

1.02674071805032e+005,-8.44133010621254e+000,-1.72220977690271e+000

1.04107348435354e+005,-8.44131413096812e+000,-1.74624599566707e+000

1.05560632861831e+005,-8.44129769872217e+000,-1.77061754508359e+000

1.07034204382888e+005,-8.44128079618970e+000,-1.79532909809205e+000

1.08528346195813e+005,-8.44126340968828e+000,-1.82038539255459e+000

1.10043345451179e+005,-8.44124552512562e+000,-1.84579123215140e+000

1.11579493308032e+005,-8.44122712798683e+000,-1.87155148728772e+000

1.13137084989847e+005,-8.44120820332088e+000,-1.89767109601508e+000

1.14716419841265e+005,-8.44118873572718e+000,-1.92415506496262e+000

1.16317801385624e+005,-8.44116870934108e+000,-1.95100847028334e+000

1.17941537383287e+005,-8.44114810781947e+000,-1.97823645861163e+000

1.19587939890794e+005,-8.44112691432527e+000,-2.00584424803546e+000

1.21257325320831e+005,-8.44110511151199e+000,-2.03383712908072e+000

1.22950014503040e+005,-8.44108268150753e+000,-2.06222046570824e+000

1.24666332745679e+005,-8.44105960589717e+000,-2.09099969632689e+000

1.26406609898139e+005,-8.44103586570658e+000,-2.12018033481765e+000

1.28171180414339e+005,-8.44101144138348e+000,-2.14976797157459e+000

1.29960383416997e+005,-8.44098631277941e+000,-2.17976827455737e+000

1.31774562762811e+005,-8.44096045913035e+000,-2.21018699036033e+000

1.33614067108538e+005,-8.44093385903716e+000,-2.24102994529413e+000

1.35479249978003e+005,-8.44090649044468e+000,-2.27230304648486e+000

1.37370469830040e+005,-8.44087833062071e+000,-2.30401228298642e+000

1.39288090127379e+005,-8.44084935613420e+000,-2.33616372690719e+000

1.41232479406504e+005,-8.44081954283213e+000,-2.36876353455642e+000

1.43204011348474e+005,-8.44078886581649e+000,-2.40181794760052e+000

1.45203064850745e+005,-8.44075729941957e+000,-2.43533329424116e+000

1.47230024099979e+005,-8.44072481717901e+000,-2.46931599040547e+000

1.49285278645888e+005,-8.44069139181182e+000,-2.50377254095439e+000

1.51369223476094e+005,-8.44065699518721e+000,-2.53870954090857e+000

1.53482259092041e+005,-8.44062159829907e+000,-2.57413367668896e+000

1.55624791585964e+005,-8.44058517123672e+000,-2.61005172737814e+000

1.57797232718936e+005,-8.44054768315551e+000,-2.64647056599529e+000

1.59999999999999e+005,-8.44050910224568e+000,-2.68339716079232e+000

1.62233516766403e+005,-8.44046939570036e+000,-2.72083857656707e+000

1.64498212264969e+005,-8.44042852968284e+000,-2.75880197599381e+000

1.66794521734578e+005,-8.44038646929179e+000,-2.79729462097553e+000

1.69122886489819e+005,-8.44034317852658e+000,-2.83632387401098e+000

1.71483754005805e+005,-8.44029862024996e+000,-2.87589719958620e+000

1.73877578004168e+005,-8.44025275615060e+000,-2.91602216558163e+000

1.76304818540256e+005,-8.44020554670367e+000,-2.95670644470207e+000

1.78765942091554e+005,-8.44015695113015e+000,-2.99795781592630e+000

1.81261421647326e+005,-8.44010692735504e+000,-3.03978416597673e+000

1.83791736799524e+005,-8.44005543196372e+000,-3.08219349081209e+000

1.86357373834951e+005,-8.44000242015695e+000,-3.12519389714132e+000

1.88958825828723e+005,-8.43994784570454e+000,-3.16879360395775e+000

1.91596592739027e+005,-8.43989166089690e+000,-3.21300094409866e+000

1.94271181503206e+005,-8.43983381649542e+000,-3.25782436582648e+000

1.96983106135185e+005,-8.43977426168081e+000,-3.30327243443308e+000

1.99732887824256e+005,-8.43971294399985e+000,-3.34935383386875e+000

2.02521055035243e+005,-8.43964980931033e+000,-3.39607736839460e+000

2.05348143610063e+005,-8.43958480172374e+000,-3.44345196426244e+000

2.08214696870707e+005,-8.43951786354654e+000,-3.49148667141651e+000

2.11121265723661e+005,-8.43944893521910e+000,-3.54019066522319e+000

2.14068408765776e+005,-8.43937795525247e+000,-3.58957324822911e+000

2.17056692391625e+005,-8.43930486016328e+000,-3.63964385194248e+000

2.20086690902357e+005,-8.43922958440647e+000,-3.69041203864438e+000

2.23158986616063e+005,-8.43915206030518e+000,-3.74188750323019e+000

2.26274169979693e+005,-8.43907221797917e+000,-3.79408007507555e+000

2.29432839682530e+005,-8.43898998527025e+000,-3.84699971993659e+000

2.32635602771247e+005,-8.43890528766512e+000,-3.90065654187806e+000

2.35883074766574e+005,-8.43881804821634e+000,-3.95506078523340e+000

2.39175879781588e+005,-8.43872818745998e+000,-4.01022283659580e+000

2.42514650641661e+005,-8.43863562333100e+000,-4.06615322684362e+000

2.45900029006080e+005,-8.43854027107578e+000,-4.12286263319749e+000

2.49332665491357e+005,-8.43844204316158e+000,-4.18036188131347e+000

2.52813219796278e+005,-8.43834084918366e+000,-4.23866194740895e+000

2.56342360828676e+005,-8.43823659576875e+000,-4.29777396042728e+000

2.59920766833993e+005,-8.43812918647602e+000,-4.35770920423644e+000

2.63549125525621e+005,-8.43801852169457e+000,-4.41847911986924e+000

2.67228134217075e+005,-8.43790449853782e+000,-4.48009530779829e+000

2.70958499956006e+005,-8.43778701073489e+000,-4.54256953025347e+000

2.74740939660078e+005,-8.43766594851822e+000,-4.60591371357959e+000

2.78576180254757e+005,-8.43754119850790e+000,-4.67013995063602e+000

2.82464958813007e+005,-8.43741264359279e+000,-4.73526050323887e+000

2.86408022696948e+005,-8.43728016280772e+000,-4.80128780464723e+000

2.90406129701488e+005,-8.43714363120721e+000,-4.86823446209673e+000

2.94460048199957e+005,-8.43700291973556e+000,-4.93611325937602e+000

2.98570557291775e+005,-8.43685789509303e+000,-5.00493715945456e+000

3.02738446952187e+005,-8.43670841959826e+000,-5.07471930715674e+000

3.06964518184081e+005,-8.43655435104677e+000,-5.14547303188818e+000

3.11249583171928e+005,-8.43639554256555e+000,-5.21721185041195e+000

3.15594465437872e+005,-8.43623184246356e+000,-5.28994946967939e+000

3.19999999999997e+005,-8.43606309407812e+000,-5.36369978971421e+000

3.24467033532806e+005,-8.43588913561736e+000,-5.43847690655193e+000

3.28996424529938e+005,-8.43570979999812e+000,-5.51429511523869e+000

3.33589043469155e+005,-8.43552491467999e+000,-5.59116891288571e+000

3.38245772979638e+005,-8.43533430149478e+000,-5.66911300178696e+000

3.42967508011610e+005,-8.43513777647177e+000,-5.74814229259628e+000

3.47755156008335e+005,-8.43493514965861e+000,-5.82827190756861e+000

3.52609637080511e+005,-8.43472622493766e+000,-5.90951718386715e+000

3.57531884183106e+005,-8.43451079983800e+000,-5.99189367693503e+000

3.62522843294651e+005,-8.43428866534293e+000,-6.07541716393719e+000

3.67583473599047e+005,-8.43405960569295e+000,-6.16010364727016e+000

3.72714747669902e+005,-8.43382339818409e+000,-6.24596935814515e+000

3.77917651657445e+005,-8.43357981296181e+000,-6.33303076024309e+000

3.83193185478053e+005,-8.43332861281026e+000,-6.42130455344491e+000

3.88542363006410e+005,-8.43306955293692e+000,-6.51080767763908e+000

3.93966212270369e+005,-8.43280238075268e+000,-6.60155731660637e+000

3.99465775648511e+005,-8.43252683564728e+000,-6.69357090198612e+000

4.05042110070485e+005,-8.43224264875985e+000,-6.78686611732408e+000

4.10696287220124e+005,-8.43194954274554e+000,-6.88146090220230e+000

4.16429393741414e+005,-8.43164723153645e+000,-6.97737345645828e+000

4.22242531447321e+005,-8.43133542009906e+000,-7.07462224448710e+000

4.28136817531551e+005,-8.43101380418606e+000,-7.17322599963591e+000

4.34113384783250e+005,-8.43068207008413e+000,-7.27320372868790e+000

4.40173381804713e+005,-8.43033989435698e+000,-7.37457471643973e+000

4.46317973232124e+005,-8.42998694358356e+000,-7.47735853037238e+000

4.52548339959385e+005,-8.42962287409203e+000,-7.58157502541984e+000

4.58865679365059e+005,-8.42924733168869e+000,-7.68724434883498e+000

4.65271205542494e+005,-8.42885995138264e+000,-7.79438694515587e+000

4.71766149533147e+005,-8.42846035710580e+000,-7.90302356127372e+000

4.78351759563174e+005,-8.42804816142806e+000,-8.01317525160464e+000

4.85029301283321e+005,-8.42762296526824e+000,-8.12486338336675e+000

4.91800058012158e+005,-8.42718435760000e+000,-8.23810964196504e+000

4.98665330982714e+005,-8.42673191515363e+000,-8.35293603648450e+000

5.05626439592555e+005,-8.42626520211276e+000,-8.46936490529490e+000

5.12684721657352e+005,-8.42578376980659e+000,-8.58741892176857e+000

5.19841533667984e+005,-8.42528715639753e+000,-8.70712110011274e+000

5.27098251051240e+005,-8.42477488656399e+000,-8.82849480131811e+000

5.34456268434150e+005,-8.42424647117851e+000,-8.95156373922667e+000

5.41916999912011e+005,-8.42370140698092e+000,-9.07635198671969e+000

