Freq.,VOut,OutRef

1.00000000000000e+004,-1.59185662812920e+001,-9.09147820778961e-002

1.01395947979003e+004,-1.59185669456650e+001,-9.21838518545593e-002

1.02811382665607e+004,-1.59185676287103e+001,-9.34706349224282e-002

1.04246576084112e+004,-1.59185683309523e+001,-9.47753784544385e-002

1.05701804056138e+004,-1.59185690529305e+001,-9.60983330688382e-002

1.07177346253629e+004,-1.59185697951992e+001,-9.74397528787985e-002

1.08673486252606e+004,-1.59185705583288e+001,-9.87998955390588e-002

1.10190511587661e+004,-1.59185713429050e+001,-1.00179022298890e-001

1.11728713807222e+004,-1.59185721495304e+001,-1.01577398048091e-001

1.13288388529580e+004,-1.59185729788244e+001,-1.02995291368527e-001

1.14869835499703e+004,-1.59185738314240e+001,-1.04432974587022e-001

1.16473358646846e+004,-1.59185747079838e+001,-1.05890723826010e-001

1.18099266142953e+004,-1.59185756091767e+001,-1.07368819057989e-001

1.19747870461893e+004,-1.59185765356948e+001,-1.08867544156357e-001

1.21419488439505e+004,-1.59185774882494e+001,-1.10387186952223e-001

1.23114441334492e+004,-1.59185784675719e+001,-1.11928039286333e-001

1.24833054890161e+004,-1.59185794744142e+001,-1.13490397069279e-001

1.26575659397028e+004,-1.59185805095490e+001,-1.15074560333900e-001

1.28342589756290e+004,-1.59185815737713e+001,-1.16680833293532e-001

1.30134185544193e+004,-1.59185826678978e+001,-1.18309524401586e-001

1.31950791077289e+004,-1.59185837927686e+001,-1.19960946408798e-001

1.33792755478611e+004,-1.59185849492467e+001,-1.21635416425697e-001

1.35660432744767e+004,-1.59185861382201e+001,-1.23333255976855e-001

1.37554181813974e+004,-1.59185873606014e+001,-1.25054791067892e-001

1.39474366635040e+004,-1.59185886173284e+001,-1.26800352249677e-001

1.41421356237309e+004,-1.59185899093658e+001,-1.28570274671111e-001

1.43395524801583e+004,-1.59185912377052e+001,-1.30364898153578e-001

1.45397251732031e+004,-1.59185926033657e+001,-1.32184567250781e-001

1.47426921729110e+004,-1.59185940073954e+001,-1.34029631315240e-001

1.49484924863494e+004,-1.59185954508715e+001,-1.35900444564523e-001

1.51571656651040e+004,-1.59185969349013e+001,-1.37797366149845e-001

1.53687518128801e+004,-1.59185984606236e+001,-1.39720760220990e-001

1.55832915932100e+004,-1.59186000292088e+001,-1.41670996000362e-001

1.58008262372675e+004,-1.59186016418602e+001,-1.43648447850375e-001

1.60213975517924e+004,-1.59186032998147e+001,-1.45653495344432e-001

1.62450479271247e+004,-1.59186050043440e+001,-1.47686523342021e-001

1.64718203453514e+004,-1.59186067567555e+001,-1.49747922056282e-001

1.67017583885674e+004,-1.59186085583931e+001,-1.51838087133772e-001

1.69349062472505e+004,-1.59186104106383e+001,-1.53957419727592e-001

1.71713087287550e+004,-1.59186123149115e+001,-1.56106326571759e-001

1.74110112659224e+004,-1.59186142726728e+001,-1.58285220061746e-001

1.76540599258131e+004,-1.59186162854231e+001,-1.60494518328968e-001

1.79005014185594e+004,-1.59186183547057e+001,-1.62734645322524e-001

1.81503831063432e+004,-1.59186204821067e+001,-1.65006030890212e-001

1.84037530124975e+004,-1.59186226692567e+001,-1.67309110858156e-001

1.86606598307361e+004,-1.59186249178321e+001,-1.69644327114258e-001

1.89211529345119e+004,-1.59186272295563e+001,-1.72012127689862e-001

1.91852823865052e+004,-1.59186296062005e+001,-1.74412966849873e-001

1.94530989482457e+004,-1.59186320495862e+001,-1.76847305171287e-001

1.97246540898671e+004,-1.59186345615852e+001,-1.79315609637236e-001

1.99999999999999e+004,-1.59186371441220e+001,-1.81818353720575e-001

2.02791895958005e+004,-1.59186397991750e+001,-1.84356017474797e-001

2.05622765331213e+004,-1.59186425287776e+001,-1.86929087626032e-001

2.08493152168224e+004,-1.59186453350206e+001,-1.89538057662323e-001

2.11403608112276e+004,-1.59186482200530e+001,-1.92183427928898e-001

2.14354692507258e+004,-1.59186511860836e+001,-1.94865705722181e-001

2.17346972505211e+004,-1.59186542353836e+001,-1.97585405383302e-001

2.20381023175322e+004,-1.59186573702871e+001,-2.00343048398514e-001

2.23457427614443e+004,-1.59186605931937e+001,-2.03139163494800e-001

2.26576777059159e+004,-1.59186639065703e+001,-2.05974286738181e-001

2.29739670999406e+004,-1.59186673129521e+001,-2.08848961639524e-001

2.32946717293690e+004,-1.59186708149458e+001,-2.11763739251032e-001

2.36198532285905e+004,-1.59186744152304e+001,-2.14719178272977e-001

2.39495740923785e+004,-1.59186781165602e+001,-2.17715845156894e-001

2.42838976879009e+004,-1.59186819217657e+001,-2.20754314214641e-001

2.46228882668982e+004,-1.59186858337573e+001,-2.23835167721484e-001

2.49666109780322e+004,-1.59186898555260e+001,-2.26958996028563e-001

2.53151318794055e+004,-1.59186939901463e+001,-2.30126397673950e-001

2.56685179512580e+004,-1.59186982407788e+001,-2.33337979490628e-001

2.60268371088386e+004,-1.59187026106720e+001,-2.36594356723871e-001

2.63901582154578e+004,-1.59187071031652e+001,-2.39896153143462e-001

2.67585510957221e+004,-1.59187117216904e+001,-2.43244001163007e-001

2.71320865489533e+004,-1.59187164697756e+001,-2.46638541953969e-001

2.75108363627948e+004,-1.59187213510474e+001,-2.50080425566740e-001

2.78948733270080e+004,-1.59187263692326e+001,-2.53570311055186e-001

2.82842712474618e+004,-1.59187315281625e+001,-2.57108866591824e-001

2.86791049603164e+004,-1.59187368317750e+001,-2.60696769597727e-001

2.90794503464061e+004,-1.59187422841172e+001,-2.64334706866988e-001

2.94853843458219e+004,-1.59187478893493e+001,-2.68023374692201e-001

2.98969849726987e+004,-1.59187536517471e+001,-2.71763478995540e-001

3.03143313302078e+004,-1.59187595757052e+001,-2.75555735458106e-001

3.07375036257601e+004,-1.59187656657405e+001,-2.79400869652547e-001

3.11665831864199e+004,-1.59187719264954e+001,-2.83299617176525e-001

3.16016524745350e+004,-1.59187783627415e+001,-2.87252723789140e-001

3.20427951035848e+004,-1.59187849793828e+001,-2.91260945547482e-001

3.24900958542493e+004,-1.59187917814594e+001,-2.95325048945713e-001

3.29436406907028e+004,-1.59187987741513e+001,-2.99445811057844e-001

3.34035167771346e+004,-1.59188059627825e+001,-3.03624019676211e-001

3.38698124945009e+004,-1.59188133528245e+001,-3.07860473459647e-001

3.43426174575100e+004,-1.59188209499004e+001,-3.12155982078204e-001

3.48220225318448e+004,-1.59188287597895e+001,-3.16511366358988e-001

3.53081198516260e+004,-1.59188367884310e+001,-3.20927458440629e-001

3.58010028371187e+004,-1.59188450419284e+001,-3.25405101921550e-001

3.63007662126863e+004,-1.59188535265546e+001,-3.29945152012546e-001

3.68075060249948e+004,-1.59188622487559e+001,-3.34548475694393e-001

3.73213196614721e+004,-1.59188712151567e+001,-3.39215951874570e-001

3.78423058690237e+004,-1.59188804325648e+001,-3.43948471546945e-001

3.83705647730104e+004,-1.59188899079760e+001,-3.48746937949226e-001

3.89061978964912e+004,-1.59188996485796e+001,-3.53612266730378e-001

3.94493081797342e+004,-1.59189096617627e+001,-3.58545386114574e-001

3.99999999999998e+004,-1.59189199551170e+001,-3.63547237064334e-001

4.05583791916010e+004,-1.59189305364429e+001,-3.68618773455876e-001

4.11245530662425e+004,-1.59189414137563e+001,-3.73760962242521e-001

4.16986304336447e+004,-1.59189525952937e+001,-3.78974783633034e-001

4.22807216224550e+004,-1.59189640895182e+001,-3.84261231265658e-001

4.28709385014515e+004,-1.59189759051261e+001,-3.89621312380970e-001

4.34693945010421e+004,-1.59189880510525e+001,-3.95056048005911e-001

4.40762046350642e+004,-1.59190005364782e+001,-4.00566473131678e-001

4.46914855228886e+004,-1.59190133708359e+001,-4.06153636897649e-001

4.53153554118317e+004,-1.59190265638176e+001,-4.11818602774918e-001

4.59479341998812e+004,-1.59190401253806e+001,-4.17562448755430e-001

4.65893434587380e+004,-1.59190540657554e+001,-4.23386267541260e-001

4.72397064571810e+004,-1.59190683954526e+001,-4.29291166732098e-001

4.78991481847569e+004,-1.59190831252704e+001,-4.35278269023754e-001

4.85677953758016e+004,-1.59190982663022e+001,-4.41348712400430e-001

4.92457765337964e+004,-1.59191138299445e+001,-4.47503650331597e-001

4.99332219560642e+004,-1.59191298279049e+001,-4.53744251975618e-001

5.06302637588109e+004,-1.59191462722105e+001,-4.60071702375945e-001

5.13370359025159e+004,-1.59191631752159e+001,-4.66487202670152e-001

5.20536742176771e+004,-1.59191805496124e+001,-4.72991970292226e-001

5.27803164309155e+004,-1.59191984084363e+001,-4.79587239182326e-001

5.35171021914442e+004,-1.59192167650782e+001,-4.86274259997411e-001

5.42641730979066e+004,-1.59192356332924e+001,-4.93054300322505e-001

5.50216727255895e+004,-1.59192550272063e+001,-4.99928644884905e-001

5.57897466540159e+004,-1.59192749613300e+001,-5.06898595772275e-001

5.65685424949235e+004,-1.59192954505663e+001,-5.13965472649239e-001

5.73582099206328e+004,-1.59193165102210e+001,-5.21130612981196e-001

5.81589006928121e+004,-1.59193381560132e+001,-5.28395372253803e-001

5.89707686916437e+004,-1.59193604040863e+001,-5.35761124198522e-001

5.97939699453972e+004,-1.59193832710183e+001,-5.43229261023402e-001

6.06286626604156e+004,-1.59194067738336e+001,-5.50801193635842e-001

6.14750072515201e+004,-1.59194309300141e+001,-5.58478351879173e-001

6.23331663728396e+004,-1.59194557575108e+001,-5.66262184763349e-001

6.32033049490698e+004,-1.59194812747561e+001,-5.74154160700025e-001

6.40855902071694e+004,-1.59195075006758e+001,-5.82155767739514e-001

6.49801917084985e+004,-1.59195344547015e+001,-5.90268513811980e-001

6.58872813814055e+004,-1.59195621567834e+001,-5.98493926966187e-001

6.68070335542691e+004,-1.59195906274038e+001,-6.06833555612994e-001

6.77396249890018e+004,-1.59196198875894e+001,-6.15288968771693e-001

6.86852349150199e+004,-1.59196499589263e+001,-6.23861756314534e-001

6.96440450636895e+004,-1.59196808635726e+001,-6.32553529216773e-001

7.06162397032520e+004,-1.59197126242734e+001,-6.41365919807303e-001

7.16020056742374e+004,-1.59197452643749e+001,-6.50300582020300e-001

7.26015324253724e+004,-1.59197788078393e+001,-6.59359191648897e-001

7.36150120499896e+004,-1.59198132792599e+001,-6.68543446601552e-001

7.46426393229441e+004,-1.59198487038767e+001,-6.77855067158090e-001

7.56846117380472e+004,-1.59198851075916e+001,-6.87295796230338e-001

7.67411295460207e+004,-1.59199225169847e+001,-6.96867399621282e-001

7.78123957929823e+004,-1.59199609593305e+001,-7.06571666287380e-001

7.88986163594682e+004,-1.59200004626147e+001,-7.16410408601861e-001

7.99999999999995e+004,-1.59200410555509e+001,-7.26385462619826e-001

8.11167583832018e+004,-1.59200827675981e+001,-7.36498688343389e-001

8.22491061324848e+004,-1.59201256289777e+001,-7.46751969991288e-001

8.33972608672892e+004,-1.59201696706919e+001,-7.57147216264741e-001

8.45614432449099e+004,-1.59202149245415e+001,-7.67686360619412e-001

8.57418770029029e+004,-1.59202614231448e+001,-7.78371361534511e-001

8.69387890020841e+004,-1.59203091999559e+001,-7.89204202785872e-001

8.81524092701283e+004,-1.59203582892837e+001,-8.00186893718503e-001

8.93829710457770e+004,-1.59204087263117e+001,-8.11321469519590e-001

9.06307108236633e+004,-1.59204605471174e+001,-8.22609991493351e-001

9.18958683997622e+004,-1.59205137886925e+001,-8.34054547335099e-001

9.31786869174758e+004,-1.59205684889625e+001,-8.45657251408049e-001

9.44794129143618e+004,-1.59206246868081e+001,-8.57420245018212e-001

9.57982963695136e+004,-1.59206824220851e+001,-8.69345696692402e-001

9.71355907516031e+004,-1.59207417356462e+001,-8.81435802451371e-001

9.84915530675926e+004,-1.59208026693617e+001,-8.93692786091866e-001

9.98664439121282e+004,-1.59208652661417e+001,-9.06118899457739e-001

1.01260527517622e+005,-1.59209295699569e+001,-9.18716422722549e-001

1.02674071805032e+005,-1.59209956258618e+001,-9.31487664660548e-001

1.04107348435354e+005,-1.59210634800159e+001,-9.44434962928125e-001

1.05560632861831e+005,-1.59211331797067e+001,-9.57560684335622e-001

1.07034204382888e+005,-1.59212047733722e+001,-9.70867225125556e-001

1.08528346195813e+005,-1.59212783106233e+001,-9.84357011246240e-001

1.10043345451179e+005,-1.59213538422671e+001,-9.98032498625744e-001

1.11579493308032e+005,-1.59214314203297e+001,-1.01189617344575e+000

1.13137084989847e+005,-1.59215110980796e+001,-1.02595055241176e+000

1.14716419841265e+005,-1.59215929300504e+001,-1.04019818302691e+000

1.16317801385624e+005,-1.59216769720646e+001,-1.05464164385788e+000

1.17941537383287e+005,-1.59217632812564e+001,-1.06928354480577e+000

1.19587939890794e+005,-1.59218519160950e+001,-1.08412652737206e+000

1.21257325320831e+005,-1.59219429364088e+001,-1.09917326492107e+000

1.22950014503040e+005,-1.59220364034069e+001,-1.11442646294660e+000

1.24666332745679e+005,-1.59221323797036e+001,-1.12988885932950e+000

1.26406609898139e+005,-1.59222309293406e+001,-1.14556322459719e+000

1.28171180414339e+005,-1.59223321178102e+001,-1.16145236218105e+000

1.29960383416997e+005,-1.59224360120772e+001,-1.17755910866934e+000

1.31774562762811e+005,-1.59225426806019e+001,-1.19388633405804e+000

1.33614067108538e+005,-1.59226521933616e+001,-1.21043694200137e+000

1.35479249978003e+005,-1.59227646218724e+001,-1.22721387005471e+000

1.37370469830040e+005,-1.59228800392101e+001,-1.24422008992048e+000

1.39288090127379e+005,-1.59229985200310e+001,-1.26145860768550e+000

1.41232479406504e+005,-1.59231201405924e+001,-1.27893246405898e+000

1.43204011348474e+005,-1.59232449787717e+001,-1.29664473460490e+000

1.45203064850745e+005,-1.59233731140854e+001,-1.31459852997254e+000

1.47230024099979e+005,-1.59235046277076e+001,-1.33279699612204e+000

1.49285278645888e+005,-1.59236396024868e+001,-1.35124331454789e+000

1.51369223476094e+005,-1.59237781229630e+001,-1.36994070249822e+000

1.53482259092041e+005,-1.59239202753827e+001,-1.38889241318900e+000

1.55624791585964e+005,-1.59240661477137e+001,-1.40810173601812e+000

1.57797232718936e+005,-1.59242158296582e+001,-1.42757199677082e+000

1.59999999999999e+005,-1.59243694126651e+001,-1.44730655782605e+000

1.62233516766403e+005,-1.59245269899410e+001,-1.46730881835583e+000

1.64498212264969e+005,-1.59246886564590e+001,-1.48758221452228e+000

1.66794521734578e+005,-1.59248545089671e+001,-1.50813021967125e+000

1.69122886489819e+005,-1.59250246459943e+001,-1.52895634452101e+000

1.71483754005805e+005,-1.59251991678550e+001,-1.55006413735014e+000

1.73877578004168e+005,-1.59253781766516e+001,-1.57145718417884e+000

1.76304818540256e+005,-1.59255617762755e+001,-1.59313910894844e+000

1.78765942091554e+005,-1.59257500724054e+001,-1.61511357369979e+000

1.81261421647326e+005,-1.59259431725035e+001,-1.63738427874609e+000

1.83791736799524e+005,-1.59261411858102e+001,-1.65995496284395e+000

1.86357373834951e+005,-1.59263442233348e+001,-1.68282940336460e+000

1.88958825828723e+005,-1.59265523978448e+001,-1.70601141646050e+000

1.91596592739027e+005,-1.59267658238520e+001,-1.72950485723166e+000

1.94271181503206e+005,-1.59269846175957e+001,-1.75331361989120e+000

1.96983106135185e+005,-1.59272088970229e+001,-1.77744163793132e+000

1.99732887824256e+005,-1.59274387817649e+001,-1.80189288428698e+000

2.02521055035243e+005,-1.59276743931113e+001,-1.82667137150343e+000

2.05348143610063e+005,-1.59279158539798e+001,-1.85178115190336e+000

2.08214696870707e+005,-1.59281632888824e+001,-1.87722631775631e+000

2.11121265723661e+005,-1.59284168238883e+001,-1.90301100145155e+000

2.14068408765776e+005,-1.59286765865820e+001,-1.92913937567510e+000

2.17056692391625e+005,-1.59289427060178e+001,-1.95561565359199e+000

2.20086690902357e+005,-1.59292153126696e+001,-1.98244408903267e+000

2.23158986616063e+005,-1.59294945383767e+001,-2.00962897668802e+000

2.26274169979693e+005,-1.59297805162842e+001,-2.03717465231385e+000

2.29432839682530e+005,-1.59300733807793e+001,-2.06508549294035e+000

2.32635602771247e+005,-1.59303732674218e+001,-2.09336591709880e+000

2.35883074766574e+005,-1.59306803128707e+001,-2.12202038505471e+000

2.39175879781588e+005,-1.59309946548039e+001,-2.15105339905942e+000

2.42514650641661e+005,-1.59313164318339e+001,-2.18046950361452e+000

2.45900029006080e+005,-1.59316457834169e+001,-2.21027328575512e+000

2.49332665491357e+005,-1.59319828497567e+001,-2.24046937535173e+000

2.52813219796278e+005,-1.59323277717023e+001,-2.27106244543441e+000

2.56342360828676e+005,-1.59326806906405e+001,-2.30205721253802e+000

2.59920766833993e+005,-1.59330417483807e+001,-2.33345843707549e+000

2.63549125525621e+005,-1.59334110870351e+001,-2.36527092373781e+000

2.67228134217075e+005,-1.59337888488917e+001,-2.39749952192295e+000

2.70958499956006e+005,-1.59341751762812e+001,-2.43014912620122e+000

2.74740939660078e+005,-1.59345702114376e+001,-2.46322467681081e+000

2.78576180254757e+005,-1.59349740963516e+001,-2.49673116019585e+000

2.82464958813007e+005,-1.59353869726186e+001,-2.53067360958256e+000

2.86408022696948e+005,-1.59358089812793e+001,-2.56505710560053e+000

2.90406129701488e+005,-1.59362402626536e+001,-2.59988677695098e+000

2.94460048199957e+005,-1.59366809561692e+001,-2.63516780112333e+000

2.98570557291775e+005,-1.59371312001823e+001,-2.67090540516610e+000

3.02738446952187e+005,-1.59375911317927e+001,-2.70710486651529e+000

3.06964518184081e+005,-1.59380608866527e+001,-2.74377151387990e+000

3.11249583171928e+005,-1.59385405987693e+001,-2.78091072819301e+000

3.15594465437872e+005,-1.59390304003012e+001,-2.81852794362804e+000

3.19999999999997e+005,-1.59395304213491e+001,-2.85662864868584e+000

3.24467033532806e+005,-1.59400407897413e+001,-2.89521838735645e+000

3.28996424529938e+005,-1.59405616308133e+001,-2.93430276035630e+000

3.33589043469155e+005,-1.59410930671828e+001,-2.97388742644893e+000

3.38245772979638e+005,-1.59416352185202e+001,-3.01397810384813e+000

3.42967508011610e+005,-1.59421882013139e+001,-3.05458057171057e+000

3.47755156008335e+005,-1.59427521286328e+001,-3.09570067172049e+000

3.52609637080511e+005,-1.59433271098845e+001,-3.13734430976973e+000

3.57531884183106e+005,-1.59439132505715e+001,-3.17951745773587e+000

3.62522843294651e+005,-1.59445106520434e+001,-3.22222615536386e+000

3.67583473599047e+005,-1.59451194112491e+001,-3.26547651225303e+000

3.72714747669902e+005,-1.59457396204862e+001,-3.30927470995156e+000

3.77917651657445e+005,-1.59463713671509e+001,-3.35362700416577e+000

3.83193185478053e+005,-1.59470147334875e+001,-3.39853972708076e+000

3.88542363006410e+005,-1.59476697963386e+001,-3.44401928980030e+000

3.93966212270369e+005,-1.59483366268976e+001,-3.49007218490644e+000

3.99465775648511e+005,-1.59490152904629e+001,-3.53670498914126e+000

4.05042110070485e+005,-1.59497058461959e+001,-3.58392436621149e+000

4.10696287220124e+005,-1.59504083468832e+001,-3.63173706972017e+000

4.16429393741414e+005,-1.59511228387041e+001,-3.68014994622430e+000

4.22242531447321e+005,-1.59518493610034e+001,-3.72916993842171e+000

4.28136817531551e+005,-1.59525879460723e+001,-3.77880408846533e+000

4.34113384783250e+005,-1.59533386189374e+001,-3.82905954140690e+000

4.40173381804713e+005,-1.59541013971579e+001,-3.87994354876987e+000

4.46317973232124e+005,-1.59548762906343e+001,-3.93146347225048e+000

4.52548339959385e+005,-1.59556633014279e+001,-3.98362678754521e+000

4.58865679365059e+005,-1.59564624235925e+001,-4.03644108830513e+000

4.65271205542494e+005,-1.59572736430198e+001,-4.08991409021382e+000

4.71766149533147e+005,-1.59580969373004e+001,-4.14405363518566e+000

4.78351759563174e+005,-1.59589322755986e+001,-4.19886769568445e+000

4.85029301283321e+005,-1.59597796185461e+001,-4.25436437915481e+000

4.91800058012158e+005,-1.59606389181523e+001,-4.31055193256551e+000

4.98665330982714e+005,-1.59615101177343e+001,-4.36743874706025e+000

5.05626439592555e+005,-1.59623931518660e+001,-4.42503336270766e+000

5.12684721657352e+005,-1.59632879463499e+001,-4.48334447334798e+000

5.19841533667984e+005,-1.59641944182085e+001,-4.54238093153024e+000

5.27098251051240e+005,-1.59651124757009e+001,-4.60215175353126e+000

5.34456268434150e+005,-1.59660420183616e+001,-4.66266612445077e+000

5.41916999912011e+005,-1.59669829370642e+001,-4.72393340337491e+000

