Freq.,VOut,OutRef

1.00000000000000e+004,-1.43426153825762e+001,-2.28561250540815e-001

1.01395947979003e+004,-1.43426157328036e+001,-2.31751828038879e-001

1.02811382665607e+004,-1.43426160928751e+001,-2.34986943547093e-001

1.04246576084112e+004,-1.43426164630677e+001,-2.38267218758201e-001

1.05701804056138e+004,-1.43426168436654e+001,-2.41593284044799e-001

1.07177346253629e+004,-1.43426172349610e+001,-2.44965778574553e-001

1.08673486252606e+004,-1.43426176372550e+001,-2.48385350437695e-001

1.10190511587661e+004,-1.43426180508562e+001,-2.51852656770668e-001

1.11728713807222e+004,-1.43426184760827e+001,-2.55368363878871e-001

1.13288388529580e+004,-1.43426189132610e+001,-2.58933147369524e-001

1.14869835499703e+004,-1.43426193627269e+001,-2.62547692279428e-001

1.16473358646846e+004,-1.43426198248258e+001,-2.66212693203561e-001

1.18099266142953e+004,-1.43426202999127e+001,-2.69928854433437e-001

1.19747870461893e+004,-1.43426207883524e+001,-2.73696890089434e-001

1.21419488439505e+004,-1.43426212905201e+001,-2.77517524258534e-001

1.23114441334492e+004,-1.43426218068017e+001,-2.81391491132510e-001

1.24833054890161e+004,-1.43426223375936e+001,-2.85319535150927e-001

1.26575659397028e+004,-1.43426228833035e+001,-2.89302411143462e-001

1.28342589756290e+004,-1.43426234443507e+001,-2.93340884471462e-001

1.30134185544193e+004,-1.43426240211659e+001,-2.97435731180585e-001

1.31950791077289e+004,-1.43426246141923e+001,-3.01587738144883e-001

1.33792755478611e+004,-1.43426252238852e+001,-3.05797703221207e-001

1.35660432744767e+004,-1.43426258507130e+001,-3.10066435400522e-001

1.37554181813974e+004,-1.43426264951568e+001,-3.14394754964635e-001

1.39474366635040e+004,-1.43426271577119e+001,-3.18783493640286e-001

1.41421356237309e+004,-1.43426278388868e+001,-3.23233494764276e-001

1.43395524801583e+004,-1.43426285392046e+001,-3.27745613440157e-001

1.45397251732031e+004,-1.43426292592031e+001,-3.32320716706596e-001

1.47426921729110e+004,-1.43426299994353e+001,-3.36959683699167e-001

1.49484924863494e+004,-1.43426307604692e+001,-3.41663405824779e-001

1.51571656651040e+004,-1.43426315428895e+001,-3.46432786927215e-001

1.53687518128801e+004,-1.43426323472967e+001,-3.51268743463617e-001

1.55832915932100e+004,-1.43426331743085e+001,-3.56172204680618e-001

1.58008262372675e+004,-1.43426340245596e+001,-3.61144112792498e-001

1.60213975517924e+004,-1.43426348987029e+001,-3.66185423158887e-001

1.62450479271247e+004,-1.43426357974094e+001,-3.71297104472212e-001

1.64718203453514e+004,-1.43426367213690e+001,-3.76480138942504e-001

1.67017583885674e+004,-1.43426376712907e+001,-3.81735522484770e-001

1.69349062472505e+004,-1.43426386479040e+001,-3.87064264909179e-001

1.71713087287550e+004,-1.43426396519581e+001,-3.92467390118799e-001

1.74110112659224e+004,-1.43426406842239e+001,-3.97945936300884e-001

1.76540599258131e+004,-1.43426417454933e+001,-4.03500956131373e-001

1.79005014185594e+004,-1.43426428365810e+001,-4.09133516971943e-001

1.81503831063432e+004,-1.43426439583240e+001,-4.14844701077269e-001

1.84037530124975e+004,-1.43426451115834e+001,-4.20635605802667e-001

1.86606598307361e+004,-1.43426462972438e+001,-4.26507343814067e-001

1.89211529345119e+004,-1.43426475162149e+001,-4.32461043302075e-001

1.91852823865052e+004,-1.43426487694320e+001,-4.38497848196248e-001

1.94530989482457e+004,-1.43426500578566e+001,-4.44618918386235e-001

1.97246540898671e+004,-1.43426513824768e+001,-4.50825429946545e-001

1.99999999999999e+004,-1.43426527443090e+001,-4.57118575355038e-001

2.02791895958005e+004,-1.43426541443975e+001,-4.63499563729526e-001

2.05622765331213e+004,-1.43426555838164e+001,-4.69969621053811e-001

2.08493152168224e+004,-1.43426570636694e+001,-4.76529990416352e-001

2.11403608112276e+004,-1.43426585850913e+001,-4.83181932246919e-001

2.14354692507258e+004,-1.43426601492489e+001,-4.89926724557509e-001

2.17346972505211e+004,-1.43426617573416e+001,-4.96765663188069e-001

2.20381023175322e+004,-1.43426634106021e+001,-5.03700062056529e-001

2.23457427614443e+004,-1.43426651102981e+001,-5.10731253407389e-001

2.26576777059159e+004,-1.43426668577325e+001,-5.17860588069078e-001

2.29739670999406e+004,-1.43426686542447e+001,-5.25089435712388e-001

2.32946717293690e+004,-1.43426705012117e+001,-5.32419185112947e-001

2.36198532285905e+004,-1.43426724000490e+001,-5.39851244417491e-001

2.39495740923785e+004,-1.43426743522117e+001,-5.47387041412672e-001

2.42838976879009e+004,-1.43426763591958e+001,-5.55028023798438e-001

2.46228882668982e+004,-1.43426784225389e+001,-5.62775659467319e-001

2.49666109780322e+004,-1.43426805438218e+001,-5.70631436783746e-001

2.53151318794055e+004,-1.43426827246695e+001,-5.78596864869343e-001

2.56685179512580e+004,-1.43426849667526e+001,-5.86673473891559e-001

2.60268371088386e+004,-1.43426872717881e+001,-5.94862815357733e-001

2.63901582154578e+004,-1.43426896415414e+001,-6.03166462410876e-001

2.67585510957221e+004,-1.43426920778269e+001,-6.11586010132325e-001

2.71320865489533e+004,-1.43426945825101e+001,-6.20123075843937e-001

2.75108363627948e+004,-1.43426971575084e+001,-6.28779299422037e-001

2.78948733270080e+004,-1.43426998047928e+001,-6.37556343606680e-001

2.82842712474618e+004,-1.43427025263896e+001,-6.46455894323505e-001

2.86791049603164e+004,-1.43427053243814e+001,-6.55479661003191e-001

2.90794503464061e+004,-1.43427082009093e+001,-6.64629376910411e-001

2.94853843458219e+004,-1.43427111581740e+001,-6.73906799475170e-001

2.98969849726987e+004,-1.43427141984379e+001,-6.83313710626610e-001

3.03143313302078e+004,-1.43427173240260e+001,-6.92851917137711e-001

3.07375036257601e+004,-1.43427205373291e+001,-7.02523250966348e-001

3.11665831864199e+004,-1.43427238408039e+001,-7.12329569608151e-001

3.16016524745350e+004,-1.43427272369762e+001,-7.22272756450952e-001

3.20427951035848e+004,-1.43427307284419e+001,-7.32354721134131e-001

3.24900958542493e+004,-1.43427343178697e+001,-7.42577399913868e-001

3.29436406907028e+004,-1.43427380080024e+001,-7.52942756032673e-001

3.34035167771346e+004,-1.43427418016594e+001,-7.63452780094780e-001

3.38698124945009e+004,-1.43427457017386e+001,-7.74109490445417e-001

3.43426174575100e+004,-1.43427497112189e+001,-7.84914933557213e-001

3.48220225318448e+004,-1.43427538331619e+001,-7.95871184419030e-001

3.53081198516260e+004,-1.43427580707148e+001,-8.06980346934788e-001

3.58010028371187e+004,-1.43427624271121e+001,-8.18244554321810e-001

3.63007662126863e+004,-1.43427669056786e+001,-8.29665969519820e-001

3.68075060249948e+004,-1.43427715098317e+001,-8.41246785602099e-001

3.73213196614721e+004,-1.43427762430835e+001,-8.52989226195729e-001

3.78423058690237e+004,-1.43427811090442e+001,-8.64895545903054e-001

3.83705647730104e+004,-1.43427861114243e+001,-8.76968030731744e-001

3.89061978964912e+004,-1.43427912540372e+001,-8.89208998533288e-001

3.94493081797342e+004,-1.43427965408025e+001,-9.01620799440362e-001

3.99999999999998e+004,-1.43428019757490e+001,-9.14205816316823e-001

4.05583791916010e+004,-1.43428075630166e+001,-9.26966465212244e-001

4.11245530662425e+004,-1.43428133068610e+001,-9.39905195819037e-001

4.16986304336447e+004,-1.43428192116554e+001,-9.53024491941693e-001

4.22807216224550e+004,-1.43428252818946e+001,-9.66326871967151e-001

4.28709385014515e+004,-1.43428315221979e+001,-9.79814889345158e-001

4.34693945010421e+004,-1.43428379373130e+001,-9.93491133072764e-001

4.40762046350642e+004,-1.43428445321188e+001,-1.00735822818758e+000

4.46914855228886e+004,-1.43428513116295e+001,-1.02141883626623e+000

4.53153554118317e+004,-1.43428582809981e+001,-1.03567565592963e+000

4.59479341998812e+004,-1.43428654455202e+001,-1.05013142335613e+000

4.65893434587380e+004,-1.43428728106380e+001,-1.06478891280057e+000

4.72397064571810e+004,-1.43428803819441e+001,-1.07965093712149e+000

4.78991481847569e+004,-1.43428881651859e+001,-1.09472034831369e+000

4.85677953758016e+004,-1.43428961662691e+001,-1.11000003805122e+000

4.92457765337964e+004,-1.43429043912629e+001,-1.12549293823328e+000

4.99332219560642e+004,-1.43429128464039e+001,-1.14120202154122e+000

5.06302637588109e+004,-1.43429215381007e+001,-1.15713030200292e+000

5.13370359025159e+004,-1.43429304729385e+001,-1.17328083556049e+000

5.20536742176771e+004,-1.43429396576842e+001,-1.18965672065222e+000

5.27803164309155e+004,-1.43429490992907e+001,-1.20626109879741e+000

5.35171021914442e+004,-1.43429588049026e+001,-1.22309715518981e+000

5.42641730979066e+004,-1.43429687818609e+001,-1.24016811930171e+000

5.50216727255895e+004,-1.43429790377083e+001,-1.25747726549313e+000

5.57897466540159e+004,-1.43429895801947e+001,-1.27502791363129e+000

5.65685424949235e+004,-1.43430004172831e+001,-1.29282342971648e+000

5.73582099206328e+004,-1.43430115571545e+001,-1.31086722651855e+000

5.81589006928121e+004,-1.43430230082146e+001,-1.32916276422025e+000

5.89707686916437e+004,-1.43430347790991e+001,-1.34771355106882e+000

5.97939699453972e+004,-1.43430468786804e+001,-1.36652314403898e+000

6.06286626604156e+004,-1.43430593160734e+001,-1.38559514950253e+000

6.14750072515201e+004,-1.43430721006423e+001,-1.40493322390600e+000

6.23331663728396e+004,-1.43430852420069e+001,-1.42454107445995e+000

6.32033049490698e+004,-1.43430987500498e+001,-1.44442245983637e+000

6.40855902071694e+004,-1.43431126349229e+001,-1.46458119087415e+000

6.49801917084985e+004,-1.43431269070549e+001,-1.48502113129666e+000

6.58872813814055e+004,-1.43431415771580e+001,-1.50574619843516e+000

6.68070335542691e+004,-1.43431566562364e+001,-1.52676036396456e+000

6.77396249890018e+004,-1.43431721555925e+001,-1.54806765465015e+000

6.86852349150199e+004,-1.43431880868362e+001,-1.56967215309839e+000

6.96440450636895e+004,-1.43432044618918e+001,-1.59157799852499e+000

7.06162397032520e+004,-1.43432212930070e+001,-1.61378938752769e+000

7.16020056742374e+004,-1.43432385927607e+001,-1.63631057487179e+000

7.26015324253724e+004,-1.43432563740719e+001,-1.65914587428547e+000

7.36150120499896e+004,-1.43432746502085e+001,-1.68229965926453e+000

7.46426393229441e+004,-1.43432934347964e+001,-1.70577636388960e+000

7.56846117380472e+004,-1.43433127418284e+001,-1.72958048365277e+000

7.67411295460207e+004,-1.43433325856739e+001,-1.75371657629549e+000

7.78123957929823e+004,-1.43433529810887e+001,-1.77818926265661e+000

7.88986163594682e+004,-1.43433739432244e+001,-1.80300322753231e+000

7.99999999999995e+004,-1.43433954876390e+001,-1.82816322054752e+000

8.11167583832018e+004,-1.43434176303069e+001,-1.85367405703790e+000

8.22491061324848e+004,-1.43434403876293e+001,-1.87954061894374e+000

8.33972608672892e+004,-1.43434637764459e+001,-1.90576785571370e+000

8.45614432449099e+004,-1.43434878140446e+001,-1.93236078522477e+000

8.57418770029029e+004,-1.43435125181740e+001,-1.95932449470821e+000

8.69387890020841e+004,-1.43435379070540e+001,-1.98666414169189e+000

8.81524092701283e+004,-1.43435639993882e+001,-2.01438495495303e+000

8.93829710457770e+004,-1.43435908143755e+001,-2.04249223548244e+000

9.06307108236633e+004,-1.43436183717227e+001,-2.07099135746385e+000

9.18958683997622e+004,-1.43436466916567e+001,-2.09988776926162e+000

9.31786869174758e+004,-1.43436757949376e+001,-2.12918699442564e+000

9.44794129143618e+004,-1.43437057028715e+001,-2.15889463270555e+000

9.57982963695136e+004,-1.43437364373238e+001,-2.18901636107944e+000

9.71355907516031e+004,-1.43437680207332e+001,-2.21955793479553e+000

9.84915530675926e+004,-1.43438004761250e+001,-2.25052518842662e+000

9.98664439121282e+004,-1.43438338271256e+001,-2.28192403693815e+000

1.01260527517622e+005,-1.43438680979765e+001,-2.31376047677068e+000

1.02674071805032e+005,-1.43439033135494e+001,-2.34604058693370e+000

1.04107348435354e+005,-1.43439394993609e+001,-2.37877053011580e+000

1.05560632861831e+005,-1.43439766815878e+001,-2.41195655380709e+000

1.07034204382888e+005,-1.43440148870824e+001,-2.44560499143629e+000

1.08528346195813e+005,-1.43440541433887e+001,-2.47972226352284e+000

1.10043345451179e+005,-1.43440944787576e+001,-2.51431487884194e+000

1.11579493308032e+005,-1.43441359221643e+001,-2.54938943560483e+000

1.13137084989847e+005,-1.43441785033240e+001,-2.58495262265425e+000

1.14716419841265e+005,-1.43442222527093e+001,-2.62101122067404e+000

1.16317801385624e+005,-1.43442672015670e+001,-2.65757210341470e+000

1.17941537383287e+005,-1.43443133819358e+001,-2.69464223893322e+000

1.19587939890794e+005,-1.43443608266636e+001,-2.73222869084781e+000

1.21257325320831e+005,-1.43444095694259e+001,-2.77033861961054e+000

1.22950014503040e+005,-1.43444596447435e+001,-2.80897928379358e+000

1.24666332745679e+005,-1.43445110880015e+001,-2.84815804139152e+000

1.26406609898139e+005,-1.43445639354674e+001,-2.88788235114024e+000

1.28171180414339e+005,-1.43446182243107e+001,-2.92815977385236e+000

1.29960383416997e+005,-1.43446739926214e+001,-2.96899797376892e+000

1.31774562762811e+005,-1.43447312794303e+001,-3.01040471992643e+000

1.33614067108538e+005,-1.43447901247278e+001,-3.05238788754254e+000

1.35479249978003e+005,-1.43448505694841e+001,-3.09495545941826e+000

1.37370469830040e+005,-1.43449126556699e+001,-3.13811552735594e+000

1.39288090127379e+005,-1.43449764262755e+001,-3.18187629359692e+000

1.41232479406504e+005,-1.43450419253325e+001,-3.22624607227550e+000

1.43204011348474e+005,-1.43451091979335e+001,-3.27123329089014e+000

1.45203064850745e+005,-1.43451782902539e+001,-3.31684649179422e+000

1.47230024099979e+005,-1.43452492495719e+001,-3.36309433370448e+000

1.49285278645888e+005,-1.43453221242905e+001,-3.40998559322729e+000

1.51369223476094e+005,-1.43453969639583e+001,-3.45752916640480e+000

1.53482259092041e+005,-1.43454738192912e+001,-3.50573407027948e+000

1.55624791585964e+005,-1.43455527421937e+001,-3.55460944447756e+000

1.57797232718936e+005,-1.43456337857805e+001,-3.60416455281340e+000

1.59999999999999e+005,-1.43457170043985e+001,-3.65440878491126e+000

1.62233516766403e+005,-1.43458024536478e+001,-3.70535165785049e+000

1.64498212264969e+005,-1.43458901904044e+001,-3.75700281782756e+000

1.66794521734578e+005,-1.43459802728409e+001,-3.80937204184188e+000

1.69122886489819e+005,-1.43460727604493e+001,-3.86246923939979e+000

1.71483754005805e+005,-1.43461677140617e+001,-3.91630445424294e+000

1.73877578004168e+005,-1.43462651958727e+001,-3.97088786609500e+000

1.76304818540256e+005,-1.43463652694604e+001,-4.02622979243396e+000

1.78765942091554e+005,-1.43464679998083e+001,-4.08234069028328e+000

1.81261421647326e+005,-1.43465734533263e+001,-4.13923115802876e+000

1.83791736799524e+005,-1.43466816978719e+001,-4.19691193725721e+000

1.86357373834951e+005,-1.43467928027713e+001,-4.25539391461834e+000

1.88958825828723e+005,-1.43469068388398e+001,-4.31468812371246e+000

1.91596592739027e+005,-1.43470238784029e+001,-4.37480574700025e+000

1.94271181503206e+005,-1.43471439953156e+001,-4.43575811774015e+000

1.96983106135185e+005,-1.43472672649831e+001,-4.49755672194847e+000

1.99732887824256e+005,-1.43473937643801e+001,-4.56021320038860e+000

2.02521055035243e+005,-1.43475235720696e+001,-4.62373935058382e+000

2.05348143610063e+005,-1.43476567682222e+001,-4.68814712885931e+000

2.08214696870707e+005,-1.43477934346342e+001,-4.75344865241075e+000

2.11121265723661e+005,-1.43479336547454e+001,-4.81965620140199e+000

2.14068408765776e+005,-1.43480775136565e+001,-4.88678222109130e+000

2.17056692391625e+005,-1.43482250981459e+001,-4.95483932398695e+000

2.20086690902357e+005,-1.43483764966863e+001,-5.02384029203404e+000

2.23158986616063e+005,-1.43485317994596e+001,-5.09379807883189e+000

2.26274169979693e+005,-1.43486910983727e+001,-5.16472581188349e+000

2.29432839682530e+005,-1.43488544870714e+001,-5.23663679487662e+000

2.32635602771247e+005,-1.43490220609542e+001,-5.30954451000108e+000

2.35883074766574e+005,-1.43491939171855e+001,-5.38346262029698e+000

2.39175879781588e+005,-1.43493701547076e+001,-5.45840497204106e+000

2.42514650641661e+005,-1.43495508742522e+001,-5.53438559716748e+000

2.45900029006080e+005,-1.43497361783512e+001,-5.61141871572683e+000

2.49332665491357e+005,-1.43499261713465e+001,-5.68951873838268e+000

2.52813219796278e+005,-1.43501209593994e+001,-5.76870026894838e+000

2.56342360828676e+005,-1.43503206504985e+001,-5.84897810696312e+000

2.59920766833993e+005,-1.43505253544675e+001,-5.93036725030994e+000

2.63549125525621e+005,-1.43507351829717e+001,-6.01288289787691e+000

2.67228134217075e+005,-1.43509502495239e+001,-6.09654045226148e+000

2.70958499956006e+005,-1.43511706694893e+001,-6.18135552252055e+000

2.74740939660078e+005,-1.43513965600899e+001,-6.26734392696643e+000

2.78576180254757e+005,-1.43516280404077e+001,-6.35452169601117e+000

2.82464958813007e+005,-1.43518652313877e+001,-6.44290507505983e+000

2.86408022696948e+005,-1.43521082558396e+001,-6.53251052745411e+000

2.90406129701488e+005,-1.43523572384394e+001,-6.62335473746774e+000

2.94460048199957e+005,-1.43526123057298e+001,-6.71545461335687e+000

2.98570557291775e+005,-1.43528735861203e+001,-6.80882729046298e+000

3.02738446952187e+005,-1.43531412098871e+001,-6.90349013437459e+000

3.06964518184081e+005,-1.43534153091723e+001,-6.99946074414578e+000

3.11249583171928e+005,-1.43536960179825e+001,-7.09675695557486e+000

3.15594465437872e+005,-1.43539834721877e+001,-7.19539684454394e+000

3.19999999999997e+005,-1.43542778095197e+001,-7.29539873042254e+000

3.24467033532806e+005,-1.43545791695710e+001,-7.39678117953441e+000

3.28996424529938e+005,-1.43548876937932e+001,-7.49956300869133e+000

3.33589043469155e+005,-1.43552035254962e+001,-7.60376328879514e+000

3.38245772979638e+005,-1.43555268098476e+001,-7.70940134850877e+000

3.42967508011610e+005,-1.43558576938729e+001,-7.81649677799924e+000

3.47755156008335e+005,-1.43561963264568e+001,-7.92506943275280e+000

3.52609637080511e+005,-1.43565428583447e+001,-8.03513943746557e+000

3.57531884183106e+005,-1.43568974421467e+001,-8.14672719001010e+000

3.62522843294651e+005,-1.43572602323417e+001,-8.25985336547908e+000

3.67583473599047e+005,-1.43576313852849e+001,-8.37453892031030e+000

3.72714747669902e+005,-1.43580110592159e+001,-8.49080509649064e+000

3.77917651657445e+005,-1.43583994142698e+001,-8.60867342584340e+000

3.83193185478053e+005,-1.43587966124911e+001,-8.72816573439974e+000

3.88542363006410e+005,-1.43592028178503e+001,-8.84930414685508e+000

3.93966212270369e+005,-1.43596181962635e+001,-8.97211109111199e+000

3.99465775648511e+005,-1.43600429156166e+001,-9.09660930291058e+000

4.05042110070485e+005,-1.43604771457923e+001,-9.22282183054886e+000

4.10696287220124e+005,-1.43609210587026e+001,-9.35077203969093e+000

4.16429393741414e+005,-1.43613748283250e+001,-9.48048361826887e+000

4.22242531447321e+005,-1.43618386307454e+001,-9.61198058147286e+000

4.28136817531551e+005,-1.43623126442050e+001,-9.74528727683661e+000

4.34113384783250e+005,-1.43627970491542e+001,-9.88042838941328e+000

4.40173381804713e+005,-1.43632920283130e+001,-1.00174289470463e+001

4.46317973232124e+005,-1.43637977667379e+001,-1.01563143257322e+001

4.52548339959385e+005,-1.43643144518967e+001,-1.02971102550778e+001

4.58865679365059e+005,-1.43648422737509e+001,-1.04398428238509e+001

4.65271205542494e+005,-1.43653814248462e+001,-1.05845384856236e+001

4.71766149533147e+005,-1.43659321004127e+001,-1.07312240645084e+001

4.78351759563174e+005,-1.43664944984736e+001,-1.08799267609873e+001

4.85029301283321e+005,-1.43670688199638e+001,-1.10306741578314e+001

4.91800058012158e+005,-1.43676552688591e+001,-1.11834942261112e+001

4.98665330982714e+005,-1.43682540523158e+001,-1.13384153312959e+001

5.05626439592555e+005,-1.43688653808219e+001,-1.14954662394411e+001

5.12684721657352e+005,-1.43694894683591e+001,-1.16546761234625e+001

5.19841533667984e+005,-1.43701265325783e+001,-1.18160745694937e+001

5.27098251051240e+005,-1.43707767949858e+001,-1.19796915833278e+001

5.34456268434150e+005,-1.43714404811443e+001,-1.21455575969384e+001

5.41916999912011e+005,-1.43721178208857e+001,-1.23137034750793e+001

