Freq.,VOut,OutRef

1.00000000000000e+004,-1.13946095852801e+001,-5.17189225212084e-002

1.01395947979003e+004,-1.13946098695179e+001,-5.24408672892664e-002

1.02811382665607e+004,-1.13946101617442e+001,-5.31728889904505e-002

1.04246576084112e+004,-1.13946104621832e+001,-5.39151282498109e-002

1.05701804056138e+004,-1.13946107710658e+001,-5.46677276529177e-002

1.07177346253629e+004,-1.13946110886287e+001,-5.54308317769368e-002

1.08673486252606e+004,-1.13946114151163e+001,-5.62045872081022e-002

1.10190511587661e+004,-1.13946117507795e+001,-5.69891425811145e-002

1.11728713807222e+004,-1.13946120958752e+001,-5.77846486081826e-002

1.13288388529580e+004,-1.13946124506692e+001,-5.85912580926885e-002

1.14869835499703e+004,-1.13946128154335e+001,-5.94091259766647e-002

1.16473358646846e+004,-1.13946131904483e+001,-6.02384093592246e-002

1.18099266142953e+004,-1.13946135760014e+001,-6.10792675320280e-002

1.19747870461893e+004,-1.13946139723890e+001,-6.19318620038843e-002

1.21419488439505e+004,-1.13946143799153e+001,-6.27963565398967e-002

1.23114441334492e+004,-1.13946147988932e+001,-6.36729171843936e-002

1.24833054890161e+004,-1.13946152296441e+001,-6.45617123004479e-002

1.26575659397028e+004,-1.13946156724990e+001,-6.54629125938684e-002

1.28342589756290e+004,-1.13946161277977e+001,-6.63766911522702e-002

1.30134185544193e+004,-1.13946165958895e+001,-6.73032234777382e-002

1.31950791077289e+004,-1.13946170771339e+001,-6.82426875148553e-002

1.33792755478611e+004,-1.13946175719004e+001,-6.91952636894639e-002

1.35660432744767e+004,-1.13946180805682e+001,-7.01611349461202e-002

1.37554181813974e+004,-1.13946186035281e+001,-7.11404867738743e-002

1.39474366635040e+004,-1.13946191411810e+001,-7.21335072507785e-002

1.41421356237309e+004,-1.13946196939400e+001,-7.31403870703897e-002

1.43395524801583e+004,-1.13946202622288e+001,-7.41613195904745e-002

1.45397251732031e+004,-1.13946208464837e+001,-7.51965008576714e-002

1.47426921729110e+004,-1.13946214471525e+001,-7.62461296554651e-002

1.49484924863494e+004,-1.13946220646965e+001,-7.73104075300391e-002

1.51571656651040e+004,-1.13946226995894e+001,-7.83895388408251e-002

1.53687518128801e+004,-1.13946233523179e+001,-7.94837307936690e-002

1.55832915932100e+004,-1.13946240233830e+001,-8.05931934786110e-002

1.58008262372675e+004,-1.13946247132991e+001,-8.17181399154782e-002

1.60213975517924e+004,-1.13946254225954e+001,-8.28587860888108e-002

1.62450479271247e+004,-1.13946261518160e+001,-8.40153509903972e-002

1.64718203453514e+004,-1.13946269015200e+001,-8.51880566646560e-002

1.67017583885674e+004,-1.13946276722821e+001,-8.63771282479110e-002

1.69349062472505e+004,-1.13946284646937e+001,-8.75827940089181e-002

1.71713087287550e+004,-1.13946292793617e+001,-8.88052853993026e-002

1.74110112659224e+004,-1.13946301169110e+001,-9.00448370887967e-002

1.76540599258131e+004,-1.13946309779835e+001,-9.13016870181487e-002

1.79005014185594e+004,-1.13946318632392e+001,-9.25760764370507e-002

1.81503831063432e+004,-1.13946327733566e+001,-9.38682499560201e-002

1.84037530124975e+004,-1.13946337090333e+001,-9.51784555886766e-002

1.86606598307361e+004,-1.13946346709860e+001,-9.65069448029095e-002

1.89211529345119e+004,-1.13946356599519e+001,-9.78539725632402e-002

1.91852823865052e+004,-1.13946366766888e+001,-9.92197973833900e-002

1.94530989482457e+004,-1.13946377219753e+001,-1.00604681376309e-001

1.97246540898671e+004,-1.13946387966123e+001,-1.02008890298298e-001

1.99999999999999e+004,-1.13946399014227e+001,-1.03432693605979e-001

2.02791895958005e+004,-1.13946410372528e+001,-1.04876364500218e-001

2.05622765331213e+004,-1.13946422049722e+001,-1.06340179986608e-001

2.08493152168224e+004,-1.13946434054750e+001,-1.07824420920408e-001

2.11403608112276e+004,-1.13946446396803e+001,-1.09329372062917e-001

2.14354692507258e+004,-1.13946459085326e+001,-1.10855322136617e-001

2.17346972505211e+004,-1.13946472130035e+001,-1.12402563875165e-001

2.20381023175322e+004,-1.13946485540911e+001,-1.13971394084571e-001

2.23457427614443e+004,-1.13946499328216e+001,-1.15562113694795e-001

2.26576777059159e+004,-1.13946513502497e+001,-1.17175027819878e-001

2.29739670999406e+004,-1.13946528074599e+001,-1.18810445812260e-001

2.32946717293690e+004,-1.13946543055669e+001,-1.20468681322936e-001

2.36198532285905e+004,-1.13946558457160e+001,-1.22150052364047e-001

2.39495740923785e+004,-1.13946574290853e+001,-1.23854881359290e-001

2.42838976879009e+004,-1.13946590568851e+001,-1.25583495215538e-001

2.46228882668982e+004,-1.13946607303599e+001,-1.27336225377791e-001

2.49666109780322e+004,-1.13946624507888e+001,-1.29113407893175e-001

2.53151318794055e+004,-1.13946642194863e+001,-1.30915383474452e-001

2.56685179512580e+004,-1.13946660378039e+001,-1.32742497565312e-001

2.60268371088386e+004,-1.13946679071306e+001,-1.34595100402584e-001

2.63901582154578e+004,-1.13946698288941e+001,-1.36473547083131e-001

2.67585510957221e+004,-1.13946718045621e+001,-1.38378197629992e-001

2.71320865489533e+004,-1.13946738356429e+001,-1.40309417063443e-001

2.75108363627948e+004,-1.13946759236870e+001,-1.42267575462936e-001

2.78948733270080e+004,-1.13946780702879e+001,-1.44253048043510e-001

2.82842712474618e+004,-1.13946802770836e+001,-1.46266215219334e-001

2.86791049603164e+004,-1.13946825457576e+001,-1.48307462678957e-001

2.90794503464061e+004,-1.13946848780402e+001,-1.50377181458179e-001

2.94853843458219e+004,-1.13946872757100e+001,-1.52475768007966e-001

2.98969849726987e+004,-1.13946897405950e+001,-1.54603624273798e-001

3.03143313302078e+004,-1.13946922745735e+001,-1.56761157768899e-001

3.07375036257601e+004,-1.13946948795768e+001,-1.58948781647216e-001

3.11665831864199e+004,-1.13946975575892e+001,-1.61166914785135e-001

3.16016524745350e+004,-1.13947003106505e+001,-1.63415981854903e-001

3.20427951035848e+004,-1.13947031408569e+001,-1.65696413407564e-001

3.24900958542493e+004,-1.13947060503628e+001,-1.68008645948504e-001

3.29436406907028e+004,-1.13947090413822e+001,-1.70353122022674e-001

3.34035167771346e+004,-1.13947121161908e+001,-1.72730290293453e-001

3.38698124945009e+004,-1.13947152771271e+001,-1.75140605626114e-001

3.43426174575100e+004,-1.13947185265944e+001,-1.77584529172594e-001

3.48220225318448e+004,-1.13947218670629e+001,-1.80062528456270e-001

3.53081198516260e+004,-1.13947253010703e+001,-1.82575077460725e-001

3.58010028371187e+004,-1.13947288312256e+001,-1.85122656709268e-001

3.63007662126863e+004,-1.13947324602093e+001,-1.87705753362585e-001

3.68075060249948e+004,-1.13947361907759e+001,-1.90324861303776e-001

3.73213196614721e+004,-1.13947400257563e+001,-1.92980481227474e-001

3.78423058690237e+004,-1.13947439680594e+001,-1.95673120735931e-001

3.83705647730104e+004,-1.13947480206746e+001,-1.98403294425906e-001

3.89061978964912e+004,-1.13947521866735e+001,-2.01171523988732e-001

3.94493081797342e+004,-1.13947564692122e+001,-2.03978338303491e-001

3.99999999999998e+004,-1.13947608715344e+001,-2.06824273529419e-001

4.05583791916010e+004,-1.13947653969725e+001,-2.09709873209820e-001

4.11245530662425e+004,-1.13947700489510e+001,-2.12635688366304e-001

4.16986304336447e+004,-1.13947748309882e+001,-2.15602277600313e-001

4.22807216224550e+004,-1.13947797466994e+001,-2.18610207193986e-001

4.28709385014515e+004,-1.13947847997992e+001,-2.21660051211808e-001

4.34693945010421e+004,-1.13947899941039e+001,-2.24752391607463e-001

4.40762046350642e+004,-1.13947953335351e+001,-2.27887818320804e-001

4.46914855228886e+004,-1.13948008221209e+001,-2.31066929395149e-001

4.53153554118317e+004,-1.13948064640006e+001,-2.34290331074991e-001

4.59479341998812e+004,-1.13948122634266e+001,-2.37558637917856e-001

4.65893434587380e+004,-1.13948182247673e+001,-2.40872472905600e-001

4.72397064571810e+004,-1.13948243525109e+001,-2.44232467554082e-001

4.78991481847569e+004,-1.13948306512677e+001,-2.47639262026288e-001

4.85677953758016e+004,-1.13948371257742e+001,-2.51093505243589e-001

4.92457765337964e+004,-1.13948437808958e+001,-2.54595855004535e-001

4.99332219560642e+004,-1.13948506216304e+001,-2.58146978098015e-001

5.06302637588109e+004,-1.13948576531122e+001,-2.61747550422023e-001

5.13370359025159e+004,-1.13948648806144e+001,-2.65398257104002e-001

5.20536742176771e+004,-1.13948723095541e+001,-2.69099792618039e-001

5.27803164309155e+004,-1.13948799454949e+001,-2.72852860908514e-001

5.35171021914442e+004,-1.13948877941511e+001,-2.76658175514080e-001

5.42641730979066e+004,-1.13948958613923e+001,-2.80516459687724e-001

5.50216727255895e+004,-1.13949041532464e+001,-2.84428446527262e-001

5.57897466540159e+004,-1.13949126759041e+001,-2.88394879099511e-001

5.65685424949235e+004,-1.13949214357238e+001,-2.92416510567129e-001

5.73582099206328e+004,-1.13949304392343e+001,-2.96494104324296e-001

5.81589006928121e+004,-1.13949396931410e+001,-3.00628434119975e-001

5.89707686916437e+004,-1.13949492043291e+001,-3.04820284196663e-001

5.97939699453972e+004,-1.13949589798689e+001,-3.09070449419152e-001

6.06286626604156e+004,-1.13949690270203e+001,-3.13379735412855e-001

6.14750072515201e+004,-1.13949793532375e+001,-3.17748958699929e-001

6.23331663728396e+004,-1.13949899661742e+001,-3.22178946835306e-001

6.32033049490698e+004,-1.13950008736883e+001,-3.26670538548047e-001

6.40855902071694e+004,-1.13950120838474e+001,-3.31224583878943e-001

6.49801917084985e+004,-1.13950236049336e+001,-3.35841944325915e-001

6.58872813814055e+004,-1.13950354454495e+001,-3.40523492983873e-001

6.68070335542691e+004,-1.13950476141231e+001,-3.45270114691396e-001

6.77396249890018e+004,-1.13950601199137e+001,-3.50082706175748e-001

6.86852349150199e+004,-1.13950729720174e+001,-3.54962176200810e-001

6.96440450636895e+004,-1.13950861798733e+001,-3.59909445712748e-001

7.06162397032520e+004,-1.13950997531689e+001,-3.64925447995484e-001

7.16020056742374e+004,-1.13951137018467e+001,-3.70011128815256e-001

7.26015324253724e+004,-1.13951280361101e+001,-3.75167446577103e-001

7.36150120499896e+004,-1.13951427664298e+001,-3.80395372478341e-001

7.46426393229441e+004,-1.13951579035502e+001,-3.85695890660193e-001

7.56846117380472e+004,-1.13951734584958e+001,-3.91069998369575e-001

7.67411295460207e+004,-1.13951894425784e+001,-3.96518706110080e-001

7.78123957929823e+004,-1.13952058674031e+001,-4.02043037806570e-001

7.88986163594682e+004,-1.13952227448758e+001,-4.07644030960578e-001

7.99999999999995e+004,-1.13952400872100e+001,-4.13322736814191e-001

8.11167583832018e+004,-1.13952579069343e+001,-4.19080220508483e-001

8.22491061324848e+004,-1.13952762168991e+001,-4.24917561253334e-001

8.33972608672892e+004,-1.13952950302844e+001,-4.30835852484380e-001

8.45614432449099e+004,-1.13953143606075e+001,-4.36836202033149e-001

8.57418770029029e+004,-1.13953342217299e+001,-4.42919732294223e-001

8.69387890020841e+004,-1.13953546278658e+001,-4.49087580388815e-001

8.81524092701283e+004,-1.13953755935897e+001,-4.55340898337475e-001

8.93829710457770e+004,-1.13953971338444e+001,-4.61680853227043e-001

9.06307108236633e+004,-1.13954192639487e+001,-4.68108627383174e-001

9.18958683997622e+004,-1.13954419996064e+001,-4.74625418540947e-001

9.31786869174758e+004,-1.13954653569140e+001,-4.81232440015948e-001

9.44794129143618e+004,-1.13954893523690e+001,-4.87930920881110e-001

9.57982963695136e+004,-1.13955140028790e+001,-4.94722106137091e-001

9.71355907516031e+004,-1.13955393257698e+001,-5.01607256888721e-001

9.84915530675926e+004,-1.13955653387939e+001,-5.08587650522029e-001

9.98664439121282e+004,-1.13955920601400e+001,-5.15664580877619e-001

1.01260527517622e+005,-1.13956195084411e+001,-5.22839358429368e-001

1.02674071805032e+005,-1.13956477027836e+001,-5.30113310462477e-001

1.04107348435354e+005,-1.13956766627166e+001,-5.37487781250149e-001

1.05560632861831e+005,-1.13957064082604e+001,-5.44964132233753e-001

1.07034204382888e+005,-1.13957369599158e+001,-5.52543742202039e-001

1.08528346195813e+005,-1.13957683386732e+001,-5.60228007468165e-001

1.10043345451179e+005,-1.13958005660218e+001,-5.68018342052912e-001

1.11579493308032e+005,-1.13958336639587e+001,-5.75916177863138e-001

1.13137084989847e+005,-1.13958676549977e+001,-5.83922964873584e-001

1.14716419841265e+005,-1.13959025621790e+001,-5.92040171306199e-001

1.16317801385624e+005,-1.13959384090779e+001,-6.00269283812972e-001

1.17941537383287e+005,-1.13959752198141e+001,-6.08611807655103e-001

1.19587939890794e+005,-1.13960130190606e+001,-6.17069266886074e-001

1.21257325320831e+005,-1.13960518320529e+001,-6.25643204531359e-001

1.22950014503040e+005,-1.13960916845974e+001,-6.34335182771223e-001

1.24666332745679e+005,-1.13961326030812e+001,-6.43146783119516e-001

1.26406609898139e+005,-1.13961746144796e+001,-6.52079606606705e-001

1.28171180414339e+005,-1.13962177463652e+001,-6.61135273960489e-001

1.29960383416997e+005,-1.13962620269166e+001,-6.70315425785440e-001

1.31774562762811e+005,-1.13963074849259e+001,-6.79621722743627e-001

1.33614067108538e+005,-1.13963541498076e+001,-6.89055845734077e-001

1.35479249978003e+005,-1.13964020516056e+001,-6.98619496072711e-001

1.37370469830040e+005,-1.13964512210009e+001,-7.08314395672688e-001

1.39288090127379e+005,-1.13965016893194e+001,-7.18142287220555e-001

1.41232479406504e+005,-1.13965534885381e+001,-7.28104934356093e-001

1.43204011348474e+005,-1.13966066512922e+001,-7.38204121848571e-001

1.45203064850745e+005,-1.13966612108810e+001,-7.48441655775440e-001

1.47230024099979e+005,-1.13967172012741e+001,-7.58819363696892e-001

1.49285278645888e+005,-1.13967746571165e+001,-7.69339094833068e-001

1.51369223476094e+005,-1.13968336137334e+001,-7.80002720238546e-001

1.53482259092041e+005,-1.13968941071351e+001,-7.90812132975478e-001

1.55624791585964e+005,-1.13969561740198e+001,-8.01769248291084e-001

1.57797232718936e+005,-1.13970198517784e+001,-8.12876003785387e-001

1.59999999999999e+005,-1.13970851784955e+001,-8.24134359588533e-001

1.62233516766403e+005,-1.13971521929520e+001,-8.35546298530762e-001

1.64498212264969e+005,-1.13972209346265e+001,-8.47113826312720e-001

1.66794521734578e+005,-1.13972914436952e+001,-8.58838971677247e-001

1.69122886489819e+005,-1.13973637610313e+001,-8.70723786580594e-001

1.71483754005805e+005,-1.13974379282042e+001,-8.82770346359715e-001

1.73877578004168e+005,-1.13975139874767e+001,-8.94980749904471e-001

1.76304818540256e+005,-1.13975919818016e+001,-9.07357119824966e-001

1.78765942091554e+005,-1.13976719548177e+001,-9.19901602620425e-001

1.81261421647326e+005,-1.13977539508440e+001,-9.32616368850563e-001

1.83791736799524e+005,-1.13978380148726e+001,-9.45503613301964e-001

1.86357373834951e+005,-1.13979241925616e+001,-9.58565555159111e-001

1.88958825828723e+005,-1.13980125302248e+001,-9.71804438174197e-001

1.91596592739027e+005,-1.13981030748216e+001,-9.85222530837540e-001

1.94271181503206e+005,-1.13981958739444e+001,-9.98822126549780e-001

1.96983106135185e+005,-1.13982909758052e+001,-1.01260554379291e+000

1.99732887824256e+005,-1.13983884292202e+001,-1.02657512630600e+000

2.02521055035243e+005,-1.13984882835924e+001,-1.04073324326066e+000

2.05348143610063e+005,-1.13985905888935e+001,-1.05508228943957e+000

2.08214696870707e+005,-1.13986953956424e+001,-1.06962468541512e+000

2.11121265723661e+005,-1.13988027548833e+001,-1.08436287773514e+000

2.14068408765776e+005,-1.13989127181608e+001,-1.09929933910755e+000

2.17056692391625e+005,-1.13990253374934e+001,-1.11443656859229e+000

2.20086690902357e+005,-1.13991406653449e+001,-1.12977709179352e+000

2.23158986616063e+005,-1.13992587545925e+001,-1.14532346106224e+000

2.26274169979693e+005,-1.13993796584946e+001,-1.16107825569810e+000

2.29432839682530e+005,-1.13995034306541e+001,-1.17704408216210e+000

2.32635602771247e+005,-1.13996301249807e+001,-1.19322357429175e+000

2.35883074766574e+005,-1.13997597956496e+001,-1.20961939352878e+000

2.39175879781588e+005,-1.13998924970586e+001,-1.22623422914925e+000

2.42514650641661e+005,-1.14000282837815e+001,-1.24307079850566e+000

2.45900029006080e+005,-1.14001672105195e+001,-1.26013184728015e+000

2.49332665491357e+005,-1.14003093320487e+001,-1.27742014974460e+000

2.52813219796278e+005,-1.14004547031664e+001,-1.29493850903468e+000

2.56342360828676e+005,-1.14006033786323e+001,-1.31268975743640e+000

2.59920766833993e+005,-1.14007554131088e+001,-1.33067675668505e+000

2.63549125525621e+005,-1.14009108610960e+001,-1.34890239828118e+000

2.67228134217075e+005,-1.14010697768657e+001,-1.36736960381747e+000

2.70958499956006e+005,-1.14012322143904e+001,-1.38608132533006e+000

2.74740939660078e+005,-1.14013982272704e+001,-1.40504054566070e+000

2.78576180254757e+005,-1.14015678686567e+001,-1.42425027884265e+000

2.82464958813007e+005,-1.14017411911710e+001,-1.44371357050689e+000

2.86408022696948e+005,-1.14019182468228e+001,-1.46343349830981e+000

2.90406129701488e+005,-1.14020990869223e+001,-1.48341317238435e+000

2.94460048199957e+005,-1.14022837619905e+001,-1.50365573581742e+000

2.98570557291775e+005,-1.14024723216663e+001,-1.52416436515336e+000

3.02738446952187e+005,-1.14026648146100e+001,-1.54494227092422e+000

3.06964518184081e+005,-1.14028612884028e+001,-1.56599269821440e+000

3.11249583171928e+005,-1.14030617894451e+001,-1.58731892724955e+000

3.15594465437872e+005,-1.14032663628499e+001,-1.60892427402534e+000

3.19999999999997e+005,-1.14034750523333e+001,-1.63081209096824e+000

3.24467033532806e+005,-1.14036879001034e+001,-1.65298576763128e+000

3.28996424529938e+005,-1.14039049467450e+001,-1.67544873142998e+000

3.33589043469155e+005,-1.14041262311022e+001,-1.69820444841897e+000

3.38245772979638e+005,-1.14043517901582e+001,-1.72125642410794e+000

3.42967508011610e+005,-1.14045816589129e+001,-1.74460820432217e+000

3.47755156008335e+005,-1.14048158702580e+001,-1.76826337610903e+000

3.52609637080511e+005,-1.14050544548506e+001,-1.79222556868838e+000

3.57531884183106e+005,-1.14052974409843e+001,-1.81649845445583e+000

3.62522843294651e+005,-1.14055448544591e+001,-1.84108575003205e+000

3.67583473599047e+005,-1.14057967184496e+001,-1.86599121736594e+000

3.72714747669902e+005,-1.14060530533731e+001,-1.89121866489034e+000

3.77917651657445e+005,-1.14063138767553e+001,-1.91677194873352e+000

3.83193185478053e+005,-1.14065792030970e+001,-1.94265497398421e+000

3.88542363006410e+005,-1.14068490437403e+001,-1.96887169601651e+000

3.93966212270369e+005,-1.14071234067339e+001,-1.99542612187380e+000

3.99465775648511e+005,-1.14074022967010e+001,-2.02232231170857e+000

4.05042110070485e+005,-1.14076857147059e+001,-2.04956438028839e+000

4.10696287220124e+005,-1.14079736581241e+001,-2.07715649855862e+000

4.16429393741414e+005,-1.14082661205122e+001,-2.10510289526987e+000

4.22242531447321e+005,-1.14085630914815e+001,-2.13340785866922e+000

4.28136817531551e+005,-1.14088645565734e+001,-2.16207573825103e+000

4.34113384783250e+005,-1.14091704971383e+001,-2.19111094657569e+000

4.40173381804713e+005,-1.14094808902177e+001,-2.22051796114872e+000

4.46317973232124e+005,-1.14097957084309e+001,-2.25030132636388e+000

4.52548339959385e+005,-1.14101149198654e+001,-2.28046565551026e+000

4.58865679365059e+005,-1.14104384879732e+001,-2.31101563284181e+000

4.65271205542494e+005,-1.14107663714719e+001,-2.34195601570686e+000

4.71766149533147e+005,-1.14110985242524e+001,-2.37329163673906e+000

4.78351759563174e+005,-1.14114348952925e+001,-2.40502740610899e+000

4.85029301283321e+005,-1.14117754285778e+001,-2.43716831383204e+000

4.91800058012158e+005,-1.14121200630302e+001,-2.46971943213312e+000

4.98665330982714e+005,-1.14124687324439e+001,-2.50268591786526e+000

5.05626439592555e+005,-1.14128213654301e+001,-2.53607301498067e+000

5.12684721657352e+005,-1.14131778853704e+001,-2.56988605705088e+000

5.19841533667984e+005,-1.14135382103798e+001,-2.60413046983328e+000

5.27098251051240e+005,-1.14139022532782e+001,-2.63881177388393e+000

5.34456268434150e+005,-1.14142699215736e+001,-2.67393558720666e+000

5.41916999912011e+005,-1.14146411174542e+001,-2.70950762794509e+000

