Freq.,VOut,OutRef

1.00000000000000e+004,-2.15815896572740e+001,-2.16344782944923e-001

1.01395947979003e+004,-2.15815904855505e+001,-2.19364812663233e-001

1.02811382665607e+004,-2.15815913371102e+001,-2.22426999113176e-001

1.04246576084112e+004,-2.15815922126072e+001,-2.25531930725472e-001

1.05701804056138e+004,-2.15815931127146e+001,-2.28680204141220e-001

1.07177346253629e+004,-2.15815940381239e+001,-2.31872424329796e-001

1.08673486252606e+004,-2.15815949895463e+001,-2.35109204702515e-001

1.10190511587661e+004,-2.15815959677130e+001,-2.38391167229384e-001

1.11728713807222e+004,-2.15815969733755e+001,-2.41718942562144e-001

1.13288388529580e+004,-2.15815980073067e+001,-2.45093170151743e-001

1.14869835499703e+004,-2.15815990703011e+001,-2.48514498372902e-001

1.16473358646846e+004,-2.15816001631755e+001,-2.51983584648507e-001

1.18099266142953e+004,-2.15816012867695e+001,-2.55501095575572e-001

1.19747870461893e+004,-2.15816024419467e+001,-2.59067707051992e-001

1.21419488439505e+004,-2.15816036295944e+001,-2.62684104408764e-001

1.23114441334492e+004,-2.15816048506256e+001,-2.66350982537337e-001

1.24833054890161e+004,-2.15816061059781e+001,-2.70069046029933e-001

1.26575659397028e+004,-2.15816073966166e+001,-2.73839009305738e-001

1.28342589756290e+004,-2.15816087235327e+001,-2.77661596755906e-001

1.30134185544193e+004,-2.15816100877459e+001,-2.81537542877733e-001

1.31950791077289e+004,-2.15816114903044e+001,-2.85467592417909e-001

1.33792755478611e+004,-2.15816129322856e+001,-2.89452500514817e-001

1.35660432744767e+004,-2.15816144147975e+001,-2.93493032841747e-001

1.37554181813974e+004,-2.15816159389790e+001,-2.97589965756007e-001

1.39474366635040e+004,-2.15816175060011e+001,-3.01744086447707e-001

1.41421356237309e+004,-2.15816191170676e+001,-3.05956193089755e-001

1.43395524801583e+004,-2.15816207734161e+001,-3.10227094990350e-001

1.45397251732031e+004,-2.15816224763192e+001,-3.14557612749859e-001

1.47426921729110e+004,-2.15816242270848e+001,-3.18948578417221e-001

1.49484924863494e+004,-2.15816260270580e+001,-3.23400835649584e-001

1.51571656651040e+004,-2.15816278776213e+001,-3.27915239874350e-001

1.53687518128801e+004,-2.15816297801963e+001,-3.32492658452902e-001

1.55832915932100e+004,-2.15816317362444e+001,-3.37133970847065e-001

1.58008262372675e+004,-2.15816337472679e+001,-3.41840068787248e-001

1.60213975517924e+004,-2.15816358148116e+001,-3.46611856444204e-001

1.62450479271247e+004,-2.15816379404635e+001,-3.51450250601267e-001

1.64718203453514e+004,-2.15816401258561e+001,-3.56356180830817e-001

1.67017583885674e+004,-2.15816423726678e+001,-3.61330589673661e-001

1.69349062472505e+004,-2.15816446826243e+001,-3.66374432815665e-001

1.71713087287550e+004,-2.15816470574995e+001,-3.71488679275979e-001

1.74110112659224e+004,-2.15816494991173e+001,-3.76674311587980e-001

1.76540599258131e+004,-2.15816520093526e+001,-3.81932325992323e-001

1.79005014185594e+004,-2.15816545901330e+001,-3.87263732622711e-001

1.81503831063432e+004,-2.15816572434404e+001,-3.92669555703278e-001

1.84037530124975e+004,-2.15816599713122e+001,-3.98150833742096e-001

1.86606598307361e+004,-2.15816627758428e+001,-4.03708619733424e-001

1.89211529345119e+004,-2.15816656591855e+001,-4.09343981355715e-001

1.91852823865052e+004,-2.15816686235542e+001,-4.15058001177407e-001

1.94530989482457e+004,-2.15816716712248e+001,-4.20851776865026e-001

1.97246540898671e+004,-2.15816748045371e+001,-4.26726421392271e-001

1.99999999999999e+004,-2.15816780258966e+001,-4.32683063253092e-001

2.02791895958005e+004,-2.15816813377760e+001,-4.38722846679076e-001

2.05622765331213e+004,-2.15816847427178e+001,-4.44846931856896e-001

2.08493152168224e+004,-2.15816882433356e+001,-4.51056495149702e-001

2.11403608112276e+004,-2.15816918423165e+001,-4.57352729323942e-001

2.14354692507258e+004,-2.15816955424226e+001,-4.63736843778207e-001

2.17346972505211e+004,-2.15816993464940e+001,-4.70210064770900e-001

2.20381023175322e+004,-2.15817032574500e+001,-4.76773635658510e-001

2.23457427614443e+004,-2.15817072782921e+001,-4.83428817130959e-001

2.26576777059159e+004,-2.15817114121059e+001,-4.90176887454032e-001

2.29739670999406e+004,-2.15817156620634e+001,-4.97019142714402e-001

2.32946717293690e+004,-2.15817200314256e+001,-5.03956897063973e-001

2.36198532285905e+004,-2.15817245235452e+001,-5.10991482975130e-001

2.39495740923785e+004,-2.15817291418685e+001,-5.18124251492255e-001

2.42838976879009e+004,-2.15817338899388e+001,-5.25356572492243e-001

2.46228882668982e+004,-2.15817387713985e+001,-5.32689834943821e-001

2.49666109780322e+004,-2.15817437899920e+001,-5.40125447175573e-001

2.53151318794055e+004,-2.15817489495690e+001,-5.47664837142367e-001

2.56685179512580e+004,-2.15817542540869e+001,-5.55309452698542e-001

2.60268371088386e+004,-2.15817597076139e+001,-5.63060761875499e-001

2.63901582154578e+004,-2.15817653143324e+001,-5.70920253161089e-001

2.67585510957221e+004,-2.15817710785420e+001,-5.78889435782146e-001

2.71320865489533e+004,-2.15817770046625e+001,-5.86969839995968e-001

2.75108363627948e+004,-2.15817830972377e+001,-5.95163017379050e-001

2.78948733270080e+004,-2.15817893609388e+001,-6.03470541123311e-001

2.82842712474618e+004,-2.15817958005678e+001,-6.11894006337354e-001

2.86791049603164e+004,-2.15818024210608e+001,-6.20435030350551e-001

2.90794503464061e+004,-2.15818092274927e+001,-6.29095253019086e-001

2.94853843458219e+004,-2.15818162250801e+001,-6.37876337040814e-001

2.98969849726987e+004,-2.15818234191856e+001,-6.46779968271284e-001

3.03143313302078e+004,-2.15818308153225e+001,-6.55807856042687e-001

3.07375036257601e+004,-2.15818384191577e+001,-6.64961733492855e-001

3.11665831864199e+004,-2.15818462365170e+001,-6.74243357893104e-001

3.16016524745350e+004,-2.15818542733894e+001,-6.83654510981724e-001

3.20427951035848e+004,-2.15818625359311e+001,-6.93196999305651e-001

3.24900958542493e+004,-2.15818710304710e+001,-7.02872654560183e-001

3.29436406907028e+004,-2.15818797635145e+001,-7.12683333941397e-001

3.34035167771346e+004,-2.15818887417493e+001,-7.22630920496250e-001

3.38698124945009e+004,-2.15818979720500e+001,-7.32717323481326e-001

3.43426174575100e+004,-2.15819074614834e+001,-7.42944478724853e-001

3.48220225318448e+004,-2.15819172173139e+001,-7.53314348995982e-001

3.53081198516260e+004,-2.15819272470090e+001,-7.63828924374982e-001

3.58010028371187e+004,-2.15819375582447e+001,-7.74490222632556e-001

3.63007662126863e+004,-2.15819481589117e+001,-7.85300289611847e-001

3.68075060249948e+004,-2.15819590571210e+001,-7.96261199616924e-001

3.73213196614721e+004,-2.15819702612102e+001,-8.07375055804600e-001

3.78423058690237e+004,-2.15819817797498e+001,-8.18643990584936e-001

3.83705647730104e+004,-2.15819936215494e+001,-8.30070166023560e-001

3.89061978964912e+004,-2.15820057956648e+001,-8.41655774251166e-001

3.94493081797342e+004,-2.15820183114045e+001,-8.53403037879186e-001

3.99999999999998e+004,-2.15820311783365e+001,-8.65314210419466e-001

4.05583791916010e+004,-2.15820444062961e+001,-8.77391576710093e-001

4.11245530662425e+004,-2.15820580053927e+001,-8.89637453348443e-001

4.16986304336447e+004,-2.15820719860178e+001,-9.02054189127000e-001

4.22807216224550e+004,-2.15820863588523e+001,-9.14644165479000e-001

4.28709385014515e+004,-2.15821011348752e+001,-9.27409796925730e-001

4.34693945010421e+004,-2.15821163253714e+001,-9.40353531533026e-001

4.40762046350642e+004,-2.15821319419400e+001,-9.53477851373432e-001

4.46914855228886e+004,-2.15821479965034e+001,-9.66785272991894e-001

4.53153554118317e+004,-2.15821645013157e+001,-9.80278347882595e-001

4.59479341998812e+004,-2.15821814689726e+001,-9.93959662966183e-001

4.65893434587380e+004,-2.15821989124200e+001,-1.00783184107808e+000

4.72397064571810e+004,-2.15822168449641e+001,-1.02189754146201e+000

4.78991481847569e+004,-2.15822352802812e+001,-1.03615946026795e+000

4.85677953758016e+004,-2.15822542324281e+001,-1.05062033106016e+000

4.92457765337964e+004,-2.15822737158522e+001,-1.06528292532885e+000

4.99332219560642e+004,-2.15822937454022e+001,-1.08015005301107e+000

5.06302637588109e+004,-2.15823143363398e+001,-1.09522456301616e+000

5.13370359025159e+004,-2.15823355043501e+001,-1.11050934375952e+000

5.20536742176771e+004,-2.15823572655540e+001,-1.12600732370470e+000

5.27803164309155e+004,-2.15823796365194e+001,-1.14172147190889e+000

5.35171021914442e+004,-2.15824026342744e+001,-1.15765479857892e+000

5.42641730979066e+004,-2.15824262763188e+001,-1.17381035563349e+000

5.50216727255895e+004,-2.15824505806379e+001,-1.19019123727153e+000

5.57897466540159e+004,-2.15824755657152e+001,-1.20680058055091e+000

5.65685424949235e+004,-2.15825012505463e+001,-1.22364156597137e+000

5.73582099206328e+004,-2.15825276546526e+001,-1.24071741806671e+000

5.81589006928121e+004,-2.15825547980962e+001,-1.25803140600410e+000

5.89707686916437e+004,-2.15825827014936e+001,-1.27558684419334e+000

5.97939699453972e+004,-2.15826113860320e+001,-1.29338709289974e+000

6.06286626604156e+004,-2.15826408734839e+001,-1.31143555886906e+000

6.14750072515201e+004,-2.15826711862234e+001,-1.32973569595755e+000

6.23331663728396e+004,-2.15827023472424e+001,-1.34829100577203e+000

6.32033049490698e+004,-2.15827343801673e+001,-1.36710503831724e+000

6.40855902071694e+004,-2.15827673092764e+001,-1.38618139265153e+000

6.49801917084985e+004,-2.15828011595173e+001,-1.40552371755038e+000

6.58872813814055e+004,-2.15828359565250e+001,-1.42513571218036e+000

6.68070335542691e+004,-2.15828717266407e+001,-1.44502112677875e+000

6.77396249890018e+004,-2.15829084969305e+001,-1.46518376334448e+000

6.86852349150199e+004,-2.15829462952051e+001,-1.48562747633559e+000

6.96440450636895e+004,-2.15829851500398e+001,-1.50635617337729e+000

7.06162397032520e+004,-2.15830250907951e+001,-1.52737381597726e+000

7.16020056742374e+004,-2.15830661476374e+001,-1.54868442025166e+000

7.26015324253724e+004,-2.15831083515613e+001,-1.57029205765810e+000

7.36150120499896e+004,-2.15831517344111e+001,-1.59220085573989e+000

7.46426393229441e+004,-2.15831963289036e+001,-1.61441499887777e+000

7.56846117380472e+004,-2.15832421686518e+001,-1.63693872905193e+000

7.67411295460207e+004,-2.15832892881883e+001,-1.65977634661403e+000

7.78123957929823e+004,-2.15833377229900e+001,-1.68293221106634e+000

7.88986163594682e+004,-2.15833875095031e+001,-1.70641074185271e+000

7.99999999999995e+004,-2.15834386851688e+001,-1.73021641915910e+000

8.11167583832018e+004,-2.15834912884497e+001,-1.75435378472156e+000

8.22491061324848e+004,-2.15835453588567e+001,-1.77882744264708e+000

8.33972608672892e+004,-2.15836009369769e+001,-1.80364206024332e+000

8.45614432449099e+004,-2.15836580645015e+001,-1.82880236885524e+000

8.57418770029029e+004,-2.15837167842551e+001,-1.85431316471802e+000

8.69387890020841e+004,-2.15837771402257e+001,-1.88017930981428e+000

8.81524092701283e+004,-2.15838391775946e+001,-1.90640573274394e+000

8.93829710457770e+004,-2.15839029427680e+001,-1.93299742960560e+000

9.06307108236633e+004,-2.15839684834087e+001,-1.95995946488655e+000

9.18958683997622e+004,-2.15840358484692e+001,-1.98729697236223e+000

9.31786869174758e+004,-2.15841050882247e+001,-2.01501515601068e+000

9.44794129143618e+004,-2.15841762543078e+001,-2.04311929093201e+000

9.57982963695136e+004,-2.15842493997433e+001,-2.07161472428251e+000

9.71355907516031e+004,-2.15843245789842e+001,-2.10050687621888e+000

9.84915530675926e+004,-2.15844018479487e+001,-2.12980124085143e+000

9.98664439121282e+004,-2.15844812640576e+001,-2.15950338721076e+000

1.01260527517622e+005,-2.15845628862726e+001,-2.18961896022370e+000

1.02674071805032e+005,-2.15846467751361e+001,-2.22015368170172e+000

1.04107348435354e+005,-2.15847329928113e+001,-2.25111335133823e+000

1.05560632861831e+005,-2.15848216031231e+001,-2.28250384772059e+000

1.07034204382888e+005,-2.15849126716008e+001,-2.31433112935020e+000

1.08528346195813e+005,-2.15850062655205e+001,-2.34660123567589e+000

1.10043345451179e+005,-2.15851024539497e+001,-2.37932028813774e+000

1.11579493308032e+005,-2.15852013077919e+001,-2.41249449122383e+000

1.13137084989847e+005,-2.15853028998328e+001,-2.44613013353689e+000

1.14716419841265e+005,-2.15854073047870e+001,-2.48023358887384e+000

1.16317801385624e+005,-2.15855145993466e+001,-2.51481131731617e+000

1.17941537383287e+005,-2.15856248622296e+001,-2.54986986633360e+000

1.19587939890794e+005,-2.15857381742302e+001,-2.58541587189808e+000

1.21257325320831e+005,-2.15858546182700e+001,-2.62145605961106e+000

1.22950014503040e+005,-2.15859742794503e+001,-2.65799724584094e+000

1.24666332745679e+005,-2.15860972451050e+001,-2.69504633887585e+000

1.26406609898139e+005,-2.15862236048556e+001,-2.73261034008468e+000

1.28171180414339e+005,-2.15863534506661e+001,-2.77069634509345e+000

1.29960383416997e+005,-2.15864868769000e+001,-2.80931154497327e+000

1.31774562762811e+005,-2.15866239803780e+001,-2.84846322743929e+000

1.33614067108538e+005,-2.15867648604367e+001,-2.88815877806439e+000

1.35479249978003e+005,-2.15869096189889e+001,-2.92840568150365e+000

1.37370469830040e+005,-2.15870583605848e+001,-2.96921152273205e+000

1.39288090127379e+005,-2.15872111924742e+001,-3.01058398829575e+000

1.41232479406504e+005,-2.15873682246705e+001,-3.05253086757494e+000

1.43204011348474e+005,-2.15875295700148e+001,-3.09506005406034e+000

1.45203064850745e+005,-2.15876953442427e+001,-3.13817954664208e+000

1.47230024099979e+005,-2.15878656660508e+001,-3.18189745091315e+000

1.49285278645888e+005,-2.15880406571656e+001,-3.22622198048398e+000

1.51369223476094e+005,-2.15882204424129e+001,-3.27116145831203e+000

1.53482259092041e+005,-2.15884051497886e+001,-3.31672431804426e+000

1.55624791585964e+005,-2.15885949105309e+001,-3.36291910537233e+000

1.57797232718936e+005,-2.15887898591937e+001,-3.40975447940373e+000

1.59999999999999e+005,-2.15889901337213e+001,-3.45723921404324e+000

1.62233516766403e+005,-2.15891958755235e+001,-3.50538219939235e+000

1.64498212264969e+005,-2.15894072295539e+001,-3.55419244315898e+000

1.66794521734578e+005,-2.15896243443869e+001,-3.60367907208513e+000

1.69122886489819e+005,-2.15898473722984e+001,-3.65385133338445e+000

1.71483754005805e+005,-2.15900764693457e+001,-3.70471859620020e+000

1.73877578004168e+005,-2.15903117954504e+001,-3.75629035307181e+000

1.76304818540256e+005,-2.15905535144810e+001,-3.80857622142156e+000

1.78765942091554e+005,-2.15908017943381e+001,-3.86158594505302e+000

1.81261421647326e+005,-2.15910568070398e+001,-3.91532939566727e+000

1.83791736799524e+005,-2.15913187288090e+001,-3.96981657439299e+000

1.86357373834951e+005,-2.15915877401614e+001,-4.02505761333361e+000

1.88958825828723e+005,-2.15918640259957e+001,-4.08106277713053e+000

1.91596592739027e+005,-2.15921477756838e+001,-4.13784246454253e+000

1.94271181503206e+005,-2.15924391831631e+001,-4.19540721004209e+000

1.96983106135185e+005,-2.15927384470297e+001,-4.25376768542984e+000

1.99732887824256e+005,-2.15930457706331e+001,-4.31293470146449e+000

2.02521055035243e+005,-2.15933613621716e+001,-4.37291920951333e+000

2.05348143610063e+005,-2.15936854347897e+001,-4.43373230321852e+000

2.08214696870707e+005,-2.15940182066761e+001,-4.49538522018460e+000

2.11121265723661e+005,-2.15943599011631e+001,-4.55788934368327e+000

2.14068408765776e+005,-2.15947107468273e+001,-4.62125620437901e+000

2.17056692391625e+005,-2.15950709775916e+001,-4.68549748207470e+000

2.20086690902357e+005,-2.15954408328285e+001,-4.75062500747797e+000

2.23158986616063e+005,-2.15958205574641e+001,-4.81665076398918e+000

2.26274169979693e+005,-2.15962104020842e+001,-4.88358688951152e+000

2.29432839682530e+005,-2.15966106230409e+001,-4.95144567828340e+000

2.32635602771247e+005,-2.15970214825613e+001,-5.02023958273424e+000

2.35883074766574e+005,-2.15974432488567e+001,-5.08998121536496e+000

2.39175879781588e+005,-2.15978761962335e+001,-5.16068335065288e+000

2.42514650641661e+005,-2.15983206052054e+001,-5.23235892698225e+000

2.45900029006080e+005,-2.15987767626075e+001,-5.30502104860138e+000

2.49332665491357e+005,-2.15992449617107e+001,-5.37868298760736e+000

2.52813219796278e+005,-2.15997255023389e+001,-5.45335818595847e+000

2.56342360828676e+005,-2.16002186909864e+001,-5.52906025751677e+000

2.59920766833993e+005,-2.16007248409383e+001,-5.60580299011999e+000

2.63549125525621e+005,-2.16012442723910e+001,-5.68360034768516e+000

2.67228134217075e+005,-2.16017773125760e+001,-5.76246647234500e+000

2.70958499956006e+005,-2.16023242958843e+001,-5.84241568661619e+000

2.74740939660078e+005,-2.16028855639929e+001,-5.92346249560483e+000

2.78576180254757e+005,-2.16034614659942e+001,-6.00562158924464e+000

2.82464958813007e+005,-2.16040523585264e+001,-6.08890784457465e+000

2.86408022696948e+005,-2.16046586059064e+001,-6.17333632805393e+000

2.90406129701488e+005,-2.16052805802658e+001,-6.25892229791536e+000

2.94460048199957e+005,-2.16059186616885e+001,-6.34568120656164e+000

2.98570557291775e+005,-2.16065732383514e+001,-6.43362870300205e+000

3.02738446952187e+005,-2.16072447066683e+001,-6.52278063533311e+000

3.06964518184081e+005,-2.16079334714361e+001,-6.61315305326414e+000

3.11249583171928e+005,-2.16086399459851e+001,-6.70476221068924e+000

3.15594465437872e+005,-2.16093645523323e+001,-6.79762456830554e+000

3.19999999999997e+005,-2.16101077213388e+001,-6.89175679628173e+000

3.24467033532806e+005,-2.16108698928710e+001,-6.98717577697594e+000

3.28996424529938e+005,-2.16116515159661e+001,-7.08389860770607e+000

3.33589043469155e+005,-2.16124530490026e+001,-7.18194260357135e+000

3.38245772979638e+005,-2.16132749598757e+001,-7.28132530032958e+000

3.42967508011610e+005,-2.16141177261773e+001,-7.38206445732919e+000

3.47755156008335e+005,-2.16149818353831e+001,-7.48417806049797e+000

3.52609637080511e+005,-2.16158677850446e+001,-7.58768432538887e+000

3.57531884183106e+005,-2.16167760829878e+001,-7.69260170028590e+000

3.62522843294651e+005,-2.16177072475198e+001,-7.79894886936850e+000

3.67583473599047e+005,-2.16186618076415e+001,-7.90674475593748e+000

3.72714747669902e+005,-2.16196403032695e+001,-8.01600852570106e+000

3.77917651657445e+005,-2.16206432854654e+001,-8.12675959012546e+000

3.83193185478053e+005,-2.16216713166748e+001,-8.23901760984540e+000

3.88542363006410e+005,-2.16227249709757e+001,-8.35280249813967e+000

3.93966212270369e+005,-2.16238048343369e+001,-8.46813442446877e+000

3.99465775648511e+005,-2.16249115048873e+001,-8.58503381807646e+000

4.05042110070485e+005,-2.16260455931962e+001,-8.70352137165536e+000

4.10696287220124e+005,-2.16272077225669e+001,-8.82361804507321e+000

4.16429393741414e+005,-2.16283985293409e+001,-8.94534506916419e+000

4.22242531447321e+005,-2.16296186632178e+001,-9.06872394958024e+000

4.28136817531551e+005,-2.16308687875877e+001,-9.19377647070369e+000

4.34113384783250e+005,-2.16321495798790e+001,-9.32052469961910e+000

4.40173381804713e+005,-2.16334617319222e+001,-9.44899099014319e+000

4.46317973232124e+005,-2.16348059503289e+001,-9.57919798691068e+000

4.52548339959385e+005,-2.16361829568895e+001,-9.71116862951426e+000

4.58865679365059e+005,-2.16375934889873e+001,-9.84492615669617e+000

4.65271205542494e+005,-2.16390383000318e+001,-9.98049411058852e+000

4.71766149533147e+005,-2.16405181599119e+001,-1.01178963409993e+001

4.78351759563174e+005,-2.16420338554684e+001,-1.02571570097416e+001

4.85029301283321e+005,-2.16435861909880e+001,-1.03983005950005e+001

4.91800058012158e+005,-2.16451759887190e+001,-1.05413518957346e+001

4.98665330982714e+005,-2.16468040894090e+001,-1.06863360361092e+001

5.05626439592555e+005,-2.16484713528668e+001,-1.08332784699525e+001

5.12684721657352e+005,-2.16501786585467e+001,-1.09822049852343e+001

5.19841533667984e+005,-2.16519269061593e+001,-1.11331417085569e+001

5.27098251051240e+005,-2.16537170163056e+001,-1.12861151096576e+001

5.34456268434150e+005,-2.16555499311387e+001,-1.14411520059109e+001

5.41916999912011e+005,-2.16574266150512e+001,-1.15982795668286e+001

