Freq.,VOut,OutRef

1.00000000000000e+004,-1.20241019637061e+001,-2.05115029087835e-001

1.01395947979003e+004,-1.20241020349741e+001,-2.07978316963646e-001

1.02811382665607e+004,-1.20241021082444e+001,-2.10881574372041e-001

1.04246576084112e+004,-1.20241021835730e+001,-2.13825359247350e-001

1.05701804056138e+004,-1.20241022610180e+001,-2.16810237309188e-001

1.07177346253629e+004,-1.20241023406387e+001,-2.19836782176513e-001

1.08673486252606e+004,-1.20241024224960e+001,-2.22905575472996e-001

1.10190511587661e+004,-1.20241025066529e+001,-2.26017206940819e-001

1.11728713807222e+004,-1.20241025931739e+001,-2.29172274552990e-001

1.13288388529580e+004,-1.20241026821253e+001,-2.32371384630423e-001

1.14869835499703e+004,-1.20241027735753e+001,-2.35615151956224e-001

1.16473358646846e+004,-1.20241028675942e+001,-2.38904199892233e-001

1.18099266142953e+004,-1.20241029642538e+001,-2.42239160504945e-001

1.19747870461893e+004,-1.20241030636285e+001,-2.45620674679742e-001

1.21419488439505e+004,-1.20241031657942e+001,-2.49049392248850e-001

1.23114441334492e+004,-1.20241032708295e+001,-2.52525972112255e-001

1.24833054890161e+004,-1.20241033788147e+001,-2.56051082369631e-001

1.26575659397028e+004,-1.20241034898328e+001,-2.59625400443184e-001

1.28342589756290e+004,-1.20241036039686e+001,-2.63249613210738e-001

1.30134185544193e+004,-1.20241037213097e+001,-2.66924417137059e-001

1.31950791077289e+004,-1.20241038419460e+001,-2.70650518407340e-001

1.33792755478611e+004,-1.20241039659700e+001,-2.74428633062512e-001

1.35660432744767e+004,-1.20241040934766e+001,-2.78259487138552e-001

1.37554181813974e+004,-1.20241042245636e+001,-2.82143816803403e-001

1.39474366635040e+004,-1.20241043593312e+001,-2.86082368500757e-001

1.41421356237309e+004,-1.20241044978829e+001,-2.90075899090684e-001

1.43395524801583e+004,-1.20241046403246e+001,-2.94125175997829e-001

1.45397251732031e+004,-1.20241047867656e+001,-2.98230977355981e-001

1.47426921729110e+004,-1.20241049373177e+001,-3.02394092161715e-001

1.49484924863494e+004,-1.20241050920963e+001,-3.06615320419800e-001

1.51571656651040e+004,-1.20241052512200e+001,-3.10895473302446e-001

1.53687518128801e+004,-1.20241054148104e+001,-3.15235373301441e-001

1.55832915932100e+004,-1.20241055829927e+001,-3.19635854388417e-001

1.58008262372675e+004,-1.20241057558957e+001,-3.24097762173689e-001

1.60213975517924e+004,-1.20241059336517e+001,-3.28621954067895e-001

1.62450479271247e+004,-1.20241061163965e+001,-3.33209299449168e-001

1.64718203453514e+004,-1.20241063042701e+001,-3.37860679826527e-001

1.67017583885674e+004,-1.20241064974161e+001,-3.42576989012868e-001

1.69349062472505e+004,-1.20241066959821e+001,-3.47359133294339e-001

1.71713087287550e+004,-1.20241069001198e+001,-3.52208031604308e-001

1.74110112659224e+004,-1.20241071099856e+001,-3.57124615699156e-001

1.76540599258131e+004,-1.20241073257397e+001,-3.62109830339823e-001

1.79005014185594e+004,-1.20241075475469e+001,-3.67164633471041e-001

1.81503831063432e+004,-1.20241077755766e+001,-3.72289996405574e-001

1.84037530124975e+004,-1.20241080100033e+001,-3.77486904009138e-001

1.86606598307361e+004,-1.20241082510058e+001,-3.82756354894080e-001

1.89211529345119e+004,-1.20241084987682e+001,-3.88099361604498e-001

1.91852823865052e+004,-1.20241087534796e+001,-3.93516950817627e-001

1.94530989482457e+004,-1.20241090153345e+001,-3.99010163533036e-001

1.97246540898671e+004,-1.20241092845328e+001,-4.04580055279952e-001

1.99999999999999e+004,-1.20241095612796e+001,-4.10227696315927e-001

2.02791895958005e+004,-1.20241098457864e+001,-4.15954171830496e-001

2.05622765331213e+004,-1.20241101382700e+001,-4.21760582157970e-001

2.08493152168224e+004,-1.20241104389533e+001,-4.27648042985841e-001

2.11403608112276e+004,-1.20241107480658e+001,-4.33617685567627e-001

2.14354692507258e+004,-1.20241110658428e+001,-4.39670656944038e-001

2.17346972505211e+004,-1.20241113925267e+001,-4.45808120157407e-001

2.20381023175322e+004,-1.20241117283661e+001,-4.52031254480128e-001

2.23457427614443e+004,-1.20241120736170e+001,-4.58341255637543e-001

2.26576777059159e+004,-1.20241124285420e+001,-4.64739336038842e-001

2.29739670999406e+004,-1.20241127934115e+001,-4.71226725008530e-001

2.32946717293690e+004,-1.20241131685030e+001,-4.77804669023059e-001

2.36198532285905e+004,-1.20241135541020e+001,-4.84474431948707e-001

2.39495740923785e+004,-1.20241139505015e+001,-4.91237295286601e-001

2.42838976879009e+004,-1.20241143580030e+001,-4.98094558414746e-001

2.46228882668982e+004,-1.20241147769162e+001,-5.05047538839928e-001

2.49666109780322e+004,-1.20241152075594e+001,-5.12097572448783e-001

2.53151318794055e+004,-1.20241156502597e+001,-5.19246013765367e-001

2.56685179512580e+004,-1.20241161053532e+001,-5.26494236209735e-001

2.60268371088386e+004,-1.20241165731853e+001,-5.33843632361027e-001

2.63901582154578e+004,-1.20241170541110e+001,-5.41295614225265e-001

2.67585510957221e+004,-1.20241175484950e+001,-5.48851613505220e-001

2.71320865489533e+004,-1.20241180567122e+001,-5.56513081875674e-001

2.75108363627948e+004,-1.20241185791476e+001,-5.64281491260435e-001

2.78948733270080e+004,-1.20241191161971e+001,-5.72158334115103e-001

2.82842712474618e+004,-1.20241196682673e+001,-5.80145123712875e-001

2.86791049603164e+004,-1.20241202357761e+001,-5.88243394435079e-001

2.90794503464061e+004,-1.20241208191529e+001,-5.96454702063574e-001

2.94853843458219e+004,-1.20241214188387e+001,-6.04780624080534e-001

2.98969849726987e+004,-1.20241220352870e+001,-6.13222759969495e-001

3.03143313302078e+004,-1.20241226689634e+001,-6.21782731521767e-001

3.07375036257601e+004,-1.20241233203465e+001,-6.30462183147265e-001

3.11665831864199e+004,-1.20241239899278e+001,-6.39262782189503e-001

3.16016524745350e+004,-1.20241246782126e+001,-6.48186219244054e-001

3.20427951035848e+004,-1.20241253857196e+001,-6.57234208483451e-001

3.24900958542493e+004,-1.20241261129820e+001,-6.66408487984840e-001

3.29436406907028e+004,-1.20241268605477e+001,-6.75710820060926e-001

3.34035167771346e+004,-1.20241276289792e+001,-6.85142991600093e-001

3.38698124945009e+004,-1.20241284188546e+001,-6.94706814406131e-001

3.43426174575100e+004,-1.20241292307675e+001,-7.04404125546708e-001

3.48220225318448e+004,-1.20241300653281e+001,-7.14236787703166e-001

3.53081198516260e+004,-1.20241309231629e+001,-7.24206689526576e-001

3.58010028371187e+004,-1.20241318049155e+001,-7.34315746002018e-001

3.63007662126863e+004,-1.20241327112469e+001,-7.44565898810730e-001

3.68075060249948e+004,-1.20241336428363e+001,-7.54959116703682e-001

3.73213196614721e+004,-1.20241346003811e+001,-7.65497395878102e-001

3.78423058690237e+004,-1.20241355845976e+001,-7.76182760357973e-001

3.83705647730104e+004,-1.20241365962215e+001,-7.87017262382040e-001

3.89061978964912e+004,-1.20241376360086e+001,-7.98002982793654e-001

3.94493081797342e+004,-1.20241387047346e+001,-8.09142031442374e-001

3.99999999999998e+004,-1.20241398031966e+001,-8.20436547583217e-001

4.05583791916010e+004,-1.20241409322130e+001,-8.31888700286765e-001

4.11245530662425e+004,-1.20241420926242e+001,-8.43500688853733e-001

4.16986304336447e+004,-1.20241432852931e+001,-8.55274743234480e-001

4.22807216224550e+004,-1.20241445111059e+001,-8.67213124454515e-001

4.28709385014515e+004,-1.20241457709723e+001,-8.79318125046623e-001

4.34693945010421e+004,-1.20241470658266e+001,-8.91592069487846e-001

4.40762046350642e+004,-1.20241483966279e+001,-9.04037314643959e-001

4.46914855228886e+004,-1.20241497643610e+001,-9.16656250216367e-001

4.53153554118317e+004,-1.20241511700368e+001,-9.29451299201778e-001

4.59479341998812e+004,-1.20241526146930e+001,-9.42424918352038e-001

4.65893434587380e+004,-1.20241540993951e+001,-9.55579598641656e-001

4.72397064571810e+004,-1.20241556252365e+001,-9.68917865744996e-001

4.78991481847569e+004,-1.20241571933398e+001,-9.82442280515352e-001

4.85677953758016e+004,-1.20241588048571e+001,-9.96155439474080e-001

4.92457765337964e+004,-1.20241604609709e+001,-1.01005997530481e+000

4.99332219560642e+004,-1.20241621628947e+001,-1.02415855735485e+000

5.06302637588109e+004,-1.20241639118739e+001,-1.03845389214382e+000

5.13370359025159e+004,-1.20241657091866e+001,-1.05294872387743e+000

5.20536742176771e+004,-1.20241675561442e+001,-1.06764583497138e+000

5.27803164309155e+004,-1.20241694540923e+001,-1.08254804657944e+000

5.35171021914442e+004,-1.20241714044115e+001,-1.09765821913072e+000

5.42641730979066e+004,-1.20241734085183e+001,-1.11297925287340e+000

5.50216727255895e+004,-1.20241754678656e+001,-1.12851408842516e+000

5.57897466540159e+004,-1.20241775839443e+001,-1.14426570733342e+000

5.65685424949235e+004,-1.20241797582833e+001,-1.16023713264047e+000

5.73582099206328e+004,-1.20241819924509e+001,-1.17643142945871e+000

5.81589006928121e+004,-1.20241842880554e+001,-1.19285170555155e+000

5.89707686916437e+004,-1.20241866467466e+001,-1.20950111192394e+000

5.97939699453972e+004,-1.20241890702158e+001,-1.22638284341946e+000

6.06286626604156e+004,-1.20241915601977e+001,-1.24350013932678e+000

6.14750072515201e+004,-1.20241941184704e+001,-1.26085628399490e+000

6.23331663728396e+004,-1.20241967468573e+001,-1.27845460745287e+000

6.32033049490698e+004,-1.20241994472272e+001,-1.29629848604407e+000

6.40855902071694e+004,-1.20242022214962e+001,-1.31439134306275e+000

6.49801917084985e+004,-1.20242050716278e+001,-1.33273664940433e+000

6.58872813814055e+004,-1.20242079996344e+001,-1.35133792422059e+000

6.68070335542691e+004,-1.20242110075782e+001,-1.37019873558703e+000

6.77396249890018e+004,-1.20242140975724e+001,-1.38932270117681e+000

6.86852349150199e+004,-1.20242172717819e+001,-1.40871348894403e+000

6.96440450636895e+004,-1.20242205324246e+001,-1.42837481781781e+000

7.06162397032520e+004,-1.20242238817724e+001,-1.44831045840438e+000

7.16020056742374e+004,-1.20242273221521e+001,-1.46852423369883e+000

7.26015324253724e+004,-1.20242308559467e+001,-1.48902001980597e+000

7.36150120499896e+004,-1.20242344855963e+001,-1.50980174667285e+000

7.46426393229441e+004,-1.20242382135991e+001,-1.53087339882830e+000

7.56846117380472e+004,-1.20242420425127e+001,-1.55223901613454e+000

7.67411295460207e+004,-1.20242459749548e+001,-1.57390269454787e+000

7.78123957929823e+004,-1.20242500136047e+001,-1.59586858689006e+000

7.88986163594682e+004,-1.20242541612040e+001,-1.61814090362863e+000

7.99999999999995e+004,-1.20242584205576e+001,-1.64072391367101e+000

8.11167583832018e+004,-1.20242627945353e+001,-1.66362194516465e+000

8.22491061324848e+004,-1.20242672860720e+001,-1.68683938631095e+000

8.33972608672892e+004,-1.20242718981693e+001,-1.71038068619023e+000

8.45614432449099e+004,-1.20242766338964e+001,-1.73425035559467e+000

8.57418770029029e+004,-1.20242814963908e+001,-1.75845296787714e+000

8.69387890020841e+004,-1.20242864888595e+001,-1.78299315980521e+000

8.81524092701283e+004,-1.20242916145801e+001,-1.80787563243243e+000

8.93829710457770e+004,-1.20242968769010e+001,-1.83310515197797e+000

9.06307108236633e+004,-1.20243022792431e+001,-1.85868655071721e+000

9.18958683997622e+004,-1.20243078251001e+001,-1.88462472788744e+000

9.31786869174758e+004,-1.20243135180394e+001,-1.91092465060205e+000

9.44794129143618e+004,-1.20243193617030e+001,-1.93759135477874e+000

9.57982963695136e+004,-1.20243253598081e+001,-1.96462994607931e+000

9.71355907516031e+004,-1.20243315161473e+001,-1.99204560086275e+000

9.84915530675926e+004,-1.20243378345902e+001,-2.01984356714953e+000

9.98664439121282e+004,-1.20243443190828e+001,-2.04802916559968e+000

1.01260527517622e+005,-1.20243509736486e+001,-2.07660779050327e+000

1.02674071805032e+005,-1.20243578023889e+001,-2.10558491078370e+000

1.04107348435354e+005,-1.20243648094828e+001,-2.13496607101482e+000

1.05560632861831e+005,-1.20243719991876e+001,-2.16475689245107e+000

1.07034204382888e+005,-1.20243793758389e+001,-2.19496307407092e+000

1.08528346195813e+005,-1.20243869438506e+001,-2.22559039363431e+000

1.10043345451179e+005,-1.20243947077145e+001,-2.25664470875401e+000

1.11579493308032e+005,-1.20244026720003e+001,-2.28813195798078e+000

1.13137084989847e+005,-1.20244108413552e+001,-2.32005816190202e+000

1.14716419841265e+005,-1.20244192205032e+001,-2.35242942425735e+000

1.16317801385624e+005,-1.20244278142446e+001,-2.38525193306509e+000

1.17941537383287e+005,-1.20244366274551e+001,-2.41853196176625e+000

1.19587939890794e+005,-1.20244456650846e+001,-2.45227587038325e+000

1.21257325320831e+005,-1.20244549321562e+001,-2.48649010669134e+000

1.22950014503040e+005,-1.20244644337648e+001,-2.52118120740898e+000

1.24666332745679e+005,-1.20244741750751e+001,-2.55635579940072e+000

1.26406609898139e+005,-1.20244841613203e+001,-2.59202060089742e+000

1.28171180414339e+005,-1.20244943977994e+001,-2.62818242273176e+000

1.29960383416997e+005,-1.20245048898756e+001,-2.66484816959003e+000

1.31774562762811e+005,-1.20245156429727e+001,-2.70202484127993e+000

1.33614067108538e+005,-1.20245266625732e+001,-2.73971953401632e+000

1.35479249978003e+005,-1.20245379542141e+001,-2.77793944172172e+000

1.37370469830040e+005,-1.20245495234840e+001,-2.81669185734543e+000

1.39288090127379e+005,-1.20245613760191e+001,-2.85598417419887e+000

1.41232479406504e+005,-1.20245735174987e+001,-2.89582388730906e+000

1.43204011348474e+005,-1.20245859536407e+001,-2.93621859478976e+000

1.45203064850745e+005,-1.20245986901965e+001,-2.97717599923041e+000

1.47230024099979e+005,-1.20246117329454e+001,-3.01870390910321e+000

1.49285278645888e+005,-1.20246250876887e+001,-3.06081024018931e+000

1.51369223476094e+005,-1.20246387602435e+001,-3.10350301702303e+000

1.53482259092041e+005,-1.20246527564352e+001,-3.14679037435543e+000

1.55624791585964e+005,-1.20246670820905e+001,-3.19068055863731e+000

1.57797232718936e+005,-1.20246817430291e+001,-3.23518192952280e+000

1.59999999999999e+005,-1.20246967450551e+001,-3.28030296139046e+000

1.62233516766403e+005,-1.20247120939478e+001,-3.32605224488741e+000

1.64498212264969e+005,-1.20247277954517e+001,-3.37243848849202e+000

1.66794521734578e+005,-1.20247438552656e+001,-3.41947052009966e+000

1.69122886489819e+005,-1.20247602790320e+001,-3.46715728862647e+000

1.71483754005805e+005,-1.20247770723241e+001,-3.51550786563904e+000

1.73877578004168e+005,-1.20247942406335e+001,-3.56453144700256e+000

1.76304818540256e+005,-1.20248117893565e+001,-3.61423735455238e+000

1.78765942091554e+005,-1.20248297237788e+001,-3.66463503779039e+000

1.81261421647326e+005,-1.20248480490609e+001,-3.71573407560177e+000

1.83791736799524e+005,-1.20248667702211e+001,-3.76754417799648e+000

1.86357373834951e+005,-1.20248858921180e+001,-3.82007518787643e+000

1.88958825828723e+005,-1.20249054194324e+001,-3.87333708282414e+000

1.91596592739027e+005,-1.20249253566473e+001,-3.92733997691985e+000

1.94271181503206e+005,-1.20249457080274e+001,-3.98209412258143e+000

1.96983106135185e+005,-1.20249664775973e+001,-4.03760991243209e+000

1.99732887824256e+005,-1.20249876691181e+001,-4.09389788119395e+000

2.02521055035243e+005,-1.20250092860635e+001,-4.15096870760902e+000

2.05348143610063e+005,-1.20250313315935e+001,-4.20883321638886e+000

2.08214696870707e+005,-1.20250538085279e+001,-4.26750238019033e+000

2.11121265723661e+005,-1.20250767193176e+001,-4.32698732162261e+000

2.14068408765776e+005,-1.20251000660146e+001,-4.38729931528335e+000

2.17056692391625e+005,-1.20251238502404e+001,-4.44844978982471e+000

2.20086690902357e+005,-1.20251480731533e+001,-4.51045033005064e+000

2.23158986616063e+005,-1.20251727354135e+001,-4.57331267904615e+000

2.26274169979693e+005,-1.20251978371467e+001,-4.63704874033932e+000

2.29432839682530e+005,-1.20252233779062e+001,-4.70167058009605e+000

2.32635602771247e+005,-1.20252493566327e+001,-4.76719042935032e+000

2.35883074766574e+005,-1.20252757716130e+001,-4.83362068626756e+000

2.39175879781588e+005,-1.20253026204359e+001,-4.90097391844602e+000

2.42514650641661e+005,-1.20253298999471e+001,-4.96926286525359e+000

2.45900029006080e+005,-1.20253576062012e+001,-5.03850044020339e+000

2.49332665491357e+005,-1.20253857344126e+001,-5.10869973336761e+000

2.52813219796278e+005,-1.20254142789032e+001,-5.17987401383182e+000

2.56342360828676e+005,-1.20254432330490e+001,-5.25203673218956e+000

2.59920766833993e+005,-1.20254725892242e+001,-5.32520152307929e+000

2.63549125525621e+005,-1.20255023387424e+001,-5.39938220776487e+000

2.67228134217075e+005,-1.20255324717968e+001,-5.47459279676004e+000

2.70958499956006e+005,-1.20255629773966e+001,-5.55084749249864e+000

2.74740939660078e+005,-1.20255938433025e+001,-5.62816069205172e+000

2.78576180254757e+005,-1.20256250559591e+001,-5.70654698989254e+000

2.82464958813007e+005,-1.20256566004245e+001,-5.78602118071199e+000

2.86408022696948e+005,-1.20256884602985e+001,-5.86659826228318e+000

2.90406129701488e+005,-1.20257206176476e+001,-5.94829343838026e+000

2.94460048199957e+005,-1.20257530529279e+001,-6.03112212174974e+000

2.98570557291775e+005,-1.20257857449052e+001,-6.11509993713727e+000

3.02738446952187e+005,-1.20258186705731e+001,-6.20024272437162e+000

3.06964518184081e+005,-1.20258518050683e+001,-6.28656654150634e+000

3.11249583171928e+005,-1.20258851215833e+001,-6.37408766802162e+000

3.15594465437872e+005,-1.20259185912777e+001,-6.46282260808802e+000

3.19999999999997e+005,-1.20259521831853e+001,-6.55278809389253e+000

3.24467033532806e+005,-1.20259858641204e+001,-6.64400108903078e+000

3.28996424529938e+005,-1.20260195985812e+001,-6.73647879196429e+000

3.33589043469155e+005,-1.20260533486509e+001,-6.83023863954693e+000

3.38245772979638e+005,-1.20260870738960e+001,-6.92529831062242e+000

3.42967508011610e+005,-1.20261207312640e+001,-7.02167572969063e+000

3.47755156008335e+005,-1.20261542749770e+001,-7.11938907065145e+000

3.52609637080511e+005,-1.20261876564248e+001,-7.21845676062093e+000

3.57531884183106e+005,-1.20262208240555e+001,-7.31889748382630e+000

3.62522843294651e+005,-1.20262537232644e+001,-7.42073018557933e+000

3.67583473599047e+005,-1.20262862962806e+001,-7.52397407633134e+000

3.72714747669902e+005,-1.20263184820533e+001,-7.62864863581008e+000

3.77917651657445e+005,-1.20263502161353e+001,-7.73477361724143e+000

3.83193185478053e+005,-1.20263814305662e+001,-7.84236905165728e+000

3.88542363006410e+005,-1.20264120537536e+001,-7.95145525229218e+000

3.93966212270369e+005,-1.20264420103541e+001,-8.06205281906858e+000

3.99465775648511e+005,-1.20264712211531e+001,-8.17418264317420e+000

4.05042110070485e+005,-1.20264996029435e+001,-8.28786591173326e+000

4.10696287220124e+005,-1.20265270684053e+001,-8.40312411257142e+000

4.16429393741414e+005,-1.20265535259834e+001,-8.51997903907807e+000

4.22242531447321e+005,-1.20265788797665e+001,-8.63845279516617e+000

4.28136817531551e+005,-1.20266030293655e+001,-8.75856780033218e+000

4.34113384783250e+005,-1.20266258697928e+001,-8.88034679481648e+000

4.40173381804713e+005,-1.20266472913421e+001,-9.00381284486656e+000

4.46317973232124e+005,-1.20266671794689e+001,-9.12898934810386e+000

4.52548339959385e+005,-1.20266854146723e+001,-9.25590003899599e+000

4.58865679365059e+005,-1.20267018723785e+001,-9.38456899443440e+000

4.65271205542494e+005,-1.20267164228249e+001,-9.51502063942028e+000

4.71766149533147e+005,-1.20267289309476e+001,-9.64727975285828e+000

4.78351759563174e+005,-1.20267392562700e+001,-9.78137147345941e+000

4.85029301283321e+005,-1.20267472527934e+001,-9.91732130575569e+000

4.91800058012158e+005,-1.20267527688921e+001,-1.00551551262231e+001

4.98665330982714e+005,-1.20267556472091e+001,-1.01948991895193e+001

5.05626439592555e+005,-1.20267557245567e+001,-1.03365801348315e+001

5.12684721657352e+005,-1.20267528318196e+001,-1.04802249923388e+001

5.19841533667984e+005,-1.20267467938623e+001,-1.06258611897869e+001

5.27098251051240e+005,-1.20267374294390e+001,-1.07735165591774e+001

5.34456268434150e+005,-1.20267245511098e+001,-1.09232193435720e+001

5.41916999912011e+005,-1.20267079651588e+001,-1.10749982040085e+001

