Freq.,VOut,OutRef

1.00000000000000e+004,-9.28303186032845e+000,-9.08443433033608e-002

1.01395947979003e+004,-9.28303188668789e+000,-9.21124763612649e-002

1.02811382665607e+004,-9.28303191378776e+000,-9.33983116107856e-002

1.04246576084112e+004,-9.28303194164861e+000,-9.47020961548159e-002

1.05701804056138e+004,-9.28303197029185e+000,-9.60240805431811e-002

1.07177346253629e+004,-9.28303199973942e+000,-9.73645188230091e-002

1.08673486252606e+004,-9.28303203001399e+000,-9.87236685866587e-002

1.10190511587661e+004,-9.28303206113863e+000,-1.00101791023151e-001

1.11728713807222e+004,-9.28303209313732e+000,-1.01499150965543e-001

1.13288388529580e+004,-9.28303212603444e+000,-1.02916016944375e-001

1.14869835499703e+004,-9.28303215985529e+000,-1.04352661237285e-001

1.16473358646846e+004,-9.28303219462548e+000,-1.05809359923832e-001

1.18099266142953e+004,-9.28303223037197e+000,-1.07286392933385e-001

1.19747870461893e+004,-9.28303226712206e+000,-1.08784044104670e-001

1.21419488439505e+004,-9.28303230490377e+000,-1.10302601237855e-001

1.23114441334492e+004,-9.28303234374624e+000,-1.11842356148215e-001

1.24833054890161e+004,-9.28303238367894e+000,-1.13403604726339e-001

1.26575659397028e+004,-9.28303242473251e+000,-1.14986646990714e-001

1.28342589756290e+004,-9.28303246693833e+000,-1.16591787147528e-001

1.30134185544193e+004,-9.28303251032884e+000,-1.18219333646795e-001

1.31950791077289e+004,-9.28303255493698e+000,-1.19869599247134e-001

1.33792755478611e+004,-9.28303260079721e+000,-1.21542901067129e-001

1.35660432744767e+004,-9.28303264794423e+000,-1.23239560656248e-001

1.37554181813974e+004,-9.28303269641446e+000,-1.24959904046961e-001

1.39474366635040e+004,-9.28303274624455e+000,-1.26704261826092e-001

1.41421356237309e+004,-9.28303279747298e+000,-1.28472969189303e-001

1.43395524801583e+004,-9.28303285013872e+000,-1.30266366013909e-001

1.45397251732031e+004,-9.28303290428193e+000,-1.32084796919632e-001

1.47426921729110e+004,-9.28303295994412e+000,-1.33928611334185e-001

1.49484924863494e+004,-9.28303301716751e+000,-1.35798163564291e-001

1.51571656651040e+004,-9.28303307599638e+000,-1.37693812855455e-001

1.53687518128801e+004,-9.28303313647519e+000,-1.39615923473413e-001

1.55832915932100e+004,-9.28303319865008e+000,-1.41564864764429e-001

1.58008262372675e+004,-9.28303326256867e+000,-1.43541011227512e-001

1.60213975517924e+004,-9.28303332827987e+000,-1.45544742587885e-001

1.62450479271247e+004,-9.28303339583351e+000,-1.47576443872552e-001

1.64718203453514e+004,-9.28303346528143e+000,-1.49636505477558e-001

1.67017583885674e+004,-9.28303353667635e+000,-1.51725323250085e-001

1.69349062472505e+004,-9.28303361007265e+000,-1.53843298559431e-001

1.71713087287550e+004,-9.28303368552664e+000,-1.55990838373695e-001

1.74110112659224e+004,-9.28303376309554e+000,-1.58168355343587e-001

1.76540599258131e+004,-9.28303384283845e+000,-1.60376267875589e-001

1.79005014185594e+004,-9.28303392481614e+000,-1.62615000214579e-001

1.81503831063432e+004,-9.28303400909097e+000,-1.64884982525889e-001

1.84037530124975e+004,-9.28303409572735e+000,-1.67186650974680e-001

1.86606598307361e+004,-9.28303418479096e+000,-1.69520447815157e-001

1.89211529345119e+004,-9.28303427634978e+000,-1.71886821469672e-001

1.91852823865052e+004,-9.28303437047321e+000,-1.74286226619731e-001

1.94530989482457e+004,-9.28303446723310e+000,-1.76719124287514e-001

1.97246540898671e+004,-9.28303456670275e+000,-1.79185981931000e-001

1.99999999999999e+004,-9.28303466895780e+000,-1.81687273528339e-001

2.02791895958005e+004,-9.28303477407596e+000,-1.84223479670402e-001

2.05622765331213e+004,-9.28303488213713e+000,-1.86795087652989e-001

2.08493152168224e+004,-9.28303499322339e+000,-1.89402591570403e-001

2.11403608112276e+004,-9.28303510741874e+000,-1.92046492412757e-001

2.14354692507258e+004,-9.28303522481025e+000,-1.94727298154435e-001

2.17346972505211e+004,-9.28303534548667e+000,-1.97445523861031e-001

2.20381023175322e+004,-9.28303546953943e+000,-2.00201691781815e-001

2.23457427614443e+004,-9.28303559706255e+000,-2.02996331451899e-001

2.26576777059159e+004,-9.28303572815287e+000,-2.05829979790822e-001

2.29739670999406e+004,-9.28303586290940e+000,-2.08703181212243e-001

2.32946717293690e+004,-9.28303600143412e+000,-2.11616487721878e-001

2.36198532285905e+004,-9.28303614383194e+000,-2.14570459024740e-001

2.39495740923785e+004,-9.28303629021039e+000,-2.17565662635197e-001

2.42838976879009e+004,-9.28303644068030e+000,-2.20602673980905e-001

2.46228882668982e+004,-9.28303659535501e+000,-2.23682076519057e-001

2.49666109780322e+004,-9.28303675435166e+000,-2.26804461841442e-001

2.53151318794055e+004,-9.28303691778995e+000,-2.29970429793916e-001

2.56685179512580e+004,-9.28303708579324e+000,-2.33180588587300e-001

2.60268371088386e+004,-9.28303725848820e+000,-2.36435554915003e-001

2.63901582154578e+004,-9.28303743600477e+000,-2.39735954072422e-001

2.67585510957221e+004,-9.28303761847689e+000,-2.43082420073053e-001

2.71320865489533e+004,-9.28303780604163e+000,-2.46475595774941e-001

2.75108363627948e+004,-9.28303799884029e+000,-2.49916132998954e-001

2.78948733270080e+004,-9.28303819701749e+000,-2.53404692658016e-001

2.82842712474618e+004,-9.28303840072225e+000,-2.56941944879256e-001

2.86791049603164e+004,-9.28303861010749e+000,-2.60528569134759e-001

2.90794503464061e+004,-9.28303882533003e+000,-2.64165254372717e-001

2.94853843458219e+004,-9.28303904655141e+000,-2.67852699144912e-001

2.98969849726987e+004,-9.28303927393725e+000,-2.71591611745198e-001

3.03143313302078e+004,-9.28303950765774e+000,-2.75382710341692e-001

3.07375036257601e+004,-9.28303974788776e+000,-2.79226723115543e-001

3.11665831864199e+004,-9.28303999480659e+000,-2.83124388401257e-001

3.16016524745350e+004,-9.28304024859873e+000,-2.87076454824659e-001

3.20427951035848e+004,-9.28304050945362e+000,-2.91083681447932e-001

3.24900958542493e+004,-9.28304077756550e+000,-2.95146837916601e-001

3.29436406907028e+004,-9.28304105313421e+000,-2.99266704602396e-001

3.34035167771346e+004,-9.28304133636473e+000,-3.03444072756044e-001

3.38698124945009e+004,-9.28304162746759e+000,-3.07679744656803e-001

3.43426174575100e+004,-9.28304192665902e+000,-3.11974533765694e-001

3.48220225318448e+004,-9.28304223416090e+000,-3.16329264881858e-001

3.53081198516260e+004,-9.28304255020116e+000,-3.20744774298573e-001

3.58010028371187e+004,-9.28304287501382e+000,-3.25221909964062e-001

3.63007662126863e+004,-9.28304320883909e+000,-3.29761531642919e-001

3.68075060249948e+004,-9.28304355192359e+000,-3.34364511080047e-001

3.73213196614721e+004,-9.28304390452043e+000,-3.39031732168153e-001

3.78423058690237e+004,-9.28304426688943e+000,-3.43764091114977e-001

3.83705647730104e+004,-9.28304463929759e+000,-3.48562496613237e-001

3.89061978964912e+004,-9.28304502201843e+000,-3.53427870018563e-001

3.94493081797342e+004,-9.28304541533300e+000,-3.58361145519979e-001

3.99999999999998e+004,-9.28304581952982e+000,-3.63363270320099e-001

4.05583791916010e+004,-9.28304623490477e+000,-3.68435204816128e-001

4.11245530662425e+004,-9.28304666176169e+000,-3.73577922781774e-001

4.16986304336447e+004,-9.28304710041214e+000,-3.78792411554446e-001

4.22807216224550e+004,-9.28304755117595e+000,-3.84079672221327e-001

4.28709385014515e+004,-9.28304801438127e+000,-3.89440719810982e-001

4.34693945010421e+004,-9.28304849036489e+000,-3.94876583485462e-001

4.40762046350642e+004,-9.28304897947194e+000,-4.00388306739301e-001

4.46914855228886e+004,-9.28304948205683e+000,-4.05976947594570e-001

4.53153554118317e+004,-9.28304999848310e+000,-4.11643578802371e-001

4.59479341998812e+004,-9.28305052912334e+000,-4.17389288050560e-001

4.65893434587380e+004,-9.28305107436004e+000,-4.23215178164761e-001

4.72397064571810e+004,-9.28305163458517e+000,-4.29122367323720e-001

4.78991481847569e+004,-9.28305221020092e+000,-4.35111989267230e-001

4.85677953758016e+004,-9.28305280161958e+000,-4.41185193513782e-001

4.92457765337964e+004,-9.28305340926380e+000,-4.47343145579266e-001

4.99332219560642e+004,-9.28305403356715e+000,-4.53587027195116e-001

5.06302637588109e+004,-9.28305467497371e+000,-4.59918036537466e-001

5.13370359025159e+004,-9.28305533393911e+000,-4.66337388449070e-001

5.20536742176771e+004,-9.28305601093016e+000,-4.72846314673202e-001

5.27803164309155e+004,-9.28305670642518e+000,-4.79446064086486e-001

5.35171021914442e+004,-9.28305742091450e+000,-4.86137902934430e-001

5.42641730979066e+004,-9.28305815490051e+000,-4.92923115072439e-001

5.50216727255895e+004,-9.28305890889774e+000,-4.99803002208968e-001

5.57897466540159e+004,-9.28305968343375e+000,-5.06778884149116e-001

5.65685424949235e+004,-9.28306047904842e+000,-5.13852099049116e-001

5.73582099206328e+004,-9.28306129629504e+000,-5.21024003665754e-001

5.81589006928121e+004,-9.28306213574019e+000,-5.28295973612921e-001

5.89707686916437e+004,-9.28306299796395e+000,-5.35669403623661e-001

5.97939699453972e+004,-9.28306388356026e+000,-5.43145707811811e-001

6.06286626604156e+004,-9.28306479313707e+000,-5.50726319940026e-001

6.14750072515201e+004,-9.28306572731689e+000,-5.58412693688467e-001

6.23331663728396e+004,-9.28306668673667e+000,-5.66206302930921e-001

6.32033049490698e+004,-9.28306767204804e+000,-5.74108642012629e-001

6.40855902071694e+004,-9.28306868391788e+000,-5.82121226030272e-001

6.49801917084985e+004,-9.28306972302849e+000,-5.90245591117275e-001

6.58872813814055e+004,-9.28307079007750e+000,-5.98483294735010e-001

6.68070335542691e+004,-9.28307188577847e+000,-6.06835915963845e-001

6.77396249890018e+004,-9.28307301086087e+000,-6.15305055801153e-001

6.86852349150199e+004,-9.28307416607047e+000,-6.23892337461004e-001

6.96440450636895e+004,-9.28307535216962e+000,-6.32599406679336e-001

7.06162397032520e+004,-9.28307656993718e+000,-6.41427932023596e-001

7.16020056742374e+004,-9.28307782016907e+000,-6.50379605204247e-001

7.26015324253724e+004,-9.28307910367806e+000,-6.59456141394386e-001

7.36150120499896e+004,-9.28308042129436e+000,-6.68659279547627e-001

7.46426393229441e+004,-9.28308177386571e+000,-6.77990782725844e-001

7.56846117380472e+004,-9.28308316225722e+000,-6.87452438429148e-001

7.67411295460207e+004,-9.28308458735190e+000,-6.97046058929221e-001

7.78123957929823e+004,-9.28308605005061e+000,-7.06773481608145e-001

7.88986163594682e+004,-9.28308755127238e+000,-7.16636569300731e-001

7.99999999999995e+004,-9.28308909195422e+000,-7.26637210643435e-001

8.11167583832018e+004,-9.28309067305128e+000,-7.36777320426341e-001

8.22491061324848e+004,-9.28309229553706e+000,-7.47058839948667e-001

8.33972608672892e+004,-9.28309396040352e+000,-7.57483737380208e-001

8.45614432449099e+004,-9.28309566866075e+000,-7.68054008128884e-001

8.57418770029029e+004,-9.28309742133718e+000,-7.78771675210882e-001

8.69387890020841e+004,-9.28309921947968e+000,-7.89638789625067e-001

8.81524092701283e+004,-9.28310106415315e+000,-8.00657430736238e-001

8.93829710457770e+004,-9.28310295644076e+000,-8.11829706657452e-001

9.06307108236633e+004,-9.28310489744346e+000,-8.23157754644064e-001

9.18958683997622e+004,-9.28310688828024e+000,-8.34643741485667e-001

9.31786869174758e+004,-9.28310893008750e+000,-8.46289863909931e-001

9.44794129143618e+004,-9.28311102401911e+000,-8.58098348986006e-001

9.57982963695136e+004,-9.28311317124575e+000,-8.70071454538349e-001

9.71355907516031e+004,-9.28311537295504e+000,-8.82211469559628e-001

9.84915530675926e+004,-9.28311763035059e+000,-8.94520714635990e-001

9.98664439121282e+004,-9.28311994465201e+000,-9.07001542371591e-001

1.01260527517622e+005,-9.28312231709389e+000,-9.19656337823519e-001

1.02674071805032e+005,-9.28312474892579e+000,-9.32487518937276e-001

1.04107348435354e+005,-9.28312724141098e+000,-9.45497536993365e-001

1.05560632861831e+005,-9.28312979582605e+000,-9.58688877055239e-001

1.07034204382888e+005,-9.28313241346006e+000,-9.72064058424415e-001

1.08528346195813e+005,-9.28313509561351e+000,-9.85625635102098e-001

1.10043345451179e+005,-9.28313784359738e+000,-9.99376196256131e-001

1.11579493308032e+005,-9.28314065873206e+000,-1.01331836669312e+000

1.13137084989847e+005,-9.28314354234627e+000,-1.02745480733740e+000

1.14716419841265e+005,-9.28314649577538e+000,-1.04178821571730e+000

1.16317801385624e+005,-9.28314952036054e+000,-1.05632132645344e+000

1.17941537383287e+005,-9.28315261744643e+000,-1.07105691175983e+000

1.19587939890794e+005,-9.28315578838038e+000,-1.08599778194288e+000

1.21257325320831e+005,-9.28315903450990e+000,-1.10114678591528e+000

1.22950014503040e+005,-9.28316235718109e+000,-1.11650681170980e+000

1.24666332745679e+005,-9.28316575773635e+000,-1.13208078700397e+000

1.26406609898139e+005,-9.28316923751236e+000,-1.14787167964731e+000

1.28171180414339e+005,-9.28317279783706e+000,-1.16388249820076e+000

1.29960383416997e+005,-9.28317644002783e+000,-1.18011629247592e+000

1.31774562762811e+005,-9.28318016538795e+000,-1.19657615408739e+000

1.33614067108538e+005,-9.28318397520401e+000,-1.21326521700861e+000

1.35479249978003e+005,-9.28318787074252e+000,-1.23018665813505e+000

1.37370469830040e+005,-9.28319185324641e+000,-1.24734369785602e+000

1.39288090127379e+005,-9.28319592393141e+000,-1.26473960063181e+000

1.41232479406504e+005,-9.28320008398201e+000,-1.28237767557967e+000

1.43204011348474e+005,-9.28320433454752e+000,-1.30026127706512e+000

1.45203064850745e+005,-9.28320867673693e+000,-1.31839380530490e+000

1.47230024099979e+005,-9.28321311161495e+000,-1.33677870697129e+000

1.49285278645888e+005,-9.28321764019639e+000,-1.35541947580980e+000

1.51369223476094e+005,-9.28322226344067e+000,-1.37431965326260e+000

1.53482259092041e+005,-9.28322698224659e+000,-1.39348282909752e+000

1.55624791585964e+005,-9.28323179744563e+000,-1.41291264205008e+000

1.57797232718936e+005,-9.28323670979584e+000,-1.43261278046885e+000

1.59999999999999e+005,-9.28324171997477e+000,-1.45258698297194e+000

1.62233516766403e+005,-9.28324682857228e+000,-1.47283903911140e+000

1.64498212264969e+005,-9.28325203608287e+000,-1.49337279004433e+000

1.66794521734578e+005,-9.28325734289730e+000,-1.51419212921647e+000

1.69122886489819e+005,-9.28326274929411e+000,-1.53530100305048e+000

1.71483754005805e+005,-9.28326825543045e+000,-1.55670341164572e+000

1.73877578004168e+005,-9.28327386133236e+000,-1.57840340948742e+000

1.76304818540256e+005,-9.28327956688464e+000,-1.60040510616252e+000

1.78765942091554e+005,-9.28328537182016e+000,-1.62271266708753e+000

1.81261421647326e+005,-9.28329127570823e+000,-1.64533031424614e+000

1.83791736799524e+005,-9.28329727794294e+000,-1.66826232693407e+000

1.86357373834951e+005,-9.28330337773043e+000,-1.69151304251649e+000

1.88958825828723e+005,-9.28330957407548e+000,-1.71508685719527e+000

1.91596592739027e+005,-9.28331586576771e+000,-1.73898822678525e+000

1.94271181503206e+005,-9.28332225136691e+000,-1.76322166750220e+000

1.96983106135185e+005,-9.28332872918743e+000,-1.78779175676185e+000

1.99732887824256e+005,-9.28333529728188e+000,-1.81270313399031e+000

2.02521055035243e+005,-9.28334195342444e+000,-1.83796050144316e+000

2.05348143610063e+005,-9.28334869509253e+000,-1.86356862504091e+000

2.08214696870707e+005,-9.28335551944828e+000,-1.88953233521181e+000

2.11121265723661e+005,-9.28336242331879e+000,-1.91585652774902e+000

2.14068408765776e+005,-9.28336940317552e+000,-1.94254616468032e+000

2.17056692391625e+005,-9.28337645511250e+000,-1.96960627515039e+000

2.20086690902357e+005,-9.28338357482409e+000,-1.99704195631438e+000

2.23158986616063e+005,-9.28339075758086e+000,-2.02485837424864e+000

2.26274169979693e+005,-9.28339799820522e+000,-2.05306076487143e+000

2.29432839682530e+005,-9.28340529104539e+000,-2.08165443488006e+000

2.32635602771247e+005,-9.28341262994831e+000,-2.11064476270177e+000

2.35883074766574e+005,-9.28342000823185e+000,-2.14003719945876e+000

2.39175879781588e+005,-9.28342741865486e+000,-2.16983726995105e+000

2.42514650641661e+005,-9.28343485338690e+000,-2.20005057365166e+000

2.45900029006080e+005,-9.28344230397619e+000,-2.23068278572047e+000

2.49332665491357e+005,-9.28344976131647e+000,-2.26173965803357e+000

2.52813219796278e+005,-9.28345721561207e+000,-2.29322702023080e+000

2.56342360828676e+005,-9.28346465634228e+000,-2.32515078077916e+000

2.59920766833993e+005,-9.28347207222377e+000,-2.35751692805587e+000

2.63549125525621e+005,-9.28347945117170e+000,-2.39033153144943e+000

2.67228134217075e+005,-9.28348678025957e+000,-2.42360074247983e+000

2.70958499956006e+005,-9.28349404567699e+000,-2.45733079593965e+000

2.74740939660078e+005,-9.28350123268680e+000,-2.49152801105301e+000

2.78576180254757e+005,-9.28350832557971e+000,-2.52619879265862e+000

2.82464958813007e+005,-9.28351530762813e+000,-2.56134963241140e+000

2.86408022696948e+005,-9.28352216103762e+000,-2.59698711000955e+000

2.90406129701488e+005,-9.28352886689762e+000,-2.63311789444096e+000

2.94460048199957e+005,-9.28353540512974e+000,-2.66974874525621e+000

2.98570557291775e+005,-9.28354175443467e+000,-2.70688651386478e+000

3.02738446952187e+005,-9.28354789223764e+000,-2.74453814485508e+000

3.06964518184081e+005,-9.28355379463206e+000,-2.78271067734189e+000

3.11249583171928e+005,-9.28355943632107e+000,-2.82141124634034e+000

3.15594465437872e+005,-9.28356479055815e+000,-2.86064708416483e+000

3.19999999999997e+005,-9.28356982908542e+000,-2.90042552185881e+000

3.24467033532806e+005,-9.28357452207049e+000,-2.94075399065174e+000

3.28996424529938e+005,-9.28357883804176e+000,-2.98164002344526e+000

3.33589043469155e+005,-9.28358274382174e+000,-3.02309125633130e+000

3.38245772979638e+005,-9.28358620445895e+000,-3.06511543014010e+000

3.42967508011610e+005,-9.28358918315818e+000,-3.10772039202049e+000

3.47755156008335e+005,-9.28359164120907e+000,-3.15091409705267e+000

3.52609637080511e+005,-9.28359353791306e+000,-3.19470460989620e+000

3.57531884183106e+005,-9.28359483050891e+000,-3.23910010647044e+000

3.62522843294651e+005,-9.28359547409675e+000,-3.28410887567087e+000

3.67583473599047e+005,-9.28359542156055e+000,-3.32973932112195e+000

3.72714747669902e+005,-9.28359462348908e+000,-3.37599996296765e+000

3.77917651657445e+005,-9.28359302809582e+000,-3.42289943969691e+000

3.83193185478053e+005,-9.28359058113740e+000,-3.47044651001011e+000

3.88542363006410e+005,-9.28358722583063e+000,-3.51865005472463e+000

3.93966212270369e+005,-9.28358290276879e+000,-3.56751907871808e+000

3.99465775648511e+005,-9.28357754983615e+000,-3.61706271291548e+000

4.05042110070485e+005,-9.28357110212219e+000,-3.66729021631518e+000

4.10696287220124e+005,-9.28356349183451e+000,-3.71821097805755e+000

4.16429393741414e+005,-9.28355464821071e+000,-3.76983451953790e+000

4.22242531447321e+005,-9.28354449742980e+000,-3.82217049656044e+000

4.28136817531551e+005,-9.28353296252297e+000,-3.87522870153677e+000

4.34113384783250e+005,-9.28351996328328e+000,-3.92901906573036e+000

4.40173381804713e+005,-9.28350541617534e+000,-3.98355166154395e+000

4.46317973232124e+005,-9.28348923424459e+000,-4.03883670485218e+000

4.52548339959385e+005,-9.28347132702570e+000,-4.09488455738265e+000

4.58865679365059e+005,-9.28345160045150e+000,-4.15170572913934e+000

4.65271205542494e+005,-9.28342995676135e+000,-4.20931088087548e+000

4.71766149533147e+005,-9.28340629440958e+000,-4.26771082661031e+000

4.78351759563174e+005,-9.28338050797396e+000,-4.32691653619627e+000

4.85029301283321e+005,-9.28335248806465e+000,-4.38693913792838e+000

4.91800058012158e+005,-9.28332212123285e+000,-4.44778992120533e+000

4.98665330982714e+005,-9.28328928988044e+000,-4.50948033923445e+000

5.05626439592555e+005,-9.28325387216955e+000,-4.57202201178433e+000

5.12684721657352e+005,-9.28321574193288e+000,-4.63542672798569e+000

5.19841533667984e+005,-9.28317476858443e+000,-4.69970644917797e+000

5.27098251051240e+005,-9.28313081703124e+000,-4.76487331180159e+000

5.34456268434150e+005,-9.28308374758524e+000,-4.83093963033843e+000

5.41916999912011e+005,-9.28303341587626e+000,-4.89791790029808e+000

