Freq.,VOut,OutRef

1.00000000000000e+004,-2.39748521618778e+001,-2.36933356896796e-001

1.01395947979003e+004,-2.39748533181305e+001,-2.40240775597535e-001

1.02811382665607e+004,-2.39748545068852e+001,-2.43594362116967e-001

1.04246576084112e+004,-2.39748557290553e+001,-2.46994760849197e-001

1.05701804056138e+004,-2.39748569855804e+001,-2.50442625176437e-001

1.07177346253629e+004,-2.39748582774256e+001,-2.53938617602149e-001

1.08673486252606e+004,-2.39748596055836e+001,-2.57483409871785e-001

1.10190511587661e+004,-2.39748609710752e+001,-2.61077683103890e-001

1.11728713807222e+004,-2.39748623749495e+001,-2.64722127920662e-001

1.13288388529580e+004,-2.39748638182853e+001,-2.68417444581748e-001

1.14869835499703e+004,-2.39748653021916e+001,-2.72164343116506e-001

1.16473358646846e+004,-2.39748668278085e+001,-2.75963543460531e-001

1.18099266142953e+004,-2.39748683963082e+001,-2.79815775595747e-001

1.19747870461893e+004,-2.39748700088960e+001,-2.83721779687674e-001

1.21419488439505e+004,-2.39748716668107e+001,-2.87682306229078e-001

1.23114441334492e+004,-2.39748733713262e+001,-2.91698116183549e-001

1.24833054890161e+004,-2.39748751237522e+001,-2.95769981130810e-001

1.26575659397028e+004,-2.39748769254349e+001,-2.99898683415008e-001

1.28342589756290e+004,-2.39748787777585e+001,-3.04085016296874e-001

1.30134185544193e+004,-2.39748806821462e+001,-3.08329784101475e-001

1.31950791077289e+004,-2.39748826400608e+001,-3.12633802376206e-001

1.33792755478611e+004,-2.39748846530068e+001,-3.16997898043672e-001

1.35660432744767e+004,-2.39748867225302e+001,-3.21422909565380e-001

1.37554181813974e+004,-2.39748888502210e+001,-3.25909687097071e-001

1.39474366635040e+004,-2.39748910377136e+001,-3.30459092653630e-001

1.41421356237309e+004,-2.39748932866885e+001,-3.35072000275606e-001

1.43395524801583e+004,-2.39748955988730e+001,-3.39749296195502e-001

1.45397251732031e+004,-2.39748979760434e+001,-3.44491879006752e-001

1.47426921729110e+004,-2.39749004200257e+001,-3.49300659837427e-001

1.49484924863494e+004,-2.39749029326969e+001,-3.54176562524380e-001

1.51571656651040e+004,-2.39749055159870e+001,-3.59120523789435e-001

1.53687518128801e+004,-2.39749081718802e+001,-3.64133493420008e-001

1.55832915932100e+004,-2.39749109024161e+001,-3.69216434450496e-001

1.58008262372675e+004,-2.39749137096922e+001,-3.74370323345033e-001

1.60213975517924e+004,-2.39749165958641e+001,-3.79596150187614e-001

1.62450479271247e+004,-2.39749195631486e+001,-3.84894918869504e-001

1.64718203453514e+004,-2.39749226138241e+001,-3.90267647282778e-001

1.67017583885674e+004,-2.39749257502337e+001,-3.95715367512194e-001

1.69349062472505e+004,-2.39749289747855e+001,-4.01239126037580e-001

1.71713087287550e+004,-2.39749322899560e+001,-4.06839983928962e-001

1.74110112659224e+004,-2.39749356982903e+001,-4.12519017055036e-001

1.76540599258131e+004,-2.39749392024057e+001,-4.18277316283201e-001

1.79005014185594e+004,-2.39749428049927e+001,-4.24115987692501e-001

1.81503831063432e+004,-2.39749465088173e+001,-4.30036152783255e-001

1.84037530124975e+004,-2.39749503167229e+001,-4.36038948694274e-001

1.86606598307361e+004,-2.39749542316332e+001,-4.42125528414262e-001

1.89211529345119e+004,-2.39749582565534e+001,-4.48297061009651e-001

1.91852823865052e+004,-2.39749623945733e+001,-4.54554731843675e-001

1.94530989482457e+004,-2.39749666488696e+001,-4.60899742802709e-001

1.97246540898671e+004,-2.39749710227076e+001,-4.67333312529117e-001

1.99999999999999e+004,-2.39749755194447e+001,-4.73856676650366e-001

2.02791895958005e+004,-2.39749801425321e+001,-4.80471088019008e-001

2.05622765331213e+004,-2.39749848955183e+001,-4.87177816948046e-001

2.08493152168224e+004,-2.39749897820508e+001,-4.93978151456618e-001

2.11403608112276e+004,-2.39749948058796e+001,-5.00873397514749e-001

2.14354692507258e+004,-2.39749999708601e+001,-5.07864879292318e-001

2.17346972505211e+004,-2.39750052809555e+001,-5.14953939412571e-001

2.20381023175322e+004,-2.39750107402404e+001,-5.22141939208793e-001

2.23457427614443e+004,-2.39750163529033e+001,-5.29430258982935e-001

2.26576777059159e+004,-2.39750221232506e+001,-5.36820298268622e-001

2.29739670999406e+004,-2.39750280557090e+001,-5.44313476100522e-001

2.32946717293690e+004,-2.39750341548296e+001,-5.51911231282790e-001

2.36198532285905e+004,-2.39750404252910e+001,-5.59615022663285e-001

2.39495740923785e+004,-2.39750468719029e+001,-5.67426329413879e-001

2.42838976879009e+004,-2.39750534996097e+001,-5.75346651309276e-001

2.46228882668982e+004,-2.39750603134946e+001,-5.83377509015359e-001

2.49666109780322e+004,-2.39750673187831e+001,-5.91520444378408e-001

2.53151318794055e+004,-2.39750745208469e+001,-5.99777020717457e-001

2.56685179512580e+004,-2.39750819252089e+001,-6.08148823122035e-001

2.60268371088386e+004,-2.39750895375458e+001,-6.16637458756256e-001

2.63901582154578e+004,-2.39750973636940e+001,-6.25244557162456e-001

2.67585510957221e+004,-2.39751054096531e+001,-6.33971770570909e-001

2.71320865489533e+004,-2.39751136815906e+001,-6.42820774215933e-001

2.75108363627948e+004,-2.39751221858470e+001,-6.51793266652724e-001

2.78948733270080e+004,-2.39751309289402e+001,-6.60890970081342e-001

2.82842712474618e+004,-2.39751399175705e+001,-6.70115630672998e-001

2.86791049603164e+004,-2.39751491586260e+001,-6.79469018902562e-001

2.90794503464061e+004,-2.39751586591871e+001,-6.88952929885070e-001

2.94853843458219e+004,-2.39751684265329e+001,-6.98569183715024e-001

2.98969849726987e+004,-2.39751784681459e+001,-7.08319625813031e-001

3.03143313302078e+004,-2.39751887917180e+001,-7.18206127276043e-001

3.07375036257601e+004,-2.39751994051563e+001,-7.28230585230806e-001

3.11665831864199e+004,-2.39752103165891e+001,-7.38394923194681e-001

3.16016524745350e+004,-2.39752215343719e+001,-7.48701091440060e-001

3.20427951035848e+004,-2.39752330670940e+001,-7.59151067363596e-001

3.24900958542493e+004,-2.39752449235847e+001,-7.69746855860602e-001

3.29436406907028e+004,-2.39752571129203e+001,-7.80490489704448e-001

3.34035167771346e+004,-2.39752696444306e+001,-7.91384029930575e-001

3.38698124945009e+004,-2.39752825277062e+001,-8.02429566227732e-001

3.43426174575100e+004,-2.39752957726057e+001,-8.13629217331813e-001

3.48220225318448e+004,-2.39753093892631e+001,-8.24985131425890e-001

3.53081198516260e+004,-2.39753233880954e+001,-8.36499486546865e-001

3.58010028371187e+004,-2.39753377798105e+001,-8.48174490996010e-001

3.63007662126863e+004,-2.39753525754154e+001,-8.60012383755287e-001

3.68075060249948e+004,-2.39753677862242e+001,-8.72015434910499e-001

3.73213196614721e+004,-2.39753834238667e+001,-8.84185946078263e-001

3.78423058690237e+004,-2.39753995002977e+001,-8.96526250839344e-001

3.83705647730104e+004,-2.39754160278048e+001,-9.09038715178615e-001

3.89061978964912e+004,-2.39754330190189e+001,-9.21725737930094e-001

3.94493081797342e+004,-2.39754504869229e+001,-9.34589751227872e-001

3.99999999999998e+004,-2.39754684448616e+001,-9.47633220962277e-001

4.05583791916010e+004,-2.39754869065519e+001,-9.60858647244972e-001

4.11245530662425e+004,-2.39755058860928e+001,-9.74268564876326e-001

4.16986304336447e+004,-2.39755253979762e+001,-9.87865543821166e-001

4.22807216224550e+004,-2.39755454570975e+001,-1.00165218969196e+000

4.28709385014515e+004,-2.39755660787672e+001,-1.01563114423397e+000

4.34693945010421e+004,-2.39755872787215e+001,-1.02980508582297e+000

4.40762046350642e+004,-2.39756090731348e+001,-1.04417672996418e+000

4.46914855228886e+004,-2.39756314786316e+001,-1.05874882979938e+000

4.53153554118317e+004,-2.39756545122987e+001,-1.07352417662292e+000

4.59479341998812e+004,-2.39756781916978e+001,-1.08850560040093e+000

4.65893434587380e+004,-2.39757025348791e+001,-1.10369597029984e+000

4.72397064571810e+004,-2.39757275603941e+001,-1.11909819522051e+000

4.78991481847569e+004,-2.39757532873098e+001,-1.13471522433929e+000

4.85677953758016e+004,-2.39757797352227e+001,-1.15055004765741e+000

4.92457765337964e+004,-2.39758069242732e+001,-1.16660569655624e+000

4.99332219560642e+004,-2.39758348751606e+001,-1.18288524435908e+000

5.06302637588109e+004,-2.39758636091583e+001,-1.19939180690262e+000

5.13370359025159e+004,-2.39758931481301e+001,-1.21612854311221e+000

5.20536742176771e+004,-2.39759235145451e+001,-1.23309865558906e+000

5.27803164309155e+004,-2.39759547314955e+001,-1.25030539120049e+000

5.35171021914442e+004,-2.39759868227131e+001,-1.26775204167966e+000

5.42641730979066e+004,-2.39760198125863e+001,-1.28544194423398e+000

5.50216727255895e+004,-2.39760537261788e+001,-1.30337848215939e+000

5.57897466540159e+004,-2.39760885892474e+001,-1.32156508546334e+000

5.65685424949235e+004,-2.39761244282612e+001,-1.34000523149516e+000

5.73582099206328e+004,-2.39761612704205e+001,-1.35870244558540e+000

5.81589006928121e+004,-2.39761991436774e+001,-1.37766030169082e+000

5.89707686916437e+004,-2.39762380767554e+001,-1.39688242305151e+000

5.97939699453972e+004,-2.39762780991705e+001,-1.41637248285148e+000

6.06286626604156e+004,-2.39763192412532e+001,-1.43613420489114e+000

6.14750072515201e+004,-2.39763615341697e+001,-1.45617136426611e+000

6.23331663728396e+004,-2.39764050099451e+001,-1.47648778805515e+000

6.32033049490698e+004,-2.39764497014863e+001,-1.49708735601619e+000

6.40855902071694e+004,-2.39764956426056e+001,-1.51797400129156e+000

6.49801917084985e+004,-2.39765428680454e+001,-1.53915171112155e+000

6.58872813814055e+004,-2.39765914135031e+001,-1.56062452756542e+000

6.68070335542691e+004,-2.39766413156565e+001,-1.58239654823364e+000

6.77396249890018e+004,-2.39766926121905e+001,-1.60447192702642e+000

6.86852349150199e+004,-2.39767453418233e+001,-1.62685487488366e+000

6.96440450636895e+004,-2.39767995443352e+001,-1.64954966054096e+000

7.06162397032520e+004,-2.39768552605959e+001,-1.67256061129711e+000

7.16020056742374e+004,-2.39769125325941e+001,-1.69589211378975e+000

7.26015324253724e+004,-2.39769714034669e+001,-1.71954861478028e+000

7.36150120499896e+004,-2.39770319175307e+001,-1.74353462194830e+000

7.46426393229441e+004,-2.39770941203123e+001,-1.76785470469400e+000

7.56846117380472e+004,-2.39771580585810e+001,-1.79251349495198e+000

7.67411295460207e+004,-2.39772237803816e+001,-1.81751568801328e+000

7.78123957929823e+004,-2.39772913350676e+001,-1.84286604335786e+000

7.88986163594682e+004,-2.39773607733361e+001,-1.86856938549445e+000

7.99999999999995e+004,-2.39774321472634e+001,-1.89463060481236e+000

8.11167583832018e+004,-2.39775055103405e+001,-1.92105465844239e+000

8.22491061324848e+004,-2.39775809175106e+001,-1.94784657112693e+000

8.33972608672892e+004,-2.39776584252072e+001,-1.97501143610040e+000

8.45614432449099e+004,-2.39777380913928e+001,-2.00255441597817e+000

8.57418770029029e+004,-2.39778199755985e+001,-2.03048074365852e+000

8.69387890020841e+004,-2.39779041389654e+001,-2.05879572323070e+000

8.81524092701283e+004,-2.39779906442857e+001,-2.08750473089559e+000

8.93829710457770e+004,-2.39780795560459e+001,-2.11661321589525e+000

9.06307108236633e+004,-2.39781709404702e+001,-2.14612670145360e+000

9.18958683997622e+004,-2.39782648655656e+001,-2.17605078572595e+000

9.31786869174758e+004,-2.39783614011672e+001,-2.20639114275923e+000

9.44794129143618e+004,-2.39784606189854e+001,-2.23715352346306e+000

9.57982963695136e+004,-2.39785625926542e+001,-2.26834375658975e+000

9.71355907516031e+004,-2.39786673977792e+001,-2.29996774972596e+000

9.84915530675926e+004,-2.39787751119887e+001,-2.33203149029355e+000

9.98664439121282e+004,-2.39788858149844e+001,-2.36454104656208e+000

1.01260527517622e+005,-2.39789995885942e+001,-2.39750256866933e+000

1.02674071805032e+005,-2.39791165168254e+001,-2.43092228965540e+000

1.04107348435354e+005,-2.39792366859197e+001,-2.46480652650463e+000

1.05560632861831e+005,-2.39793601844090e+001,-2.49916168119853e+000

1.07034204382888e+005,-2.39794871031727e+001,-2.53399424178088e+000

1.08528346195813e+005,-2.39796175354961e+001,-2.56931078343068e+000

1.10043345451179e+005,-2.39797515771299e+001,-2.60511796954709e+000

1.11579493308032e+005,-2.39798893263514e+001,-2.64142255284517e+000

1.13137084989847e+005,-2.39800308840261e+001,-2.67823137646112e+000

1.14716419841265e+005,-2.39801763536720e+001,-2.71555137506903e+000

1.16317801385624e+005,-2.39803258415238e+001,-2.75338957600708e+000

1.17941537383287e+005,-2.39804794565992e+001,-2.79175310041518e+000

1.19587939890794e+005,-2.39806373107664e+001,-2.83064916438276e+000

1.21257325320831e+005,-2.39807995188128e+001,-2.87008508010778e+000

1.22950014503040e+005,-2.39809661985151e+001,-2.91006825706497e+000

1.24666332745679e+005,-2.39811374707113e+001,-2.95060620318579e+000

1.26406609898139e+005,-2.39813134593730e+001,-2.99170652604842e+000

1.28171180414339e+005,-2.39814942916802e+001,-3.03337693407854e+000

1.29960383416997e+005,-2.39816800980965e+001,-3.07562523776111e+000

1.31774562762811e+005,-2.39818710124469e+001,-3.11845935086162e+000

1.33614067108538e+005,-2.39820671719958e+001,-3.16188729165827e+000

1.35479249978003e+005,-2.39822687175273e+001,-3.20591718418635e+000

1.37370469830040e+005,-2.39824757934262e+001,-3.25055725949097e+000

1.39288090127379e+005,-2.39826885477615e+001,-3.29581585689073e+000

1.41232479406504e+005,-2.39829071323700e+001,-3.34170142525436e+000

1.43204011348474e+005,-2.39831317029425e+001,-3.38822252428490e+000

1.45203064850745e+005,-2.39833624191105e+001,-3.43538782581642e+000

1.47230024099979e+005,-2.39835994445354e+001,-3.48320611512095e+000

1.49285278645888e+005,-2.39838429469979e+001,-3.53168629222619e+000

1.51369223476094e+005,-2.39840930984899e+001,-3.58083737324399e+000

1.53482259092041e+005,-2.39843500753074e+001,-3.63066849170924e+000

1.55624791585964e+005,-2.39846140581443e+001,-3.68118889993054e+000

1.57797232718936e+005,-2.39848852321890e+001,-3.73240797035111e+000

1.59999999999999e+005,-2.39851637872206e+001,-3.78433519692086e+000

1.62233516766403e+005,-2.39854499177084e+001,-3.83698019647903e+000

1.64498212264969e+005,-2.39857438229111e+001,-3.89035271014949e+000

1.66794521734578e+005,-2.39860457069784e+001,-3.94446260474622e+000

1.69122886489819e+005,-2.39863557790537e+001,-3.99931987418971e+000

1.71483754005805e+005,-2.39866742533780e+001,-4.05493464093614e+000

1.73877578004168e+005,-2.39870013493955e+001,-4.11131715741790e+000

1.76304818540256e+005,-2.39873372918598e+001,-4.16847780749576e+000

1.78765942091554e+005,-2.39876823109424e+001,-4.22642710792337e+000

1.81261421647326e+005,-2.39880366423414e+001,-4.28517570982322e+000

1.83791736799524e+005,-2.39884005273922e+001,-4.34473440017755e+000

1.86357373834951e+005,-2.39887742131793e+001,-4.40511410332843e+000

1.88958825828723e+005,-2.39891579526490e+001,-4.46632588249491e+000

1.91596592739027e+005,-2.39895520047233e+001,-4.52838094130006e+000

1.94271181503206e+005,-2.39899566344155e+001,-4.59129062531469e+000

1.96983106135185e+005,-2.39903721129463e+001,-4.65506642361331e+000

1.99732887824256e+005,-2.39907987178613e+001,-4.71971997034568e+000

2.02521055035243e+005,-2.39912367331494e+001,-4.78526304632274e+000

2.05348143610063e+005,-2.39916864493624e+001,-4.85170758061889e+000

2.08214696870707e+005,-2.39921481637356e+001,-4.91906565218970e+000

2.11121265723661e+005,-2.39926221803095e+001,-4.98734949150653e+000

2.14068408765776e+005,-2.39931088100521e+001,-5.05657148220808e+000

2.17056692391625e+005,-2.39936083709827e+001,-5.12674416277102e+000

2.20086690902357e+005,-2.39941211882959e+001,-5.19788022819733e+000

2.23158986616063e+005,-2.39946475944876e+001,-5.26999253172266e+000

2.26274169979693e+005,-2.39951879294807e+001,-5.34309408654432e+000

2.29432839682530e+005,-2.39957425407528e+001,-5.41719806757025e+000

2.32635602771247e+005,-2.39963117834636e+001,-5.49231781319065e+000

2.35883074766574e+005,-2.39968960205846e+001,-5.56846682707068e+000

2.39175879781588e+005,-2.39974956230284e+001,-5.64565877997032e+000

2.42514650641661e+005,-2.39981109697798e+001,-5.72390751158593e+000

2.45900029006080e+005,-2.39987424480275e+001,-5.80322703242047e+000

2.49332665491357e+005,-2.39993904532963e+001,-5.88363152568018e+000

2.52813219796278e+005,-2.40000553895813e+001,-5.96513534919990e+000

2.56342360828676e+005,-2.40007376694822e+001,-6.04775303739858e+000

2.59920766833993e+005,-2.40014377143390e+001,-6.13149930326686e+000

2.63549125525621e+005,-2.40021559543690e+001,-6.21638904038605e+000

2.67228134217075e+005,-2.40028928288050e+001,-6.30243732498301e+000

2.70958499956006e+005,-2.40036487860344e+001,-6.38965941802026e+000

2.74740939660078e+005,-2.40044242837400e+001,-6.47807076732360e+000

2.78576180254757e+005,-2.40052197890425e+001,-6.56768700974937e+000

2.82464958813007e+005,-2.40060357786444e+001,-6.65852397339259e+000

2.86408022696948e+005,-2.40068727389757e+001,-6.75059767983768e+000

2.90406129701488e+005,-2.40077311663416e+001,-6.84392434645396e+000

2.94460048199957e+005,-2.40086115670726e+001,-6.93852038873760e+000

2.98570557291775e+005,-2.40095144576770e+001,-7.03440242270228e+000

3.02738446952187e+005,-2.40104403649951e+001,-7.13158726731918e+000

3.06964518184081e+005,-2.40113898263579e+001,-7.23009194701070e+000

3.11249583171928e+005,-2.40123633897473e+001,-7.32993369419677e+000

3.15594465437872e+005,-2.40133616139612e+001,-7.43112995189918e+000

3.19999999999997e+005,-2.40143850687812e+001,-7.53369837640234e+000

3.24467033532806e+005,-2.40154343351452e+001,-7.63765683997574e+000

3.28996424529938e+005,-2.40165100053246e+001,-7.74302343365735e+000

3.33589043469155e+005,-2.40176126831057e+001,-7.84981647010166e+000

3.38245772979638e+005,-2.40187429839776e+001,-7.95805448649384e+000

3.42967508011610e+005,-2.40199015353255e+001,-8.06775624753070e+000

3.47755156008335e+005,-2.40210889766300e+001,-8.17894074847240e+000

3.52609637080511e+005,-2.40223059596743e+001,-8.29162721826382e+000

3.57531884183106e+005,-2.40235531487585e+001,-8.40583512272997e+000

3.62522843294651e+005,-2.40248312209221e+001,-8.52158416784430e+000

3.67583473599047e+005,-2.40261408661756e+001,-8.63889430307315e+000

3.72714747669902e+005,-2.40274827877414e+001,-8.75778572479656e+000

3.77917651657445e+005,-2.40288577023054e+001,-8.87827887980598e+000

3.83193185478053e+005,-2.40302663402790e+001,-9.00039446888082e+000

3.88542363006410e+005,-2.40317094460739e+001,-9.12415345044322e+000

3.93966212270369e+005,-2.40331877783887e+001,-9.24957704429269e+000

3.99465775648511e+005,-2.40347021105099e+001,-9.37668673541852e+000

4.05042110070485e+005,-2.40362532306263e+001,-9.50550427789251e+000

4.10696287220124e+005,-2.40378419421604e+001,-9.63605169883828e+000

4.16429393741414e+005,-2.40394690641140e+001,-9.76835130248002e+000

4.22242531447321e+005,-2.40411354314335e+001,-9.90242567426575e+000

4.28136817531551e+005,-2.40428418953917e+001,-1.00382976850660e+001

4.34113384783250e+005,-2.40445893239895e+001,-1.01759904954452e+001

4.40173381804713e+005,-2.40463786023789e+001,-1.03155275600033e+001

4.46317973232124e+005,-2.40482106333062e+001,-1.04569326317845e+001

4.52548339959385e+005,-2.40500863375785e+001,-1.06002297667508e+001

4.58865679365059e+005,-2.40520066545535e+001,-1.07454433283160e+001

4.65271205542494e+005,-2.40539725426543e+001,-1.08925979919357e+001

4.71766149533147e+005,-2.40559849799102e+001,-1.10417187497491e+001

4.78351759563174e+005,-2.40580449645236e+001,-1.11928309152676e+001

4.85029301283321e+005,-2.40601535154655e+001,-1.13459601281036e+001

4.91800058012158e+005,-2.40623116731003e+001,-1.15011323587342e+001

4.98665330982714e+005,-2.40645204998398e+001,-1.16583739132925e+001

5.05626439592555e+005,-2.40667810808291e+001,-1.18177114383794e+001

5.12684721657352e+005,-2.40690945246638e+001,-1.19791719258878e+001

5.19841533667984e+005,-2.40714619641410e+001,-1.21427827178308e+001

5.27098251051240e+005,-2.40738845570435e+001,-1.23085715111657e+001

5.34456268434150e+005,-2.40763634869594e+001,-1.24765663626036e+001

5.41916999912011e+005,-2.40788999641363e+001,-1.26467956933936e+001

