Freq.,VOut,OutRef

1.00000000000000e+004,-1.59281834163664e+001,-2.44660859041059e-001

1.01395947979003e+004,-1.59281840067897e+001,-2.48076171357945e-001

1.02811382665607e+004,-1.59281846138093e+001,-2.51539158554688e-001

1.04246576084112e+004,-1.59281852378918e+001,-2.55050486100319e-001

1.05701804056138e+004,-1.59281858795168e+001,-2.58610828752000e-001

1.07177346253629e+004,-1.59281865391772e+001,-2.62220870685007e-001

1.08673486252606e+004,-1.59281872173801e+001,-2.65881305621237e-001

1.10190511587661e+004,-1.59281879146462e+001,-2.69592836966735e-001

1.11728713807222e+004,-1.59281886315117e+001,-2.73356177941660e-001

1.13288388529580e+004,-1.59281893685271e+001,-2.77172051722763e-001

1.14869835499703e+004,-1.59281901262587e+001,-2.81041191577201e-001

1.16473358646846e+004,-1.59281909052889e+001,-2.84964341005926e-001

1.18099266142953e+004,-1.59281917062160e+001,-2.88942253887659e-001

1.19747870461893e+004,-1.59281925296555e+001,-2.92975694619651e-001

1.21419488439505e+004,-1.59281933762400e+001,-2.97065438267851e-001

1.23114441334492e+004,-1.59281942466198e+001,-3.01212270714854e-001

1.24833054890161e+004,-1.59281951414638e+001,-3.05416988809471e-001

1.26575659397028e+004,-1.59281960614593e+001,-3.09680400522331e-001

1.28342589756290e+004,-1.59281970073130e+001,-3.14003325098549e-001

1.30134185544193e+004,-1.59281979797516e+001,-3.18386593214636e-001

1.31950791077289e+004,-1.59281989795222e+001,-3.22831047140500e-001

1.33792755478611e+004,-1.59282000073927e+001,-3.27337540898741e-001

1.35660432744767e+004,-1.59282010641526e+001,-3.31906940431430e-001

1.37554181813974e+004,-1.59282021506139e+001,-3.36540123760767e-001

1.39474366635040e+004,-1.59282032676109e+001,-3.41237981164661e-001

1.41421356237309e+004,-1.59282044160016e+001,-3.46001415342621e-001

1.43395524801583e+004,-1.59282055966683e+001,-3.50831341589168e-001

1.45397251732031e+004,-1.59282068105175e+001,-3.55728687973649e-001

1.47426921729110e+004,-1.59282080584818e+001,-3.60694395511911e-001

1.49484924863494e+004,-1.59282093415194e+001,-3.65729418353640e-001

1.51571656651040e+004,-1.59282106606159e+001,-3.70834723959789e-001

1.53687518128801e+004,-1.59282120167843e+001,-3.76011293290896e-001

1.55832915932100e+004,-1.59282134110661e+001,-3.81260120995752e-001

1.58008262372675e+004,-1.59282148445319e+001,-3.86582215600284e-001

1.60213975517924e+004,-1.59282163182827e+001,-3.91978599702000e-001

1.62450479271247e+004,-1.59282178334501e+001,-3.97450310167259e-001

1.64718203453514e+004,-1.59282193911975e+001,-4.02998398328406e-001

1.67017583885674e+004,-1.59282209927211e+001,-4.08623930184464e-001

1.69349062472505e+004,-1.59282226392505e+001,-4.14327986610220e-001

1.71713087287550e+004,-1.59282243320499e+001,-4.20111663557744e-001

1.74110112659224e+004,-1.59282260724190e+001,-4.25976072270123e-001

1.76540599258131e+004,-1.59282278616941e+001,-4.31922339493739e-001

1.79005014185594e+004,-1.59282297012487e+001,-4.37951607693519e-001

1.81503831063432e+004,-1.59282315924949e+001,-4.44065035273795e-001

1.84037530124975e+004,-1.59282335368847e+001,-4.50263796797610e-001

1.86606598307361e+004,-1.59282355359105e+001,-4.56549083214653e-001

1.89211529345119e+004,-1.59282375911069e+001,-4.62922102087277e-001

1.91852823865052e+004,-1.59282397040511e+001,-4.69384077824203e-001

1.94530989482457e+004,-1.59282418763651e+001,-4.75936251912040e-001

1.97246540898671e+004,-1.59282441097160e+001,-4.82579883156387e-001

1.99999999999999e+004,-1.59282464058178e+001,-4.89316247921992e-001

2.02791895958005e+004,-1.59282487664325e+001,-4.96146640375503e-001

2.05622765331213e+004,-1.59282511933715e+001,-5.03072372736758e-001

2.08493152168224e+004,-1.59282536884972e+001,-5.10094775526612e-001

2.11403608112276e+004,-1.59282562537242e+001,-5.17215197823641e-001

2.14354692507258e+004,-1.59282588910204e+001,-5.24435007523997e-001

2.17346972505211e+004,-1.59282616024094e+001,-5.31755591599855e-001

2.20381023175322e+004,-1.59282643899710e+001,-5.39178356368090e-001

2.23457427614443e+004,-1.59282672558438e+001,-5.46704727757448e-001

2.26576777059159e+004,-1.59282702022261e+001,-5.54336151582693e-001

2.29739670999406e+004,-1.59282732313777e+001,-5.62074093821875e-001

2.32946717293690e+004,-1.59282763456222e+001,-5.69920040894262e-001

2.36198532285905e+004,-1.59282795473477e+001,-5.77875499948812e-001

2.39495740923785e+004,-1.59282828390096e+001,-5.85941999149602e-001

2.42838976879009e+004,-1.59282862231319e+001,-5.94121087969067e-001

2.46228882668982e+004,-1.59282897023097e+001,-6.02414337483831e-001

2.49666109780322e+004,-1.59282932792103e+001,-6.10823340677326e-001

2.53151318794055e+004,-1.59282969565760e+001,-6.19349712742200e-001

2.56685179512580e+004,-1.59283007372257e+001,-6.27995091389872e-001

2.60268371088386e+004,-1.59283046240576e+001,-6.36761137164344e-001

2.63901582154578e+004,-1.59283086200507e+001,-6.45649533759398e-001

2.67585510957221e+004,-1.59283127282676e+001,-6.54661988338833e-001

2.71320865489533e+004,-1.59283169518565e+001,-6.63800231866661e-001

2.75108363627948e+004,-1.59283212940538e+001,-6.73066019433465e-001

2.78948733270080e+004,-1.59283257581865e+001,-6.82461130593835e-001

2.82842712474618e+004,-1.59283303476747e+001,-6.91987369707752e-001

2.86791049603164e+004,-1.59283350660341e+001,-7.01646566282592e-001

2.90794503464061e+004,-1.59283399168790e+001,-7.11440575323133e-001

2.94853843458219e+004,-1.59283449039245e+001,-7.21371277687353e-001

2.98969849726987e+004,-1.59283500309898e+001,-7.31440580444690e-001

3.03143313302078e+004,-1.59283553020008e+001,-7.41650417238261e-001

3.07375036257601e+004,-1.59283607209934e+001,-7.52002748656719e-001

3.11665831864199e+004,-1.59283662921160e+001,-7.62499562607120e-001

3.16016524745350e+004,-1.59283720196331e+001,-7.73142874693500e-001

3.20427951035848e+004,-1.59283779079285e+001,-7.83934728602518e-001

3.24900958542493e+004,-1.59283839615085e+001,-7.94877196491667e-001

3.29436406907028e+004,-1.59283901850050e+001,-8.05972379385829e-001

3.34035167771346e+004,-1.59283965831796e+001,-8.17222407577159e-001

3.38698124945009e+004,-1.59284031609268e+001,-8.28629441030709e-001

3.43426174575100e+004,-1.59284099232777e+001,-8.40195669796473e-001

3.48220225318448e+004,-1.59284168754039e+001,-8.51923314425957e-001

3.53081198516260e+004,-1.59284240226214e+001,-8.63814626395455e-001

3.58010028371187e+004,-1.59284313703946e+001,-8.75871888534930e-001

3.63007662126863e+004,-1.59284389243401e+001,-8.88097415461005e-001

3.68075060249948e+004,-1.59284466902315e+001,-9.00493554020087e-001

3.73213196614721e+004,-1.59284546740034e+001,-9.13062683731479e-001

3.78423058690237e+004,-1.59284628817554e+001,-9.25807217243042e-001

3.83705647730104e+004,-1.59284713197579e+001,-9.38729600787167e-001

3.89061978964912e+004,-1.59284799944554e+001,-9.51832314647786e-001

3.94493081797342e+004,-1.59284889124724e+001,-9.65117873629892e-001

3.99999999999998e+004,-1.59284980806175e+001,-9.78588827539584e-001

4.05583791916010e+004,-1.59285075058894e+001,-9.92247761665131e-001

4.11245530662425e+004,-1.59285171954814e+001,-1.00609729726946e+000

4.16986304336447e+004,-1.59285271567870e+001,-1.02014009208817e+000

4.22807216224550e+004,-1.59285373974054e+001,-1.03437884083247e+000

4.28709385014515e+004,-1.59285479251474e+001,-1.04881627569968e+000

4.34693945010421e+004,-1.59285587480409e+001,-1.06345516689265e+000

4.40762046350642e+004,-1.59285698743369e+001,-1.07829832314366e+000

4.46914855228886e+004,-1.59285813125159e+001,-1.09334859224706e+000

4.53153554118317e+004,-1.59285930712938e+001,-1.10860886159701e+000

4.59479341998812e+004,-1.59286051596288e+001,-1.12408205873554e+000

4.65893434587380e+004,-1.59286175867277e+001,-1.13977115190555e+000

4.72397064571810e+004,-1.59286303620529e+001,-1.15567915061210e+000

4.78991481847569e+004,-1.59286434953294e+001,-1.17180910619065e+000

4.85677953758016e+004,-1.59286569965517e+001,-1.18816411238545e+000

4.92457765337964e+004,-1.59286708759916e+001,-1.20474730593124e+000

4.99332219560642e+004,-1.59286851442055e+001,-1.22156186714682e+000

5.06302637588109e+004,-1.59286998120424e+001,-1.23861102053456e+000

5.13370359025159e+004,-1.59287148906514e+001,-1.25589803538813e+000

5.20536742176771e+004,-1.59287303914905e+001,-1.27342622640973e+000

5.27803164309155e+004,-1.59287463263346e+001,-1.29119895433233e+000

5.35171021914442e+004,-1.59287627072842e+001,-1.30921962655459e+000

5.42641730979066e+004,-1.59287795467745e+001,-1.32749169777996e+000

5.50216727255895e+004,-1.59287968575840e+001,-1.34601867066864e+000

5.57897466540159e+004,-1.59288146528442e+001,-1.36480409649266e+000

5.65685424949235e+004,-1.59288329460492e+001,-1.38385157580614e+000

5.73582099206328e+004,-1.59288517510651e+001,-1.40316475911875e+000

5.81589006928121e+004,-1.59288710821406e+001,-1.42274734758158e+000

5.89707686916437e+004,-1.59288909539170e+001,-1.44260309368072e+000

5.97939699453972e+004,-1.59289113814388e+001,-1.46273580193975e+000

6.06286626604156e+004,-1.59289323801647e+001,-1.48314932963258e+000

6.14750072515201e+004,-1.59289539659787e+001,-1.50384758750561e+000

6.23331663728396e+004,-1.59289761552015e+001,-1.52483454050706e+000

6.32033049490698e+004,-1.59289989646024e+001,-1.54611420852882e+000

6.40855902071694e+004,-1.59290224114109e+001,-1.56769066715743e+000

6.49801917084985e+004,-1.59290465133294e+001,-1.58956804843255e+000

6.58872813814055e+004,-1.59290712885461e+001,-1.61175054161838e+000

6.68070335542691e+004,-1.59290967557471e+001,-1.63424239398329e+000

6.77396249890018e+004,-1.59291229341307e+001,-1.65704791159062e+000

6.86852349150199e+004,-1.59291498434203e+001,-1.68017146009792e+000

6.96440450636895e+004,-1.59291775038787e+001,-1.70361746556962e+000

7.06162397032520e+004,-1.59292059363222e+001,-1.72739041529770e+000

7.16020056742374e+004,-1.59292351621357e+001,-1.75149485863244e+000

7.26015324253724e+004,-1.59292652032873e+001,-1.77593540782784e+000

7.36150120499896e+004,-1.59292960823439e+001,-1.80071673889243e+000

7.46426393229441e+004,-1.59293278224869e+001,-1.82584359245581e+000

7.56846117380472e+004,-1.59293604475284e+001,-1.85132077464323e+000

7.67411295460207e+004,-1.59293939819281e+001,-1.87715315796260e+000

7.78123957929823e+004,-1.59294284508097e+001,-1.90334568220266e+000

7.88986163594682e+004,-1.59294638799787e+001,-1.92990335534266e+000

7.99999999999995e+004,-1.59295002959399e+001,-1.95683125447353e+000

8.11167583832018e+004,-1.59295377259161e+001,-1.98413452672989e+000

8.22491061324848e+004,-1.59295761978662e+001,-2.01181839023546e+000

8.33972608672892e+004,-1.59296157405047e+001,-2.03988813505927e+000

8.45614432449099e+004,-1.59296563833211e+001,-2.06834912418408e+000

8.57418770029029e+004,-1.59296981566001e+001,-2.09720679448683e+000

8.69387890020841e+004,-1.59297410914418e+001,-2.12646665773183e+000

8.81524092701283e+004,-1.59297852197827e+001,-2.15613430157667e+000

8.93829710457770e+004,-1.59298305744177e+001,-2.18621539058834e+000

9.06307108236633e+004,-1.59298771890210e+001,-2.21671566727631e+000

9.18958683997622e+004,-1.59299250981696e+001,-2.24764095313281e+000

9.31786869174758e+004,-1.59299743373656e+001,-2.27899714969176e+000

9.44794129143618e+004,-1.59300249430597e+001,-2.31079023959654e+000

9.57982963695136e+004,-1.59300769526758e+001,-2.34302628768228e+000

9.71355907516031e+004,-1.59301304046346e+001,-2.37571144207173e+000

9.84915530675926e+004,-1.59301853383793e+001,-2.40885193528475e+000

9.98664439121282e+004,-1.59302417944010e+001,-2.44245408536031e+000

1.01260527517622e+005,-1.59302998142649e+001,-2.47652429699268e+000

1.02674071805032e+005,-1.59303594406372e+001,-2.51106906268155e+000

1.04107348435354e+005,-1.59304207173118e+001,-2.54609496389627e+000

1.05560632861831e+005,-1.59304836892391e+001,-2.58160867225309e+000

1.07034204382888e+005,-1.59305484025534e+001,-2.61761695070792e+000

1.08528346195813e+005,-1.59306149046031e+001,-2.65412665476199e+000

1.10043345451179e+005,-1.59306832439792e+001,-2.69114473368358e+000

1.11579493308032e+005,-1.59307534705464e+001,-2.72867823174259e+000

1.13137084989847e+005,-1.59308256354735e+001,-2.76673428946158e+000

1.14716419841265e+005,-1.59308997912652e+001,-2.80532014487925e+000

1.16317801385624e+005,-1.59309759917937e+001,-2.84444313483212e+000

1.17941537383287e+005,-1.59310542923318e+001,-2.88411069624800e+000

1.19587939890794e+005,-1.59311347495864e+001,-2.92433036745692e+000

1.21257325320831e+005,-1.59312174217318e+001,-2.96510978951685e+000

1.22950014503040e+005,-1.59313023684449e+001,-3.00645670755468e+000

1.24666332745679e+005,-1.59313896509404e+001,-3.04837897212244e+000

1.26406609898139e+005,-1.59314793320063e+001,-3.09088454057120e+000

1.28171180414339e+005,-1.59315714760406e+001,-3.13398147843870e+000

1.29960383416997e+005,-1.59316661490888e+001,-3.17767796085400e+000

1.31774562762811e+005,-1.59317634188812e+001,-3.22198227395866e+000

1.33614067108538e+005,-1.59318633548718e+001,-3.26690281634469e+000

1.35479249978003e+005,-1.59319660282768e+001,-3.31244810050752e+000

1.37370469830040e+005,-1.59320715121151e+001,-3.35862675431743e+000

1.39288090127379e+005,-1.59321798812481e+001,-3.40544752250652e+000

1.41232479406504e+005,-1.59322912124210e+001,-3.45291926817406e+000

1.43204011348474e+005,-1.59324055843044e+001,-3.50105097430824e+000

1.45203064850745e+005,-1.59325230775364e+001,-3.54985174532527e+000

1.47230024099979e+005,-1.59326437747657e+001,-3.59933080862712e+000

1.49285278645888e+005,-1.59327677606952e+001,-3.64949751617512e+000

1.51369223476094e+005,-1.59328951221259e+001,-3.70036134608463e+000

1.53482259092041e+005,-1.59330259480019e+001,-3.75193190423451e+000

1.55624791585964e+005,-1.59331603294555e+001,-3.80421892589749e+000

1.57797232718936e+005,-1.59332983598531e+001,-3.85723227738859e+000

1.59999999999999e+005,-1.59334401348421e+001,-3.91098195773154e+000

1.62233516766403e+005,-1.59335857523975e+001,-3.96547810034572e+000

1.64498212264969e+005,-1.59337353128697e+001,-4.02073097475176e+000

1.66794521734578e+005,-1.59338889190329e+001,-4.07675098829652e+000

1.69122886489819e+005,-1.59340466761333e+001,-4.13354868789892e+000

1.71483754005805e+005,-1.59342086919385e+001,-4.19113476181475e+000

1.73877578004168e+005,-1.59343750767876e+001,-4.24952004142329e+000

1.76304818540256e+005,-1.59345459436405e+001,-4.30871550303443e+000

1.78765942091554e+005,-1.59347214081294e+001,-4.36873226971607e+000

1.81261421647326e+005,-1.59349015886094e+001,-4.42958161314365e+000

1.83791736799524e+005,-1.59350866062099e+001,-4.49127495547253e+000

1.86357373834951e+005,-1.59352765848868e+001,-4.55382387123081e+000

1.88958825828723e+005,-1.59354716514747e+001,-4.61724008923622e+000

1.91596592739027e+005,-1.59356719357394e+001,-4.68153549453533e+000

1.94271181503206e+005,-1.59358775704309e+001,-4.74672213036732e+000

1.96983106135185e+005,-1.59360886913367e+001,-4.81281220014981e+000

1.99732887824256e+005,-1.59363054373357e+001,-4.87981806949143e+000

2.02521055035243e+005,-1.59365279504513e+001,-4.94775226822835e+000

2.05348143610063e+005,-1.59367563759063e+001,-5.01662749248551e+000

2.08214696870707e+005,-1.59369908621769e+001,-5.08645660676603e+000

2.11121265723661e+005,-1.59372315610473e+001,-5.15725264606558e+000

2.14068408765776e+005,-1.59374786276640e+001,-5.22902881801469e+000

2.17056692391625e+005,-1.59377322205917e+001,-5.30179850504925e+000

2.20086690902357e+005,-1.59379925018673e+001,-5.37557526660968e+000

2.23158986616063e+005,-1.59382596370555e+001,-5.45037284136929e+000

2.26274169979693e+005,-1.59385337953043e+001,-5.52620514949289e+000

2.29432839682530e+005,-1.59388151494001e+001,-5.60308629492690e+000

2.32635602771247e+005,-1.59391038758231e+001,-5.68103056772028e+000

2.35883074766574e+005,-1.59394001548030e+001,-5.76005244637951e+000

2.39175879781588e+005,-1.59397041703747e+001,-5.84016660025566e+000

2.42514650641661e+005,-1.59400161104338e+001,-5.92138789196708e+000

2.45900029006080e+005,-1.59403361667923e+001,-6.00373137985788e+000

2.49332665491357e+005,-1.59406645352345e+001,-6.08721232049180e+000

2.52813219796278e+005,-1.59410014155731e+001,-6.17184617118414e+000

2.56342360828676e+005,-1.59413470117049e+001,-6.25764859257389e+000

2.59920766833993e+005,-1.59417015316666e+001,-6.34463545123388e+000

2.63549125525621e+005,-1.59420651876920e+001,-6.43282282232251e+000

2.67228134217075e+005,-1.59424381962674e+001,-6.52222699227895e+000

2.70958499956006e+005,-1.59428207781887e+001,-6.61286446156051e+000

2.74740939660078e+005,-1.59432131586182e+001,-6.70475194742649e+000

2.78576180254757e+005,-1.59436155671418e+001,-6.79790638676626e+000

2.82464958813007e+005,-1.59440282378264e+001,-6.89234493897807e+000

2.86408022696948e+005,-1.59444514092785e+001,-6.98808498889354e+000

2.90406129701488e+005,-1.59448853247018e+001,-7.08514414975628e+000

2.94460048199957e+005,-1.59453302319573e+001,-7.18354026624983e+000

2.98570557291775e+005,-1.59457863836229e+001,-7.28329141758072e+000

3.02738446952187e+005,-1.59462540370543e+001,-7.38441592061682e+000

3.06964518184081e+005,-1.59467334544469e+001,-7.48693233308210e+000

3.11249583171928e+005,-1.59472249028985e+001,-7.59085945680959e+000

3.15594465437872e+005,-1.59477286544744e+001,-7.69621634105491e+000

3.19999999999997e+005,-1.59482449862724e+001,-7.80302228587162e+000

3.24467033532806e+005,-1.59487741804910e+001,-7.91129684554922e+000

3.28996424529938e+005,-1.59493165244985e+001,-8.02105983211675e+000

3.33589043469155e+005,-1.59498723109050e+001,-8.13233131891209e+000

3.38245772979638e+005,-1.59504418376360e+001,-8.24513164422098e+000

3.42967508011610e+005,-1.59510254080099e+001,-8.35948141498444e+000

3.47755156008335e+005,-1.59516233308166e+001,-8.47540151057768e+000

3.52609637080511e+005,-1.59522359204015e+001,-8.59291308666270e+000

3.57531884183106e+005,-1.59528634967515e+001,-8.71203757911486e+000

3.62522843294651e+005,-1.59535063855858e+001,-8.83279670802468e+000

3.67583473599047e+005,-1.59541649184502e+001,-8.95521248177752e+000

3.72714747669902e+005,-1.59548394328176e+001,-9.07930720121142e+000

3.77917651657445e+005,-1.59555302721917e+001,-9.20510346385431e+000

3.83193185478053e+005,-1.59562377862178e+001,-9.33262416824305e+000

3.88542363006410e+005,-1.59569623307988e+001,-9.46189251832194e+000

3.93966212270369e+005,-1.59577042682181e+001,-9.59293202792634e+000

3.99465775648511e+005,-1.59584639672690e+001,-9.72576652534838e+000

4.05042110070485e+005,-1.59592418033920e+001,-9.86042015798633e+000

4.10696287220124e+005,-1.59600381588200e+001,-9.99691739707885e+000

4.16429393741414e+005,-1.59608534227319e+001,-1.01352830425242e+001

4.22242531447321e+005,-1.59616879914155e+001,-1.02755422277832e+001

4.28136817531551e+005,-1.59625422684402e+001,-1.04177204248679e+001

4.34113384783250e+005,-1.59634166648394e+001,-1.05618434494139e+001

4.40173381804713e+005,-1.59643115993049e+001,-1.07079374658364e+001

4.46317973232124e+005,-1.59652274983913e+001,-1.08560289925705e+001

4.52548339959385e+005,-1.59661647967343e+001,-1.10061449073913e+001

4.58865679365059e+005,-1.59671239372802e+001,-1.11583124528177e+001

4.65271205542494e+005,-1.59681053715297e+001,-1.13125592415932e+001

4.71766149533147e+005,-1.59691095597957e+001,-1.14689132622453e+001

4.78351759563174e+005,-1.59701369714753e+001,-1.16274028847206e+001

4.85029301283321e+005,-1.59711880853375e+001,-1.17880568660934e+001

4.91800058012158e+005,-1.59722633898271e+001,-1.19509043563437e+001

4.98665330982714e+005,-1.59733633833846e+001,-1.21159749042046e+001

5.05626439592555e+005,-1.59744885747835e+001,-1.22832984630736e+001

5.12684721657352e+005,-1.59756394834856e+001,-1.24529053969849e+001

5.19841533667984e+005,-1.59768166400144e+001,-1.26248264866396e+001

5.27098251051240e+005,-1.59780205863479e+001,-1.27990929354895e+001

5.34456268434150e+005,-1.59792518763299e+001,-1.29757363758689e+001

5.41916999912011e+005,-1.59805110761020e+001,-1.31547888751726e+001

