Freq.,VOut,OutRef

1.00000000000000e+004,-1.77704362160995e+001,-1.74764727528224e-001

1.01395947979003e+004,-1.77704369473988e+001,-1.77204307659243e-001

1.02811382665607e+004,-1.77704376992531e+001,-1.79677941167822e-001

1.04246576084112e+004,-1.77704384722398e+001,-1.82186103341897e-001

1.05701804056138e+004,-1.77704392669528e+001,-1.84729276099910e-001

1.07177346253629e+004,-1.77704400840025e+001,-1.87307948083774e-001

1.08673486252606e+004,-1.77704409240167e+001,-1.89922614753278e-001

1.10190511587661e+004,-1.77704417876407e+001,-1.92573778480706e-001

1.11728713807222e+004,-1.77704426755378e+001,-1.95261948647129e-001

1.13288388529580e+004,-1.77704435883900e+001,-1.97987641740342e-001

1.14869835499703e+004,-1.77704445268984e+001,-2.00751381454224e-001

1.16473358646846e+004,-1.77704454917842e+001,-2.03553698786093e-001

1.18099266142953e+004,-1.77704464837882e+001,-2.06395132144301e-001

1.19747870461893e+004,-1.77704475036724e+001,-2.09276227445737e-001

1.21419488439505e+004,-1.77704485522204e+001,-2.12197538222957e-001

1.23114441334492e+004,-1.77704496302371e+001,-2.15159625732537e-001

1.24833054890161e+004,-1.77704507385505e+001,-2.18163059058448e-001

1.26575659397028e+004,-1.77704518780122e+001,-2.21208415220794e-001

1.28342589756290e+004,-1.77704530494966e+001,-2.24296279294443e-001

1.30134185544193e+004,-1.77704542539039e+001,-2.27427244508257e-001

1.31950791077289e+004,-1.77704554921586e+001,-2.30601912370673e-001

1.33792755478611e+004,-1.77704567652118e+001,-2.33820892778329e-001

1.35660432744767e+004,-1.77704580740408e+001,-2.37084804134295e-001

1.37554181813974e+004,-1.77704594196508e+001,-2.40394273466391e-001

1.39474366635040e+004,-1.77704608030749e+001,-2.43749936548477e-001

1.41421356237309e+004,-1.77704622253752e+001,-2.47152438021172e-001

1.43395524801583e+004,-1.77704636876439e+001,-2.50602431513806e-001

1.45397251732031e+004,-1.77704651910033e+001,-2.54100579775306e-001

1.47426921729110e+004,-1.77704667366079e+001,-2.57647554791568e-001

1.49484924863494e+004,-1.77704683256438e+001,-2.61244037924340e-001

1.51571656651040e+004,-1.77704699593313e+001,-2.64890720032625e-001

1.53687518128801e+004,-1.77704716389240e+001,-2.68588301612624e-001

1.55832915932100e+004,-1.77704733657114e+001,-2.72337492925954e-001

1.58008262372675e+004,-1.77704751410188e+001,-2.76139014137669e-001

1.60213975517924e+004,-1.77704769662087e+001,-2.79993595456190e-001

1.62450479271247e+004,-1.77704788426819e+001,-2.83901977268800e-001

1.64718203453514e+004,-1.77704807718786e+001,-2.87864910285951e-001

1.67017583885674e+004,-1.77704827552792e+001,-2.91883155684237e-001

1.69349062472505e+004,-1.77704847944056e+001,-2.95957485252460e-001

1.71713087287550e+004,-1.77704868908225e+001,-3.00088681538311e-001

1.74110112659224e+004,-1.77704890461387e+001,-3.04277537996576e-001

1.76540599258131e+004,-1.77704912620074e+001,-3.08524859146340e-001

1.79005014185594e+004,-1.77704935401289e+001,-3.12831460716608e-001

1.81503831063432e+004,-1.77704958822509e+001,-3.17198169808432e-001

1.84037530124975e+004,-1.77704982901699e+001,-3.21625825051647e-001

1.86606598307361e+004,-1.77705007657330e+001,-3.26115276761727e-001

1.89211529345119e+004,-1.77705033108389e+001,-3.30667387107268e-001

1.91852823865052e+004,-1.77705059274396e+001,-3.35283030270518e-001

1.94530989482457e+004,-1.77705086175420e+001,-3.39963092615506e-001

1.97246540898671e+004,-1.77705113832087e+001,-3.44708472858365e-001

1.99999999999999e+004,-1.77705142265608e+001,-3.49520082236711e-001

2.02791895958005e+004,-1.77705171497783e+001,-3.54398844685194e-001

2.05622765331213e+004,-1.77705201551022e+001,-3.59345697012289e-001

2.08493152168224e+004,-1.77705232448368e+001,-3.64361589075213e-001

2.11403608112276e+004,-1.77705264213503e+001,-3.69447483965978e-001

2.14354692507258e+004,-1.77705296870779e+001,-3.74604358190806e-001

2.17346972505211e+004,-1.77705330445224e+001,-3.79833201859222e-001

2.20381023175322e+004,-1.77705364962568e+001,-3.85135018871225e-001

2.23457427614443e+004,-1.77705400449264e+001,-3.90510827107847e-001

2.26576777059159e+004,-1.77705436932503e+001,-3.95961658626128e-001

2.29739670999406e+004,-1.77705474440238e+001,-4.01488559856860e-001

2.32946717293690e+004,-1.77705513001204e+001,-4.07092591799334e-001

2.36198532285905e+004,-1.77705552644939e+001,-4.12774830228695e-001

2.39495740923785e+004,-1.77705593401808e+001,-4.18536365897043e-001

2.42838976879009e+004,-1.77705635303027e+001,-4.24378304740631e-001

2.46228882668982e+004,-1.77705678380683e+001,-4.30301768092922e-001

2.49666109780322e+004,-1.77705722667760e+001,-4.36307892895159e-001

2.53151318794055e+004,-1.77705768198167e+001,-4.42397831912861e-001

2.56685179512580e+004,-1.77705815006759e+001,-4.48572753955896e-001

2.60268371088386e+004,-1.77705863129363e+001,-4.54833844099865e-001

2.63901582154578e+004,-1.77705912602811e+001,-4.61182303910003e-001

2.67585510957221e+004,-1.77705963464965e+001,-4.67619351669344e-001

2.71320865489533e+004,-1.77706015754739e+001,-4.74146222612121e-001

2.75108363627948e+004,-1.77706069512139e+001,-4.80764169155143e-001

2.78948733270080e+004,-1.77706124778287e+001,-4.87474461136226e-001

2.82842712474618e+004,-1.77706181595453e+001,-4.94278386054545e-001

2.86791049603164e+004,-1.77706240007085e+001,-5.01177249316305e-001

2.90794503464061e+004,-1.77706300057849e+001,-5.08172374478112e-001

2.94853843458219e+004,-1.77706361793651e+001,-5.15265103500638e-001

2.98969849726987e+004,-1.77706425261682e+001,-5.22456797001550e-001

3.03143313302078e+004,-1.77706490510450e+001,-5.29748834510788e-001

3.07375036257601e+004,-1.77706557589810e+001,-5.37142614736096e-001

3.11665831864199e+004,-1.77706626551013e+001,-5.44639555821308e-001

3.16016524745350e+004,-1.77706697446738e+001,-5.52241095617213e-001

3.20427951035848e+004,-1.77706770331128e+001,-5.59948691954453e-001

3.24900958542493e+004,-1.77706845259838e+001,-5.67763822914111e-001

3.29436406907028e+004,-1.77706922290071e+001,-5.75687987109938e-001

3.34035167771346e+004,-1.77707001480625e+001,-5.83722703969923e-001

3.38698124945009e+004,-1.77707082891934e+001,-5.91869514020146e-001

3.43426174575100e+004,-1.77707166586114e+001,-6.00129979178174e-001

3.48220225318448e+004,-1.77707252627007e+001,-6.08505683044515e-001

3.53081198516260e+004,-1.77707341080235e+001,-6.16998231200571e-001

3.58010028371187e+004,-1.77707432013243e+001,-6.25609251510412e-001

3.63007662126863e+004,-1.77707525495348e+001,-6.34340394427152e-001

3.68075060249948e+004,-1.77707621597797e+001,-6.43193333301230e-001

3.73213196614721e+004,-1.77707720393815e+001,-6.52169764695100e-001

3.78423058690237e+004,-1.77707821958660e+001,-6.61271408700432e-001

3.83705647730104e+004,-1.77707926369679e+001,-6.70500009260916e-001

3.89061978964912e+004,-1.77708033706367e+001,-6.79857334497627e-001

3.94493081797342e+004,-1.77708144050423e+001,-6.89345177039214e-001

3.99999999999998e+004,-1.77708257485812e+001,-6.98965354359677e-001

4.05583791916010e+004,-1.77708374098826e+001,-7.08719709113653e-001

4.11245530662425e+004,-1.77708493978147e+001,-7.18610109482250e-001

4.16986304336447e+004,-1.77708617214918e+001,-7.28638449520262e-001

4.22807216224550e+004,-1.77708743902799e+001,-7.38806649510840e-001

4.28709385014515e+004,-1.77708874138045e+001,-7.49116656319321e-001

4.34693945010421e+004,-1.77709008019576e+001,-7.59570443757624e-001

4.40762046350642e+004,-1.77709145649041e+001,-7.70170012951022e-001

4.46914855228886e+004,-1.77709287130903e+001,-7.80917392706544e-001

4.53153554118317e+004,-1.77709432572509e+001,-7.91814639891827e-001

4.59479341998812e+004,-1.77709582084170e+001,-8.02863839814784e-001

4.65893434587380e+004,-1.77709735779241e+001,-8.14067106609071e-001

4.72397064571810e+004,-1.77709893774201e+001,-8.25426583625007e-001

4.78991481847569e+004,-1.77710056188743e+001,-8.36944443825573e-001

4.85677953758016e+004,-1.77710223145856e+001,-8.48622890185673e-001

4.92457765337964e+004,-1.77710394771915e+001,-8.60464156099068e-001

4.99332219560642e+004,-1.77710571196773e+001,-8.72470505788652e-001

5.06302637588109e+004,-1.77710752553854e+001,-8.84644234721945e-001

5.13370359025159e+004,-1.77710938980249e+001,-8.96987670033742e-001

5.20536742176771e+004,-1.77711130616814e+001,-9.09503170950324e-001

5.27803164309155e+004,-1.77711327608271e+001,-9.22193129222567e-001

5.35171021914442e+004,-1.77711530103313e+001,-9.35059969563094e-001

5.42641730979066e+004,-1.77711738254707e+001,-9.48106150088955e-001

5.50216727255895e+004,-1.77711952219405e+001,-9.61334162767481e-001

5.57897466540159e+004,-1.77712172158654e+001,-9.74746533873726e-001

5.65685424949235e+004,-1.77712398238112e+001,-9.88345824445465e-001

5.73582099206328e+004,-1.77712630627965e+001,-1.00213463074997e+000

5.81589006928121e+004,-1.77712869503043e+001,-1.01611558475468e+000

5.89707686916437e+004,-1.77713115042949e+001,-1.03029135460138e+000

5.97939699453972e+004,-1.77713367432180e+001,-1.04466464509020e+000

6.06286626604156e+004,-1.77713626860259e+001,-1.05923819816496e+000

6.14750072515201e+004,-1.77713893521866e+001,-1.07401479340827e+000

6.23331663728396e+004,-1.77714167616975e+001,-1.08899724853993e+000

6.32033049490698e+004,-1.77714449350988e+001,-1.10418841992276e+000

6.40855902071694e+004,-1.77714738934885e+001,-1.11959120307228e+000

6.49801917084985e+004,-1.77715036585361e+001,-1.13520853317671e+000

6.58872813814055e+004,-1.77715342524980e+001,-1.15104338561683e+000

6.68070335542691e+004,-1.77715656982327e+001,-1.16709877649762e+000

6.77396249890018e+004,-1.77715980192163e+001,-1.18337776318358e+000

6.86852349150199e+004,-1.77716312395587e+001,-1.19988344483855e+000

6.96440450636895e+004,-1.77716653840194e+001,-1.21661896297620e+000

7.06162397032520e+004,-1.77717004780248e+001,-1.23358750201159e+000

7.16020056742374e+004,-1.77717365476851e+001,-1.25079228982394e+000

7.26015324253724e+004,-1.77717736198117e+001,-1.26823659832141e+000

7.36150120499896e+004,-1.77718117219354e+001,-1.28592374401462e+000

7.46426393229441e+004,-1.77718508823242e+001,-1.30385708859699e+000

7.56846117380472e+004,-1.77718911300025e+001,-1.32204003952990e+000

7.67411295460207e+004,-1.77719324947702e+001,-1.34047605063452e+000

7.78123957929823e+004,-1.77719750072217e+001,-1.35916862269124e+000

7.88986163594682e+004,-1.77720186987666e+001,-1.37812130404532e+000

7.99999999999995e+004,-1.77720636016496e+001,-1.39733769121741e+000

8.11167583832018e+004,-1.77721097489718e+001,-1.41682142952328e+000

8.22491061324848e+004,-1.77721571747114e+001,-1.43657621369722e+000

8.33972608672892e+004,-1.77722059137461e+001,-1.45660578852582e+000

8.45614432449099e+004,-1.77722560018747e+001,-1.47691394948288e+000

8.57418770029029e+004,-1.77723074758404e+001,-1.49750454337732e+000

8.69387890020841e+004,-1.77723603733531e+001,-1.51838146900281e+000

8.81524092701283e+004,-1.77724147331138e+001,-1.53954867779582e+000

8.93829710457770e+004,-1.77724705948382e+001,-1.56101017450114e+000

9.06307108236633e+004,-1.77725279992813e+001,-1.58277001784291e+000

9.18958683997622e+004,-1.77725869882625e+001,-1.60483232120171e+000

9.31786869174758e+004,-1.77726476046910e+001,-1.62720125330125e+000

9.44794129143618e+004,-1.77727098925918e+001,-1.64988103889829e+000

9.57982963695136e+004,-1.77727738971321e+001,-1.67287595948142e+000

9.71355907516031e+004,-1.77728396646483e+001,-1.69619035397592e+000

9.84915530675926e+004,-1.77729072426733e+001,-1.71982861945489e+000

9.98664439121282e+004,-1.77729766799646e+001,-1.74379521185854e+000

1.01260527517622e+005,-1.77730480265325e+001,-1.76809464671795e+000

1.02674071805032e+005,-1.77731213336692e+001,-1.79273149988730e+000

1.04107348435354e+005,-1.77731966539775e+001,-1.81771040828262e+000

1.05560632861831e+005,-1.77732740414017e+001,-1.84303607062582e+000

1.07034204382888e+005,-1.77733535512567e+001,-1.86871324819735e+000

1.08528346195813e+005,-1.77734352402598e+001,-1.89474676559398e+000

1.10043345451179e+005,-1.77735191665609e+001,-1.92114151149426e+000

1.11579493308032e+005,-1.77736053897753e+001,-1.94790243942919e+000

1.13137084989847e+005,-1.77736939710149e+001,-1.97503456856165e+000

1.14716419841265e+005,-1.77737849729211e+001,-2.00254298447006e+000

1.16317801385624e+005,-1.77738784596978e+001,-2.03043283994119e+000

1.17941537383287e+005,-1.77739744971448e+001,-2.05870935576618e+000

1.19587939890794e+005,-1.77740731526916e+001,-2.08737782154745e+000

1.21257325320831e+005,-1.77741744954316e+001,-2.11644359650771e+000

1.22950014503040e+005,-1.77742785961566e+001,-2.14591211030829e+000

1.24666332745679e+005,-1.77743855273918e+001,-2.17578886387390e+000

1.26406609898139e+005,-1.77744953634312e+001,-2.20607943022210e+000

1.28171180414339e+005,-1.77746081803728e+001,-2.23678945530152e+000

1.29960383416997e+005,-1.77747240561550e+001,-2.26792465883384e+000

1.31774562762811e+005,-1.77748430705926e+001,-2.29949083516600e+000

1.33614067108538e+005,-1.77749653054129e+001,-2.33149385412493e+000

1.35479249978003e+005,-1.77750908442929e+001,-2.36393966188083e+000

1.37370469830040e+005,-1.77752197728956e+001,-2.39683428181753e+000

1.39288090127379e+005,-1.77753521789076e+001,-2.43018381540756e+000

1.41232479406504e+005,-1.77754881520757e+001,-2.46399444309458e+000

1.43204011348474e+005,-1.77756277842445e+001,-2.49827242518339e+000

1.45203064850745e+005,-1.77757711693935e+001,-2.53302410273407e+000

1.47230024099979e+005,-1.77759184036746e+001,-2.56825589846543e+000

1.49285278645888e+005,-1.77760695854491e+001,-2.60397431766223e+000

1.51369223476094e+005,-1.77762248153256e+001,-2.64018594909263e+000

1.53482259092041e+005,-1.77763841961961e+001,-2.67689746592863e+000

1.55624791585964e+005,-1.77765478332741e+001,-2.71411562667641e+000

1.57797232718936e+005,-1.77767158341304e+001,-2.75184727611156e+000

1.59999999999999e+005,-1.77768883087301e+001,-2.79009934622342e+000

1.62233516766403e+005,-1.77770653694687e+001,-2.82887885716360e+000

1.64498212264969e+005,-1.77772471312077e+001,-2.86819291820494e+000

1.66794521734578e+005,-1.77774337113101e+001,-2.90804872870627e+000

1.69122886489819e+005,-1.77776252296752e+001,-2.94845357908533e+000

1.71483754005805e+005,-1.77778218087727e+001,-2.98941485179910e+000

1.73877578004168e+005,-1.77780235736763e+001,-3.03094002233247e+000

1.76304818540256e+005,-1.77782306520967e+001,-3.07303666019619e+000

1.78765942091554e+005,-1.77784431744136e+001,-3.11571242993173e+000

1.81261421647326e+005,-1.77786612737067e+001,-3.15897509212632e+000

1.83791736799524e+005,-1.77788850857862e+001,-3.20283250443711e+000

1.86357373834951e+005,-1.77791147492219e+001,-3.24729262262409e+000

1.88958825828723e+005,-1.77793504053709e+001,-3.29236350159507e+000

1.91596592739027e+005,-1.77795921984050e+001,-3.33805329645886e+000

1.94271181503206e+005,-1.77798402753359e+001,-3.38437026359057e+000

1.96983106135185e+005,-1.77800947860391e+001,-3.43132276170934e+000

1.99732887824256e+005,-1.77803558832772e+001,-3.47891925296589e+000

2.02521055035243e+005,-1.77806237227201e+001,-3.52716830404527e+000

2.05348143610063e+005,-1.77808984629652e+001,-3.57607858728086e+000

2.08214696870707e+005,-1.77811802655543e+001,-3.62565888178446e+000

2.11121265723661e+005,-1.77814692949897e+001,-3.67591807458989e+000

2.14068408765776e+005,-1.77817657187477e+001,-3.72686516181260e+000

2.17056692391625e+005,-1.77820697072904e+001,-3.77850924982643e+000

2.20086690902357e+005,-1.77823814340752e+001,-3.83085955645679e+000

2.23158986616063e+005,-1.77827010755618e+001,-3.88392541219447e+000

2.26274169979693e+005,-1.77830288112172e+001,-3.93771626142681e+000

2.29432839682530e+005,-1.77833648235179e+001,-3.99224166369125e+000

2.32635602771247e+005,-1.77837092979501e+001,-4.04751129495031e+000

2.35883074766574e+005,-1.77840624230065e+001,-4.10353494889000e+000

2.39175879781588e+005,-1.77844243901808e+001,-4.16032253824361e+000

2.42514650641661e+005,-1.77847953939598e+001,-4.21788409614026e+000

2.45900029006080e+005,-1.77851756318114e+001,-4.27622977748283e+000

2.49332665491357e+005,-1.77855653041712e+001,-4.33536986035361e+000

2.52813219796278e+005,-1.77859646144249e+001,-4.39531474745245e+000

2.56342360828676e+005,-1.77863737688881e+001,-4.45607496756717e+000

2.59920766833993e+005,-1.77867929767831e+001,-4.51766117707768e+000

2.63549125525621e+005,-1.77872224502124e+001,-4.58008416149821e+000

2.67228134217075e+005,-1.77876624041287e+001,-4.64335483705751e+000

2.70958499956006e+005,-1.77881130563027e+001,-4.70748425231911e+000

2.74740939660078e+005,-1.77885746272864e+001,-4.77248358984619e+000

2.78576180254757e+005,-1.77890473403745e+001,-4.83836416791022e+000

2.82464958813007e+005,-1.77895314215616e+001,-4.90513744224695e+000

2.86408022696948e+005,-1.77900270994971e+001,-4.97281500786431e+000

2.90406129701488e+005,-1.77905346054365e+001,-5.04140860090125e+000

2.94460048199957e+005,-1.77910541731904e+001,-5.11093010054121e+000

2.98570557291775e+005,-1.77915860390700e+001,-5.18139153098511e+000

3.02738446952187e+005,-1.77921304418297e+001,-5.25280506348398e+000

3.06964518184081e+005,-1.77926876226087e+001,-5.32518301843391e+000

3.11249583171928e+005,-1.77932578248678e+001,-5.39853786753827e+000

3.15594465437872e+005,-1.77938412943264e+001,-5.47288223603872e+000

3.19999999999997e+005,-1.77944382788954e+001,-5.54822890501702e+000

3.24467033532806e+005,-1.77950490286101e+001,-5.62459081377311e+000

3.28996424529938e+005,-1.77956737955606e+001,-5.70198106227886e+000

3.33589043469155e+005,-1.77963128338213e+001,-5.78041291371441e+000

3.38245772979638e+005,-1.77969663993800e+001,-5.85989979708695e+000

3.42967508011610e+005,-1.77976347500659e+001,-5.94045530993578e+000

3.47755156008335e+005,-1.77983181454784e+001,-6.02209322112723e+000

3.52609637080511e+005,-1.77990168469155e+001,-6.10482747374174e+000

3.57531884183106e+005,-1.77997311173038e+001,-6.18867218805528e+000

3.62522843294651e+005,-1.78004612211298e+001,-6.27364166461974e+000

3.67583473599047e+005,-1.78012074243725e+001,-6.35975038744106e+000

3.72714747669902e+005,-1.78019699944397e+001,-6.44701302726317e+000

3.77917651657445e+005,-1.78027492001068e+001,-6.53544444495456e+000

3.83193185478053e+005,-1.78035453114594e+001,-6.62505969500361e+000

3.88542363006410e+005,-1.78043585998405e+001,-6.71587402912271e+000

3.93966212270369e+005,-1.78051893378037e+001,-6.80790289996344e+000

3.99465775648511e+005,-1.78060377990713e+001,-6.90116196494490e+000

4.05042110070485e+005,-1.78069042584999e+001,-6.99566709019621e+000

4.10696287220124e+005,-1.78077889920537e+001,-7.09143435461474e+000

4.16429393741414e+005,-1.78086922767863e+001,-7.18848005403966e+000

4.22242531447321e+005,-1.78096143908314e+001,-7.28682070554412e+000

4.28136817531551e+005,-1.78105556134050e+001,-7.38647305184287e+000

4.34113384783250e+005,-1.78115162248172e+001,-7.48745406581822e+000

4.40173381804713e+005,-1.78124965064983e+001,-7.58978095516257e+000

4.46317973232124e+005,-1.78134967410363e+001,-7.69347116713648e+000

4.52548339959385e+005,-1.78145172122295e+001,-7.79854239344265e+000

4.58865679365059e+005,-1.78155582051547e+001,-7.90501257521192e+000

4.65271205542494e+005,-1.78166200062504e+001,-8.01289990810186e+000

4.71766149533147e+005,-1.78177029034187e+001,-8.12222284750377e+000

4.78351759563174e+005,-1.78188071861446e+001,-8.23300011385576e+000

4.85029301283321e+005,-1.78199331456349e+001,-8.34525069805895e+000

4.91800058012158e+005,-1.78210810749773e+001,-8.45899386699282e+000

4.98665330982714e+005,-1.78222512693209e+001,-8.57424916912552e+000

5.05626439592555e+005,-1.78234440260790e+001,-8.69103644021388e+000

5.12684721657352e+005,-1.78246596451551e+001,-8.80937580908975e+000

5.19841533667984e+005,-1.78258984291927e+001,-8.92928770352464e+000

5.27098251051240e+005,-1.78271606838507e+001,-9.05079285616886e+000

5.34456268434150e+005,-1.78284467181043e+001,-9.17391231055717e+000

5.41916999912011e+005,-1.78297568445723e+001,-9.29866742717476e+000

