Freq.,VOut,OutRef

1.00000000000000e+004,-6.45531380506463e+000,-5.39346949821100e-002

1.01395947979003e+004,-6.45531395873277e+000,-5.46875802812633e-002

1.02811382665607e+004,-6.45531411671911e+000,-5.54509748335017e-002

1.04246576084112e+004,-6.45531427914563e+000,-5.62250253114059e-002

1.05701804056138e+004,-6.45531444613642e+000,-5.70098804418046e-002

1.07177346253629e+004,-6.45531461782030e+000,-5.78056910189081e-002

1.08673486252606e+004,-6.45531479432862e+000,-5.86126099475270e-002

1.10190511587661e+004,-6.45531497579706e+000,-5.94307922616904e-002

1.11728713807222e+004,-6.45531516236503e+000,-6.02603951585869e-002

1.13288388529580e+004,-6.45531535417566e+000,-6.11015780292435e-002

1.14869835499703e+004,-6.45531555137628e+000,-6.19545024877722e-002

1.16473358646846e+004,-6.45531575411805e+000,-6.28193324043696e-002

1.18099266142953e+004,-6.45531596255712e+000,-6.36962339303324e-002

1.19747870461893e+004,-6.45531617685301e+000,-6.45853755415303e-002

1.21419488439505e+004,-6.45531639717003e+000,-6.54869280611247e-002

1.23114441334492e+004,-6.45531662367806e+000,-6.64010646900984e-002

1.24833054890161e+004,-6.45531685655006e+000,-6.73279610549751e-002

1.26575659397028e+004,-6.45531709596548e+000,-6.82677952222091e-002

1.28342589756290e+004,-6.45531734210769e+000,-6.92207477485608e-002

1.30134185544193e+004,-6.45531759516560e+000,-7.01870017072309e-002

1.31950791077289e+004,-6.45531785533358e+000,-7.11667427229732e-002

1.33792755478611e+004,-6.45531812281106e+000,-7.21601590124737e-002

1.35660432744767e+004,-6.45531839780320e+000,-7.31674414164515e-002

1.37554181813974e+004,-6.45531868052127e+000,-7.41887834348237e-002

1.39474366635040e+004,-6.45531897118166e+000,-7.52243812711372e-002

1.41421356237309e+004,-6.45531927000804e+000,-7.62744338571032e-002

1.43395524801583e+004,-6.45531957722924e+000,-7.73391429063474e-002

1.45397251732031e+004,-6.45531989308080e+000,-7.84187129425520e-002

1.47426921729110e+004,-6.45532021780526e+000,-7.95133513392981e-002

1.49484924863494e+004,-6.45532055165167e+000,-8.06232683634563e-002

1.51571656651040e+004,-6.45532089487573e+000,-8.17486772164894e-002

1.53687518128801e+004,-6.45532124774093e+000,-8.28897940674079e-002

1.55832915932100e+004,-6.45532161051781e+000,-8.40468381016523e-002

1.58008262372675e+004,-6.45532198348453e+000,-8.52200315610803e-002

1.60213975517924e+004,-6.45532236692702e+000,-8.64095997848875e-002

1.62450479271247e+004,-6.45532276113900e+000,-8.76157712559950e-002

1.64718203453514e+004,-6.45532316642303e+000,-8.88387776383101e-002

1.67017583885674e+004,-6.45532358308951e+000,-9.00788538290607e-002

1.69349062472505e+004,-6.45532401145776e+000,-9.13362379984500e-002

1.71713087287550e+004,-6.45532445185644e+000,-9.26111716341983e-002

1.74110112659224e+004,-6.45532490462247e+000,-9.39038995953994e-002

1.76540599258131e+004,-6.45532537010338e+000,-9.52146701470100e-002

1.79005014185594e+004,-6.45532584865530e+000,-9.65437350208037e-002

1.81503831063432e+004,-6.45532634064507e+000,-9.78913494524660e-002

1.84037530124975e+004,-6.45532684644962e+000,-9.92577722352957e-002

1.86606598307361e+004,-6.45532736645622e+000,-1.00643265770286e-001

1.89211529345119e+004,-6.45532790106315e+000,-1.02048096114409e-001

1.91852823865052e+004,-6.45532845067980e+000,-1.03472533030845e-001

1.94530989482457e+004,-6.45532901572711e+000,-1.04916850041991e-001

1.97246540898671e+004,-6.45532959663760e+000,-1.06381324481194e-001

1.99999999999999e+004,-6.45533019385610e+000,-1.07866237544877e-001

2.02791895958005e+004,-6.45533080783937e+000,-1.09371874349604e-001

2.05622765331213e+004,-6.45533143905762e+000,-1.10898523979166e-001

2.08493152168224e+004,-6.45533208799392e+000,-1.12446479545936e-001

2.11403608112276e+004,-6.45533275514446e+000,-1.14016038247744e-001

2.14354692507258e+004,-6.45533344102000e+000,-1.15607501416088e-001

2.17346972505211e+004,-6.45533414614501e+000,-1.17221174583143e-001

2.20381023175322e+004,-6.45533487105886e+000,-1.18857367534351e-001

2.23457427614443e+004,-6.45533561631571e+000,-1.20516394369958e-001

2.26576777059159e+004,-6.45533638248550e+000,-1.22198573562511e-001

2.29739670999406e+004,-6.45533717015413e+000,-1.23904228017075e-001

2.32946717293690e+004,-6.45533797992329e+000,-1.25633685138680e-001

2.36198532285905e+004,-6.45533881241219e+000,-1.27387276884667e-001

2.39495740923785e+004,-6.45533966825661e+000,-1.29165339837904e-001

2.42838976879009e+004,-6.45534054811067e+000,-1.30968215261727e-001

2.46228882668982e+004,-6.45534145264631e+000,-1.32796249171970e-001

2.49666109780322e+004,-6.45534238255423e+000,-1.34649792399510e-001

2.53151318794055e+004,-6.45534333854474e+000,-1.36529200653667e-001

2.56685179512580e+004,-6.45534432134736e+000,-1.38434834597884e-001

2.60268371088386e+004,-6.45534533171227e+000,-1.40367059910338e-001

2.63901582154578e+004,-6.45534637041057e+000,-1.42326247356443e-001

2.67585510957221e+004,-6.45534743823478e+000,-1.44312772858743e-001

2.71320865489533e+004,-6.45534853599933e+000,-1.46327017569169e-001

2.75108363627948e+004,-6.45534966454143e+000,-1.48369367939749e-001

2.78948733270080e+004,-6.45535082472148e+000,-1.50440215796282e-001

2.82842712474618e+004,-6.45535201742393e+000,-1.52539958412459e-001

2.86791049603164e+004,-6.45535324355754e+000,-1.54668998586136e-001

2.90794503464061e+004,-6.45535450405661e+000,-1.56827744712604e-001

2.94853843458219e+004,-6.45535579988123e+000,-1.59016610864786e-001

2.98969849726987e+004,-6.45535713201832e+000,-1.61236016868663e-001

3.03143313302078e+004,-6.45535850148173e+000,-1.63486388386894e-001

3.07375036257601e+004,-6.45535990931404e+000,-1.65768156993138e-001

3.11665831864199e+004,-6.45536135658621e+000,-1.68081760258812e-001

3.16016524745350e+004,-6.45536284439924e+000,-1.70427641832273e-001

3.20427951035848e+004,-6.45536437388440e+000,-1.72806251524071e-001

3.24900958542493e+004,-6.45536594620453e+000,-1.75218045389747e-001

3.29436406907028e+004,-6.45536756255444e+000,-1.77663485818184e-001

3.34035167771346e+004,-6.45536922416204e+000,-1.80143041617210e-001

3.38698124945009e+004,-6.45537093228914e+000,-1.82657188102196e-001

3.43426174575100e+004,-6.45537268823267e+000,-1.85206407183650e-001

3.48220225318448e+004,-6.45537449332514e+000,-1.87791187459514e-001

3.53081198516260e+004,-6.45537634893613e+000,-1.90412024305904e-001

3.58010028371187e+004,-6.45537825647269e+000,-1.93069419971592e-001

3.63007662126863e+004,-6.45538021738069e+000,-1.95763883671019e-001

3.68075060249948e+004,-6.45538223314639e+000,-1.98495931676112e-001

3.73213196614721e+004,-6.45538430529644e+000,-2.01266087419768e-001

3.78423058690237e+004,-6.45538643539987e+000,-2.04074881587926e-001

3.83705647730104e+004,-6.45538862506861e+000,-2.06922852222690e-001

3.89061978964912e+004,-6.45539087595917e+000,-2.09810544819375e-001

3.94493081797342e+004,-6.45539318977356e+000,-2.12738512429991e-001

3.99999999999998e+004,-6.45539556826039e+000,-2.15707315767279e-001

4.05583791916010e+004,-6.45539801321643e+000,-2.18717523306289e-001

4.11245530662425e+004,-6.45540052648790e+000,-2.21769711391221e-001

4.16986304336447e+004,-6.45540310997108e+000,-2.24864464346571e-001

4.22807216224550e+004,-6.45540576561488e+000,-2.28002374577469e-001

4.28709385014515e+004,-6.45540849542136e+000,-2.31184042685867e-001

4.34693945010421e+004,-6.45541130144688e+000,-2.34410077581946e-001

4.40762046350642e+004,-6.45541418580479e+000,-2.37681096591345e-001

4.46914855228886e+004,-6.45541715066552e+000,-2.40997725576136e-001

4.53153554118317e+004,-6.45542019825889e+000,-2.44360599046125e-001

4.59479341998812e+004,-6.45542333087585e+000,-2.47770360275762e-001

4.65893434587380e+004,-6.45542655086948e+000,-2.51227661424967e-001

4.72397064571810e+004,-6.45542986065684e+000,-2.54733163658790e-001

4.78991481847569e+004,-6.45543326272085e+000,-2.58287537267525e-001

4.85677953758016e+004,-6.45543675961191e+000,-2.61891461790537e-001

4.92457765337964e+004,-6.45544035394967e+000,-2.65545626140739e-001

4.99332219560642e+004,-6.45544404842456e+000,-2.69250728732603e-001

5.06302637588109e+004,-6.45544784580011e+000,-2.73007477606732e-001

5.13370359025159e+004,-6.45545174891464e+000,-2.76816590561185e-001

5.20536742176771e+004,-6.45545576068306e+000,-2.80678795282631e-001

5.27803164309155e+004,-6.45545988409908e+000,-2.84594829477525e-001

5.35171021914442e+004,-6.45546412223682e+000,-2.88565441009354e-001

5.42641730979066e+004,-6.45546847825360e+000,-2.92591388029367e-001

5.50216727255895e+004,-6.45547295539143e+000,-2.96673439119234e-001

5.57897466540159e+004,-6.45547755697946e+000,-3.00812373427048e-001

5.65685424949235e+004,-6.45548228643603e+000,-3.05008980809690e-001

5.73582099206328e+004,-6.45548714727150e+000,-3.09264061972852e-001

5.81589006928121e+004,-6.45549214308941e+000,-3.13578428620875e-001

5.89707686916437e+004,-6.45549727759004e+000,-3.17952903597418e-001

5.97939699453972e+004,-6.45550255457250e+000,-3.22388321033223e-001

6.06286626604156e+004,-6.45550797793677e+000,-3.26885526499398e-001

6.14750072515201e+004,-6.45551355168643e+000,-3.31445377157107e-001

6.23331663728396e+004,-6.45551927993166e+000,-3.36068741908517e-001

6.32033049490698e+004,-6.45552516689149e+000,-3.40756501553222e-001

6.40855902071694e+004,-6.45553121689633e+000,-3.45509548946354e-001

6.49801917084985e+004,-6.45553743439133e+000,-3.50328789153176e-001

6.58872813814055e+004,-6.45554382393851e+000,-3.55215139613432e-001

6.68070335542691e+004,-6.45555039021999e+000,-3.60169530300791e-001

6.77396249890018e+004,-6.45555713804079e+000,-3.65192903888193e-001

6.86852349150199e+004,-6.45556407233207e+000,-3.70286215911044e-001

6.96440450636895e+004,-6.45557119815364e+000,-3.75450434939337e-001

7.06162397032520e+004,-6.45557852069732e+000,-3.80686542744107e-001

7.16020056742374e+004,-6.45558604529046e+000,-3.85995534467135e-001

7.26015324253724e+004,-6.45559377739846e+000,-3.91378418798473e-001

7.36150120499896e+004,-6.45560172262844e+000,-3.96836218149348e-001

7.46426393229441e+004,-6.45560988673250e+000,-4.02369968828820e-001

7.56846117380472e+004,-6.45561827561118e+000,-4.07980721222764e-001

7.67411295460207e+004,-6.45562689531648e+000,-4.13669539977136e-001

7.78123957929823e+004,-6.45563575205571e+000,-4.19437504178809e-001

7.88986163594682e+004,-6.45564485219524e+000,-4.25285707538921e-001

7.99999999999995e+004,-6.45565420226343e+000,-4.31215258583588e-001

8.11167583832018e+004,-6.45566380895499e+000,-4.37227280837909e-001

8.22491061324848e+004,-6.45567367913417e+000,-4.43322913021123e-001

8.33972608672892e+004,-6.45568381983856e+000,-4.49503309236506e-001

8.45614432449099e+004,-6.45569423828355e+000,-4.55769639164343e-001

8.57418770029029e+004,-6.45570494186505e+000,-4.62123088263664e-001

8.69387890020841e+004,-6.45571593816444e+000,-4.68564857964974e-001

8.81524092701283e+004,-6.45572723495186e+000,-4.75096165874466e-001

8.93829710457770e+004,-6.45573884019062e+000,-4.81718245974153e-001

9.06307108236633e+004,-6.45575076204099e+000,-4.88432348827123e-001

9.18958683997622e+004,-6.45576300886421e+000,-4.95239741784394e-001

9.31786869174758e+004,-6.45577558922686e+000,-5.02141709191838e-001

9.44794129143618e+004,-6.45578851190488e+000,-5.09139552601050e-001

9.57982963695136e+004,-6.45580178588761e+000,-5.16234590982206e-001

9.71355907516031e+004,-6.45581542038224e+000,-5.23428160936389e-001

9.84915530675926e+004,-6.45582942481783e+000,-5.30721616913074e-001

9.98664439121282e+004,-6.45584380884971e+000,-5.38116331427768e-001

1.01260527517622e+005,-6.45585858236356e+000,-5.45613695282046e-001

1.02674071805032e+005,-6.45587375547984e+000,-5.53215117785220e-001

1.04107348435354e+005,-6.45588933855795e+000,-5.60922026978147e-001

1.05560632861831e+005,-6.45590534220064e+000,-5.68735869858694e-001

1.07034204382888e+005,-6.45592177725803e+000,-5.76658112610513e-001

1.08528346195813e+005,-6.45593865483213e+000,-5.84690240831174e-001

1.10043345451179e+005,-6.45595598628083e+000,-5.92833759765189e-001

1.11579493308032e+005,-6.45597378322245e+000,-6.01090194534822e-001

1.13137084989847e+005,-6.45599205753924e+000,-6.09461090379730e-001

1.14716419841265e+005,-6.45601082138247e+000,-6.17948012888320e-001

1.16317801385624e+005,-6.45603008717553e+000,-6.26552548242076e-001

1.17941537383287e+005,-6.45604986761841e+000,-6.35276303454596e-001

1.19587939890794e+005,-6.45607017569180e+000,-6.44120906612124e-001

1.21257325320831e+005,-6.45609102466049e+000,-6.53088007121975e-001

1.22950014503040e+005,-6.45611242807739e+000,-6.62179275956100e-001

1.24666332745679e+005,-6.45613439978712e+000,-6.71396405901310e-001

1.26406609898139e+005,-6.45615695392953e+000,-6.80741111808188e-001

1.28171180414339e+005,-6.45618010494328e+000,-6.90215130842708e-001

1.29960383416997e+005,-6.45620386756855e+000,-6.99820222742111e-001

1.31774562762811e+005,-6.45622825685071e+000,-7.09558170068756e-001

1.33614067108538e+005,-6.45625328814273e+000,-7.19430778468858e-001

1.35479249978003e+005,-6.45627897710844e+000,-7.29439876929292e-001

1.37370469830040e+005,-6.45630533972438e+000,-7.39587318042306e-001

1.39288090127379e+005,-6.45633239228245e+000,-7.49874978266230e-001

1.41232479406504e+005,-6.45636015139187e+000,-7.60304758190451e-001

1.43204011348474e+005,-6.45638863398091e+000,-7.70878582801804e-001

1.45203064850745e+005,-6.45641785729810e+000,-7.81598401754701e-001

1.47230024099979e+005,-6.45644783891359e+000,-7.92466189640401e-001

1.49285278645888e+005,-6.45647859671994e+000,-8.03483946258406e-001

1.51369223476094e+005,-6.45651014893228e+000,-8.14653696892534e-001

1.53482259092041e+005,-6.45654251408859e+000,-8.25977492585645e-001

1.55624791585964e+005,-6.45657571104912e+000,-8.37457410418662e-001

1.57797232718936e+005,-6.45660975899577e+000,-8.49095553789486e-001

1.59999999999999e+005,-6.45664467743039e+000,-8.60894052696999e-001

1.62233516766403e+005,-6.45668048617332e+000,-8.72855064023669e-001

1.64498212264969e+005,-6.45671720536084e+000,-8.84980771822596e-001

1.66794521734578e+005,-6.45675485544226e+000,-8.97273387606425e-001

1.69122886489819e+005,-6.45679345717628e+000,-9.09735150638594e-001

1.71483754005805e+005,-6.45683303162704e+000,-9.22368328225144e-001

1.73877578004168e+005,-6.45687360015901e+000,-9.35175216011762e-001

1.76304818540256e+005,-6.45691518443147e+000,-9.48158138282573e-001

1.78765942091554e+005,-6.45695780639219e+000,-9.61319448259726e-001

1.81261421647326e+005,-6.45700148827046e+000,-9.74661528407066e-001

1.83791736799524e+005,-6.45704625256873e+000,-9.88186790738767e-001

1.86357373834951e+005,-6.45709212205399e+000,-1.00189767712742e+000

1.88958825828723e+005,-6.45713911974806e+000,-1.01579665961655e+000

1.91596592739027e+005,-6.45718726891678e+000,-1.02988624073745e+000

1.94271181503206e+005,-6.45723659305787e+000,-1.04416895383062e+000

1.96983106135185e+005,-6.45728711588884e+000,-1.05864736336513e+000

1.99732887824256e+005,-6.45733886133219e+000,-1.07332406527165e+000

2.02521055035243e+005,-6.45739185350097e+000,-1.08820168726878e+000

2.05348143610063e+005,-6.45744611668199e+000,-1.10328288920304e+000

2.08214696870707e+005,-6.45750167531836e+000,-1.11857036338873e+000

2.11121265723661e+005,-6.45755855399088e+000,-1.13406683495131e+000

2.14068408765776e+005,-6.45761677739701e+000,-1.14977506218356e+000

2.17056692391625e+005,-6.45767637032992e+000,-1.16569783689742e+000

2.20086690902357e+005,-6.45773735765477e+000,-1.18183798479056e+000

2.23158986616063e+005,-6.45779976428433e+000,-1.19819836581297e+000

2.26274169979693e+005,-6.45786361515226e+000,-1.21478187454546e+000

2.29432839682530e+005,-6.45792893518558e+000,-1.23159144058068e+000

2.32635602771247e+005,-6.45799574927483e+000,-1.24863002891517e+000

2.35883074766574e+005,-6.45806408224235e+000,-1.26590064034985e+000

2.39175879781588e+005,-6.45813395880983e+000,-1.28340631189436e+000

2.42514650641661e+005,-6.45820540356237e+000,-1.30115011718867e+000

2.45900029006080e+005,-6.45827844091228e+000,-1.31913516692573e+000

2.49332665491357e+005,-6.45835309505976e+000,-1.33736460929130e+000

2.52813219796278e+005,-6.45842938995198e+000,-1.35584163041222e+000

2.56342360828676e+005,-6.45850734924046e+000,-1.37456945481490e+000

2.59920766833993e+005,-6.45858699623582e+000,-1.39355134589885e+000

2.63549125525621e+005,-6.45866835386046e+000,-1.41279060642305e+000

2.67228134217075e+005,-6.45875144459968e+000,-1.43229057900359e+000

2.70958499956006e+005,-6.45883629044984e+000,-1.45205464662906e+000

2.74740939660078e+005,-6.45892291286476e+000,-1.47208623318980e+000

2.78576180254757e+005,-6.45901133269963e+000,-1.49238880402439e+000

2.82464958813007e+005,-6.45910157015298e+000,-1.51296586648222e+000

2.86408022696948e+005,-6.45919364470589e+000,-1.53382097050610e+000

2.90406129701488e+005,-6.45928757505941e+000,-1.55495770923050e+000

2.94460048199957e+005,-6.45938337906906e+000,-1.57637971960600e+000

2.98570557291775e+005,-6.45948107367784e+000,-1.59809068303726e+000

3.02738446952187e+005,-6.45958067484608e+000,-1.62009432604987e+000

3.06964518184081e+005,-6.45968219747967e+000,-1.64239442097557e+000

3.11249583171928e+005,-6.45978565535573e+000,-1.66499478666486e+000

3.15594465437872e+005,-6.45989106104611e+000,-1.68789928922303e+000

3.19999999999997e+005,-6.45999842583864e+000,-1.71111184277378e+000

3.24467033532806e+005,-6.46010775965636e+000,-1.73463641025047e+000

3.28996424529938e+005,-6.46021907097468e+000,-1.75847700421447e+000

3.33589043469155e+005,-6.46033236673623e+000,-1.78263768770631e+000

3.38245772979638e+005,-6.46044765226432e+000,-1.80712257512464e+000

3.42967508011610e+005,-6.46056493117399e+000,-1.83193583313963e+000

3.47755156008335e+005,-6.46068420528155e+000,-1.85708168163988e+000

3.52609637080511e+005,-6.46080547451267e+000,-1.88256439471078e+000

3.57531884183106e+005,-6.46092873680831e+000,-1.90838830165355e+000

3.62522843294651e+005,-6.46105398803029e+000,-1.93455778803478e+000

3.67583473599047e+005,-6.46118122186453e+000,-1.96107729677933e+000

3.72714747669902e+005,-6.46131042972372e+000,-1.98795132929915e+000

3.77917651657445e+005,-6.46144160064924e+000,-2.01518444666211e+000

3.83193185478053e+005,-6.46157472121200e+000,-2.04278127080136e+000

3.88542363006410e+005,-6.46170977541266e+000,-2.07074648576793e+000

3.93966212270369e+005,-6.46184674458166e+000,-2.09908483902513e+000

3.99465775648511e+005,-6.46198560727929e+000,-2.12780114278435e+000

4.05042110070485e+005,-6.46212633919546e+000,-2.15690027538782e+000

4.10696287220124e+005,-6.46226891304967e+000,-2.18638718273533e+000

4.16429393741414e+005,-6.46241329849226e+000,-2.21626687975342e+000

4.22242531447321e+005,-6.46255946200542e+000,-2.24654445191528e+000

4.28136817531551e+005,-6.46270736680627e+000,-2.27722505680133e+000

4.34113384783250e+005,-6.46285697275022e+000,-2.30831392571113e+000

4.40173381804713e+005,-6.46300823623695e+000,-2.33981636531722e+000

4.46317973232124e+005,-6.46316111011746e+000,-2.37173775936900e+000

4.52548339959385e+005,-6.46331554360349e+000,-2.40408357044172e+000

4.58865679365059e+005,-6.46347148217970e+000,-2.43685934173050e+000

4.65271205542494e+005,-6.46362886751802e+000,-2.47007069889256e+000

4.71766149533147e+005,-6.46378763739522e+000,-2.50372335193345e+000

4.78351759563174e+005,-6.46394772561402e+000,-2.53782309713781e+000

4.85029301283321e+005,-6.46410906192730e+000,-2.57237581904475e+000

4.91800058012158e+005,-6.46427157196642e+000,-2.60738749246635e+000

4.98665330982714e+005,-6.46443517717360e+000,-2.64286418454774e+000

5.05626439592555e+005,-6.46459979473861e+000,-2.67881205686808e+000

5.12684721657352e+005,-6.46476533754000e+000,-2.71523736758191e+000

5.19841533667984e+005,-6.46493171409140e+000,-2.75214647359675e+000

5.27098251051240e+005,-6.46509882849260e+000,-2.78954583278912e+000

5.34456268434150e+005,-6.46526658038624e+000,-2.82744200625276e+000

5.41916999912011e+005,-6.46543486491948e+000,-2.86584166058282e+000

