Freq.,VOut,OutRef

1.00000000000000e+004,-7.25389117906457e+000,-1.75892575463499e-002

1.01395947979003e+004,-7.25389161151104e+000,-1.78347579044847e-002

1.02811382665607e+004,-7.25389205611116e+000,-1.80836837692398e-002

1.04246576084112e+004,-7.25389251320682e+000,-1.83360828902552e-002

1.05701804056138e+004,-7.25389298314829e+000,-1.85920036891224e-002

1.07177346253629e+004,-7.25389346629683e+000,-1.88514952525281e-002

1.08673486252606e+004,-7.25389396302352e+000,-1.91146073514215e-002

1.10190511587661e+004,-7.25389447370954e+000,-1.93813904509007e-002

1.11728713807222e+004,-7.25389499874805e+000,-1.96518957084241e-002

1.13288388529580e+004,-7.25389553854056e+000,-1.99261750097165e-002

1.14869835499703e+004,-7.25389609350309e+000,-2.02042809404446e-002

1.16473358646846e+004,-7.25389666406040e+000,-2.04862668352074e-002

1.18099266142953e+004,-7.25389725065196e+000,-2.07721867513778e-002

1.19747870461893e+004,-7.25389785372685e+000,-2.10620955147715e-002

1.21419488439505e+004,-7.25389847374927e+000,-2.13560486957296e-002

1.23114441334492e+004,-7.25389911119423e+000,-2.16541026502537e-002

1.24833054890161e+004,-7.25389976655126e+000,-2.19563145086488e-002

1.26575659397028e+004,-7.25390044032374e+000,-2.22627421936192e-002

1.28342589756290e+004,-7.25390113302897e+000,-2.25734444321434e-002

1.30134185544193e+004,-7.25390184519811e+000,-2.28884807706236e-002

1.31950791077289e+004,-7.25390257737854e+000,-2.32079115723553e-002

1.33792755478611e+004,-7.25390333013103e+000,-2.35317980506097e-002

1.35660432744767e+004,-7.25390410403514e+000,-2.38602022470601e-002

1.37554181813974e+004,-7.25390489968271e+000,-2.41931870893648e-002

1.39474366635040e+004,-7.25390571768585e+000,-2.45308163530916e-002

1.41421356237309e+004,-7.25390655867203e+000,-2.48731547098694e-002

1.43395524801583e+004,-7.25390742328553e+000,-2.52202677312640e-002

1.45397251732031e+004,-7.25390831219099e+000,-2.55722218825479e-002

1.47426921729110e+004,-7.25390922606927e+000,-2.59290845652186e-002

1.49484924863494e+004,-7.25391016562300e+000,-2.62909240958433e-002

1.51571656651040e+004,-7.25391113157213e+000,-2.66578097518693e-002

1.53687518128801e+004,-7.25391212465733e+000,-2.70298117661876e-002

1.55832915932100e+004,-7.25391314564066e+000,-2.74070013386932e-002

1.58008262372675e+004,-7.25391419530523e+000,-2.77894506562262e-002

1.60213975517924e+004,-7.25391527445596e+000,-2.81772329043730e-002

1.62450479271247e+004,-7.25391638392075e+000,-2.85704222768605e-002

1.64718203453514e+004,-7.25391752455064e+000,-2.89690939939823e-002

1.67017583885674e+004,-7.25391869721961e+000,-2.93733243204111e-002

1.69349062472505e+004,-7.25391990282682e+000,-2.97831905695931e-002

1.71713087287550e+004,-7.25392114229738e+000,-3.01987711169760e-002

1.74110112659224e+004,-7.25392241658079e+000,-3.06201454302650e-002

1.76540599258131e+004,-7.25392372665414e+000,-3.10473940660820e-002

1.79005014185594e+004,-7.25392507352205e+000,-3.14805986913948e-002

1.81503831063432e+004,-7.25392645821607e+000,-3.19198421074321e-002

1.84037530124975e+004,-7.25392788179752e+000,-3.23652082502078e-002

1.86606598307361e+004,-7.25392934535809e+000,-3.28167822077121e-002

1.89211529345119e+004,-7.25393085001826e+000,-3.32746502514798e-002

1.91852823865052e+004,-7.25393239693169e+000,-3.37388998290470e-002

1.94530989482457e+004,-7.25393398728275e+000,-3.42096196012589e-002

1.97246540898671e+004,-7.25393562229040e+000,-3.46868994390838e-002

1.99999999999999e+004,-7.25393730320629e+000,-3.51708304588028e-002

2.02791895958005e+004,-7.25393903131858e+000,-3.56615050188509e-002

2.05622765331213e+004,-7.25394080795022e+000,-3.61590167542978e-002

2.08493152168224e+004,-7.25394263446142e+000,-3.66634605849722e-002

2.11403608112276e+004,-7.25394451225110e+000,-3.71749327282940e-002

2.14354692507258e+004,-7.25394644275644e+000,-3.76935307274287e-002

2.17346972505211e+004,-7.25394842745500e+000,-3.82193534622780e-002

2.20381023175322e+004,-7.25395046786599e+000,-3.87525011644945e-002

2.23457427614443e+004,-7.25395256555109e+000,-3.92930754395658e-002

2.26576777059159e+004,-7.25395472211524e+000,-3.98411792852161e-002

2.29739670999406e+004,-7.25395693920806e+000,-4.03969171106102e-002

2.32946717293690e+004,-7.25395921852565e+000,-4.09603947491992e-002

2.36198532285905e+004,-7.25396156181165e+000,-4.15317194800685e-002

2.39495740923785e+004,-7.25396397085779e+000,-4.21110000511912e-002

2.42838976879009e+004,-7.25396644750620e+000,-4.26983466924054e-002

2.46228882668982e+004,-7.25396899364997e+000,-4.32938711401992e-002

2.49666109780322e+004,-7.25397161123577e+000,-4.38976866495009e-002

2.53151318794055e+004,-7.25397430226406e+000,-4.45099080209126e-002

2.56685179512580e+004,-7.25397706879138e+000,-4.51306516163775e-002

2.60268371088386e+004,-7.25397991293052e+000,-4.57600353882082e-002

2.63901582154578e+004,-7.25398283685502e+000,-4.63981788791094e-002

2.67585510957221e+004,-7.25398584279725e+000,-4.70452032679387e-002

2.71320865489533e+004,-7.25398893305337e+000,-4.77012313672764e-002

2.75108363627948e+004,-7.25399210998188e+000,-4.83663876659445e-002

2.78948733270080e+004,-7.25399537600804e+000,-4.90407983329783e-002

2.82842712474618e+004,-7.25399873362474e+000,-4.97245912442467e-002

2.86791049603164e+004,-7.25400218539309e+000,-5.04178960135207e-002

2.90794503464061e+004,-7.25400573394681e+000,-5.11208439976129e-002

2.94853843458219e+004,-7.25400938199162e+000,-5.18335683344346e-002

2.98969849726987e+004,-7.25401313230933e+000,-5.25562039533170e-002

3.03143313302078e+004,-7.25401698775926e+000,-5.32888876002068e-002

3.07375036257601e+004,-7.25402095127975e+000,-5.40317578649774e-002

3.11665831864199e+004,-7.25402502589069e+000,-5.47849552018210e-002

3.16016524745350e+004,-7.25402921469554e+000,-5.55486219538693e-002

3.20427951035848e+004,-7.25403352088458e+000,-5.63229023699842e-002

3.24900958542493e+004,-7.25403794773697e+000,-5.71079426307369e-002

3.29436406907028e+004,-7.25404249862151e+000,-5.79038908818832e-002

3.34035167771346e+004,-7.25404717700120e+000,-5.87108972455426e-002

3.38698124945009e+004,-7.25405198643509e+000,-5.95291138484126e-002

3.43426174575100e+004,-7.25405693058082e+000,-6.03586948464993e-002

3.48220225318448e+004,-7.25406201319753e+000,-6.11997964481476e-002

3.53081198516260e+004,-7.25406723814750e+000,-6.20525769460210e-002

3.58010028371187e+004,-7.25407260940067e+000,-6.29171967299562e-002

3.63007662126863e+004,-7.25407813103712e+000,-6.37938183161192e-002

3.68075060249948e+004,-7.25408380724861e+000,-6.46826063803307e-002

3.73213196614721e+004,-7.25408964234386e+000,-6.55837277687907e-002

3.78423058690237e+004,-7.25409564075004e+000,-6.64973515350348e-002

3.83705647730104e+004,-7.25410180701663e+000,-6.74236489608666e-002

3.89061978964912e+004,-7.25410814581856e+000,-6.83627935823076e-002

3.94493081797342e+004,-7.25411466195956e+000,-6.93149612168239e-002

3.99999999999998e+004,-7.25412136037638e+000,-7.02803299841816e-002

4.05583791916010e+004,-7.25412824614102e+000,-7.12590803402105e-002

4.11245530662425e+004,-7.25413532446581e+000,-7.22513950948038e-002

4.16986304336447e+004,-7.25414260070576e+000,-7.32574594469764e-002

4.22807216224550e+004,-7.25415008036355e+000,-7.42774610035996e-002

4.28709385014515e+004,-7.25415776909311e+000,-7.53115898077865e-002

4.34693945010421e+004,-7.25416567270352e+000,-7.63600383671947e-002

4.40762046350642e+004,-7.25417379716345e+000,-7.74230016783043e-002

4.46914855228886e+004,-7.25418214860489e+000,-7.85006772565732e-002

4.53153554118317e+004,-7.25419073332852e+000,-7.95932651555896e-002

4.59479341998812e+004,-7.25419955780688e+000,-8.07009680033162e-002

4.65893434587380e+004,-7.25420862869008e+000,-8.18239910211040e-002

4.72397064571810e+004,-7.25421795280963e+000,-8.29625420555172e-002

4.78991481847569e+004,-7.25422753718441e+000,-8.41168315977221e-002

4.85677953758016e+004,-7.25423738902426e+000,-8.52870728192623e-002

4.92457765337964e+004,-7.25424751573595e+000,-8.64734815918064e-002

4.99332219560642e+004,-7.25425792492792e+000,-8.76762765165729e-002

5.06302637588109e+004,-7.25426862441637e+000,-8.88956789465045e-002

5.13370359025159e+004,-7.25427962222926e+000,-9.01319130205808e-002

5.20536742176771e+004,-7.25429092661343e+000,-9.13852056807291e-002

5.27803164309155e+004,-7.25430254603927e+000,-9.26557867038112e-002

5.35171021914442e+004,-7.25431448920714e+000,-9.39438887245569e-002

5.42641730979066e+004,-7.25432676505307e+000,-9.52497472617945e-002

5.50216727255895e+004,-7.25433938275483e+000,-9.65736007446401e-002

5.57897466540159e+004,-7.25435235173862e+000,-9.79156905355609e-002

5.65685424949235e+004,-7.25436568168499e+000,-9.92762609568690e-002

5.73582099206328e+004,-7.25437938253587e+000,-1.00655559313355e-001

5.81589006928121e+004,-7.25439346450100e+000,-1.02053835917744e-001

5.89707686916437e+004,-7.25440793806440e+000,-1.03471344117365e-001

5.97939699453972e+004,-7.25442281399288e+000,-1.04908340307999e-001

6.06286626604156e+004,-7.25443810334138e+000,-1.06365083968233e-001

6.14750072515201e+004,-7.25445381746140e+000,-1.07841837675818e-001

6.23331663728396e+004,-7.25446996800865e+000,-1.09338867127742e-001

6.32033049490698e+004,-7.25448656695013e+000,-1.10856441166519e-001

6.40855902071694e+004,-7.25450362657204e+000,-1.12394831800111e-001

6.49801917084985e+004,-7.25452115948846e+000,-1.13954314217865e-001

6.58872813814055e+004,-7.25453917864932e+000,-1.15535166811638e-001

6.68070335542691e+004,-7.25455769734776e+000,-1.17137671201728e-001

6.77396249890018e+004,-7.25457672923051e+000,-1.18762112241772e-001

6.86852349150199e+004,-7.25459628830476e+000,-1.20408778049107e-001

6.96440450636895e+004,-7.25461638894890e+000,-1.22077960009479e-001

7.06162397032520e+004,-7.25463704591950e+000,-1.23769952805204e-001

7.16020056742374e+004,-7.25465827436315e+000,-1.25485054413992e-001

7.26015324253724e+004,-7.25468008982336e+000,-1.27223566138807e-001

7.36150120499896e+004,-7.25470250825199e+000,-1.28985792608001e-001

7.46426393229441e+004,-7.25472554601842e+000,-1.30772041792906e-001

7.56846117380472e+004,-7.25474921992010e+000,-1.32582625011887e-001

7.67411295460207e+004,-7.25477354719144e+000,-1.34417856949795e-001

7.78123957929823e+004,-7.25479854551625e+000,-1.36278055650996e-001

7.88986163594682e+004,-7.25482423303622e+000,-1.38163542540311e-001

7.99999999999995e+004,-7.25485062836362e+000,-1.40074642413940e-001

8.11167583832018e+004,-7.25487775059029e+000,-1.42011683455851e-001

8.22491061324848e+004,-7.25490561930136e+000,-1.43974997222993e-001

8.33972608672892e+004,-7.25493425458374e+000,-1.45964918663492e-001

8.45614432449099e+004,-7.25496367704025e+000,-1.47981786096204e-001

8.57418770029029e+004,-7.25499390779930e+000,-1.50025941222497e-001

8.69387890020841e+004,-7.25502496852827e+000,-1.52097729108561e-001

8.81524092701283e+004,-7.25505688144449e+000,-1.54197498185502e-001

8.93829710457770e+004,-7.25508966932854e+000,-1.56325600231936e-001

9.06307108236633e+004,-7.25512335553609e+000,-1.58482390366550e-001

9.18958683997622e+004,-7.25515796401005e+000,-1.60668227034644e-001

9.31786869174758e+004,-7.25519351929464e+000,-1.62883471983720e-001

9.44794129143618e+004,-7.25523004654742e+000,-1.65128490248849e-001

9.57982963695136e+004,-7.25526757155184e+000,-1.67403650134147e-001

9.71355907516031e+004,-7.25530612073219e+000,-1.69709323176012e-001

9.84915530675926e+004,-7.25534572116530e+000,-1.72045884126087e-001

9.98664439121282e+004,-7.25538640059484e+000,-1.74413710915140e-001

1.01260527517622e+005,-7.25542818744501e+000,-1.76813184618020e-001

1.02674071805032e+005,-7.25547111083386e+000,-1.79244689419741e-001

1.04107348435354e+005,-7.25551520058774e+000,-1.81708612569549e-001

1.05560632861831e+005,-7.25556048725473e+000,-1.84205344341395e-001

1.07034204382888e+005,-7.25560700211890e+000,-1.86735277983309e-001

1.08528346195813e+005,-7.25565477721417e+000,-1.89298809668503e-001

1.10043345451179e+005,-7.25570384533916e+000,-1.91896338433611e-001

1.11579493308032e+005,-7.25575424007015e+000,-1.94528266128727e-001

1.13137084989847e+005,-7.25580599577719e+000,-1.97194997340191e-001

1.14716419841265e+005,-7.25585914763597e+000,-1.99896939338918e-001

1.16317801385624e+005,-7.25591373164445e+000,-2.02634501991485e-001

1.17941537383287e+005,-7.25596978463501e+000,-2.05408097695906e-001

1.19587939890794e+005,-7.25602734428998e+000,-2.08218141292013e-001

1.21257325320831e+005,-7.25608644915522e+000,-2.11065049976475e-001

1.22950014503040e+005,-7.25614713865389e+000,-2.13949243213079e-001

1.24666332745679e+005,-7.25620945310035e+000,-2.16871142635402e-001

1.26406609898139e+005,-7.25627343371444e+000,-2.19831171940282e-001

1.28171180414339e+005,-7.25633912263422e+000,-2.22829756785062e-001

1.29960383416997e+005,-7.25640656292988e+000,-2.25867324670320e-001

1.31774562762811e+005,-7.25647579861578e+000,-2.28944304827589e-001

1.33614067108538e+005,-7.25654687466509e+000,-2.32061128082014e-001

1.35479249978003e+005,-7.25661983702042e+000,-2.35218226732128e-001

1.37370469830040e+005,-7.25669473260634e+000,-2.38416034411369e-001

1.39288090127379e+005,-7.25677160934241e+000,-2.41654985934251e-001

1.41232479406504e+005,-7.25685051615232e+000,-2.44935517161282e-001

1.43204011348474e+005,-7.25693150297656e+000,-2.48258064829525e-001

1.45203064850745e+005,-7.25701462078162e+000,-2.51623066394910e-001

1.47230024099979e+005,-7.25709992157024e+000,-2.55030959860131e-001

1.49285278645888e+005,-7.25718745838991e+000,-2.58482183599025e-001

1.51369223476094e+005,-7.25727728534161e+000,-2.61977176170590e-001

1.53482259092041e+005,-7.25736945758749e+000,-2.65516376126778e-001

1.55624791585964e+005,-7.25746403135772e+000,-2.69100221813066e-001

1.57797232718936e+005,-7.25756106395577e+000,-2.72729151166568e-001

1.59999999999999e+005,-7.25766061376475e+000,-2.76403601494461e-001

1.62233516766403e+005,-7.25776274025016e+000,-2.80124009260126e-001

1.64498212264969e+005,-7.25786750396353e+000,-2.83890809850246e-001

1.66794521734578e+005,-7.25797496654402e+000,-2.87704437339987e-001

1.69122886489819e+005,-7.25808519071913e+000,-2.91565324248672e-001

1.71483754005805e+005,-7.25819824030428e+000,-2.95473901285343e-001

1.73877578004168e+005,-7.25831418019994e+000,-2.99430597096206e-001

1.76304818540256e+005,-7.25843307638893e+000,-3.03435837991786e-001

1.78765942091554e+005,-7.25855499593082e+000,-3.07490047676391e-001

1.81261421647326e+005,-7.25868000695562e+000,-3.11593646964185e-001

1.83791736799524e+005,-7.25880817865485e+000,-3.15747053493089e-001

1.86357373834951e+005,-7.25893958127153e+000,-3.19950681427949e-001

1.88958825828723e+005,-7.25907428608784e+000,-3.24204941157321e-001

1.91596592739027e+005,-7.25921236541084e+000,-3.28510238985565e-001

1.94271181503206e+005,-7.25935389255654e+000,-3.32866976812846e-001

1.96983106135185e+005,-7.25949894183043e+000,-3.37275551818729e-001

1.99732887824256e+005,-7.25964758850697e+000,-3.41736356131640e-001

2.02521055035243e+005,-7.25979990880635e+000,-3.46249776492461e-001

2.05348143610063e+005,-7.25995597986787e+000,-3.50816193920852e-001

2.08214696870707e+005,-7.26011587972179e+000,-3.55435983367355e-001

2.11121265723661e+005,-7.26027968725768e+000,-3.60109513366399e-001

2.14068408765776e+005,-7.26044748218980e+000,-3.64837145686282e-001

2.17056692391625e+005,-7.26061934501945e+000,-3.69619234974907e-001

2.20086690902357e+005,-7.26079535699508e+000,-3.74456128398324e-001

2.23158986616063e+005,-7.26097560006795e+000,-3.79348165283412e-001

2.26274169979693e+005,-7.26116015684452e+000,-3.84295676760130e-001

2.29432839682530e+005,-7.26134911053625e+000,-3.89298985396974e-001

2.32635602771247e+005,-7.26154254490478e+000,-3.94358404842883e-001

2.35883074766574e+005,-7.26174054420430e+000,-3.99474239465062e-001

2.39175879781588e+005,-7.26194319311896e+000,-4.04646783996205e-001

2.42514650641661e+005,-7.26215057669704e+000,-4.09876323180994e-001

2.45900029006080e+005,-7.26236278028126e+000,-4.15163131424773e-001

2.49332665491357e+005,-7.26257988943455e+000,-4.20507472451457e-001

2.52813219796278e+005,-7.26280198986105e+000,-4.25909598971123e-001

2.56342360828676e+005,-7.26302916732396e+000,-4.31369752348175e-001

2.59920766833993e+005,-7.26326150755819e+000,-4.36888162284244e-001

2.63549125525621e+005,-7.26349909617818e+000,-4.42465046514237e-001

2.67228134217075e+005,-7.26374201858203e+000,-4.48100610509392e-001

2.70958499956006e+005,-7.26399035985033e+000,-4.53795047198628e-001

2.74740939660078e+005,-7.26424420464025e+000,-4.59548536706324e-001

2.78576180254757e+005,-7.26450363707534e+000,-4.65361246104886e-001

2.82464958813007e+005,-7.26476874063017e+000,-4.71233329189280e-001

2.86408022696948e+005,-7.26503959801064e+000,-4.77164926270471e-001

2.90406129701488e+005,-7.26531629102838e+000,-4.83156163998681e-001

2.94460048199957e+005,-7.26559890047187e+000,-4.89207155203702e-001

2.98570557291775e+005,-7.26588750597182e+000,-4.95317998767493e-001

3.02738446952187e+005,-7.26618218586182e+000,-5.01488779528981e-001

3.06964518184081e+005,-7.26648301703515e+000,-5.07719568212135e-001

3.11249583171928e+005,-7.26679007479564e+000,-5.14010421399993e-001

3.15594465437872e+005,-7.26710343270593e+000,-5.20361381532094e-001

3.19999999999997e+005,-7.26742316242903e+000,-5.26772476955611e-001

3.24467033532806e+005,-7.26774933356787e+000,-5.33243722002848e-001

3.28996424529938e+005,-7.26808201349994e+000,-5.39775117119627e-001

3.33589043469155e+005,-7.26842126720697e+000,-5.46366649044597e-001

3.38245772979638e+005,-7.26876715710332e+000,-5.53018291022519e-001

3.42967508011610e+005,-7.26911974285885e+000,-5.59730003082695e-001

3.47755156008335e+005,-7.26947908121932e+000,-5.66501732364013e-001

3.52609637080511e+005,-7.26984522582509e+000,-5.73333413490348e-001

3.57531884183106e+005,-7.27021822702518e+000,-5.80224969015185e-001

3.62522843294651e+005,-7.27059813169090e+000,-5.87176309916147e-001

3.67583473599047e+005,-7.27098498302748e+000,-5.94187336152313e-001

3.72714747669902e+005,-7.27137882038314e+000,-6.01257937293483e-001

3.77917651657445e+005,-7.27177967905867e+000,-6.08387993205001e-001

3.83193185478053e+005,-7.27218759011571e+000,-6.15577374807290e-001

3.88542363006410e+005,-7.27260258018524e+000,-6.22825944902296e-001

3.93966212270369e+005,-7.27302467127705e+000,-6.30133559069499e-001

3.99465775648511e+005,-7.27345388058938e+000,-6.37500066638926e-001

4.05042110070485e+005,-7.27389022032138e+000,-6.44925311731076e-001

4.10696287220124e+005,-7.27433369748673e+000,-6.52409134378817e-001

4.16429393741414e+005,-7.27478431373107e+000,-6.59951371718972e-001

4.22242531447321e+005,-7.27524206515262e+000,-6.67551859261651e-001

4.28136817531551e+005,-7.27570694212680e+000,-6.75210432238318e-001

4.34113384783250e+005,-7.27617892913628e+000,-6.82926927021189e-001

4.40173381804713e+005,-7.27665800460635e+000,-6.90701182622773e-001

4.46317973232124e+005,-7.27714414074605e+000,-6.98533042272814e-001

4.52548339959385e+005,-7.27763730339769e+000,-7.06422355062440e-001

4.58865679365059e+005,-7.27813745189313e+000,-7.14368977668293e-001

4.65271205542494e+005,-7.27864453891875e+000,-7.22372776147783e-001

4.71766149533147e+005,-7.27915851039001e+000,-7.30433627803253e-001

4.78351759563174e+005,-7.27967930533557e+000,-7.38551423115053e-001

4.85029301283321e+005,-7.28020685579250e+000,-7.46726067740722e-001

4.91800058012158e+005,-7.28074108671297e+000,-7.54957484574578e-001

4.98665330982714e+005,-7.28128191588282e+000,-7.63245615870112e-001

5.05626439592555e+005,-7.28182925385314e+000,-7.71590425415768e-001

5.12684721657352e+005,-7.28238300388532e+000,-7.79991900763616e-001

5.19841533667984e+005,-7.28294306191032e+000,-7.88450055504958e-001

5.27098251051240e+005,-7.28350931650258e+000,-7.96964931589402e-001

5.34456268434150e+005,-7.28408164886918e+000,-8.05536601681402e-001

5.41916999912011e+005,-7.28465993285507e+000,-8.14165171548143e-001

