Freq.,VOut,OutRef

1.00000000000000e+004,-5.40141876576190e+000,-2.32380010477701e-002

1.01395947979003e+004,-5.40141923818407e+000,-2.35623514455837e-002

1.02811382665607e+004,-5.40141972388297e+000,-2.38912279107880e-002

1.04246576084112e+004,-5.40142022323250e+000,-2.42246935465445e-002

1.05701804056138e+004,-5.40142073661508e+000,-2.45628123477285e-002

1.07177346253629e+004,-5.40142126442589e+000,-2.49056491853292e-002

1.08673486252606e+004,-5.40142180707042e+000,-2.52532698381059e-002

1.10190511587661e+004,-5.40142236496436e+000,-2.56057410069216e-002

1.11728713807222e+004,-5.40142293853701e+000,-2.59631303079685e-002

1.13288388529580e+004,-5.40142352822790e+000,-2.63255063093788e-002

1.14869835499703e+004,-5.40142413449073e+000,-2.66929385200844e-002

1.16473358646846e+004,-5.40142475779091e+000,-2.70654974224580e-002

1.18099266142953e+004,-5.40142539860636e+000,-2.74432544817549e-002

1.19747870461893e+004,-5.40142605742953e+000,-2.78262821494095e-002

1.21419488439505e+004,-5.40142673476643e+000,-2.82146538848131e-002

1.23114441334492e+004,-5.40142743113640e+000,-2.86084441742516e-002

1.24833054890161e+004,-5.40142814707440e+000,-2.90077285315666e-002

1.26575659397028e+004,-5.40142888313037e+000,-2.94125835198553e-002

1.28342589756290e+004,-5.40142963986854e+000,-2.98230867724361e-002

1.30134185544193e+004,-5.40143041787040e+000,-3.02393169923900e-002

1.31950791077289e+004,-5.40143121773325e+000,-3.06613539775859e-002

1.33792755478611e+004,-5.40143204006995e+000,-3.10892786422727e-002

1.35660432744767e+004,-5.40143288551250e+000,-3.15231730107428e-002

1.37554181813974e+004,-5.40143375470980e+000,-3.19631202505732e-002

1.39474366635040e+004,-5.40143464832821e+000,-3.24092046891098e-002

1.41421356237309e+004,-5.40143556705392e+000,-3.28615118149873e-002

1.43395524801583e+004,-5.40143651159188e+000,-3.33201283068195e-002

1.45397251732031e+004,-5.40143748266690e+000,-3.37851420434611e-002

1.47426921729110e+004,-5.40143848102351e+000,-3.42566421273222e-002

1.49484924863494e+004,-5.40143950742847e+000,-3.47347188860841e-002

1.51571656651040e+004,-5.40144056266833e+000,-3.52194639111669e-002

1.53687518128801e+004,-5.40144164755310e+000,-3.57109700541985e-002

1.55832915932100e+004,-5.40144276291469e+000,-3.62093314575141e-002

1.58008262372675e+004,-5.40144390960892e+000,-3.67146435642778e-002

1.60213975517924e+004,-5.40144508851479e+000,-3.72270031443845e-002

1.62450479271247e+004,-5.40144630053702e+000,-3.77465083002170e-002

1.64718203453514e+004,-5.40144754660427e+000,-3.82732585018304e-002

1.67017583885674e+004,-5.40144882767281e+000,-3.88073545849173e-002

1.69349062472505e+004,-5.40145014472488e+000,-3.93488987855525e-002

1.71713087287550e+004,-5.40145149876931e+000,-3.98979947599435e-002

1.74110112659224e+004,-5.40145289084536e+000,-4.04547475838592e-002

1.76540599258131e+004,-5.40145432201916e+000,-4.10192637998951e-002

1.79005014185594e+004,-5.40145579338816e+000,-4.15916514136179e-002

1.81503831063432e+004,-5.40145730608018e+000,-4.21720199253327e-002

1.84037530124975e+004,-5.40145886125451e+000,-4.27604803480749e-002

1.86606598307361e+004,-5.40146046010244e+000,-4.33571452313176e-002

1.89211529345119e+004,-5.40146210385003e+000,-4.39621286685170e-002

1.91852823865052e+004,-5.40146379375574e+000,-4.45755463400202e-002

1.94530989482457e+004,-5.40146553111475e+000,-4.51975155124853e-002

1.97246540898671e+004,-5.40146731725763e+000,-4.58281550750707e-002

1.99999999999999e+004,-5.40146915355279e+000,-4.64675855518651e-002

2.02791895958005e+004,-5.40147104140601e+000,-4.71159291340214e-002

2.05622765331213e+004,-5.40147298226360e+000,-4.77733096879278e-002

2.08493152168224e+004,-5.40147497761132e+000,-4.84398527920393e-002

2.11403608112276e+004,-5.40147702897736e+000,-4.91156857481241e-002

2.14354692507258e+004,-5.40147913793164e+000,-4.98009376155966e-002

2.17346972505211e+004,-5.40148130608832e+000,-5.04957392269528e-002

2.20381023175322e+004,-5.40148353510699e+000,-5.12002232111018e-002

2.23457427614443e+004,-5.40148582669368e+000,-5.19145240196403e-002

2.26576777059159e+004,-5.40148818260166e+000,-5.26387779535226e-002

2.29739670999406e+004,-5.40149060463274e+000,-5.33731231875788e-002

2.32946717293690e+004,-5.40149309464057e+000,-5.41176997838332e-002

2.36198532285905e+004,-5.40149565452876e+000,-5.48726497366850e-002

2.39495740923785e+004,-5.40149828625570e+000,-5.56381169768298e-002

2.42838976879009e+004,-5.40150099183299e+000,-5.64142474168603e-002

2.46228882668982e+004,-5.40150377332917e+000,-5.72011889624886e-002

2.49666109780322e+004,-5.40150663287089e+000,-5.79990915413335e-002

2.53151318794055e+004,-5.40150957264286e+000,-5.88081071403706e-002

2.56685179512580e+004,-5.40151259489165e+000,-5.96283898191263e-002

2.60268371088386e+004,-5.40151570192659e+000,-6.04600957410947e-002

2.63901582154578e+004,-5.40151889612070e+000,-6.13033832070104e-002

2.67585510957221e+004,-5.40152217991353e+000,-6.21584126756955e-002

2.71320865489533e+004,-5.40152555581239e+000,-6.30253467956520e-002

2.75108363627948e+004,-5.40152902639502e+000,-6.39043504290510e-002

2.78948733270080e+004,-5.40153259430987e+000,-6.47955906902291e-002

2.82842712474618e+004,-5.40153626228008e+000,-6.56992369621629e-002

2.86791049603164e+004,-5.40154003310437e+000,-6.66154609332874e-002

2.90794503464061e+004,-5.40154390965868e+000,-6.75444366292904e-002

2.94853843458219e+004,-5.40154789489983e+000,-6.84863404347138e-002

2.98969849726987e+004,-5.40155199186658e+000,-6.94413511284819e-002

3.03143313302078e+004,-5.40155620368183e+000,-7.04096499167257e-002

3.07375036257601e+004,-5.40156053355536e+000,-7.13914204598268e-002

3.11665831864199e+004,-5.40156498478639e+000,-7.23868489026985e-002

3.16016524745350e+004,-5.40156956076565e+000,-7.33961239084563e-002

3.20427951035848e+004,-5.40157426497756e+000,-7.44194366929482e-002

3.24900958542493e+004,-5.40157910100409e+000,-7.54569810477165e-002

3.29436406907028e+004,-5.40158407252588e+000,-7.65089533827771e-002

3.34035167771346e+004,-5.40158918332588e+000,-7.75755527526014e-002

3.38698124945009e+004,-5.40159443729160e+000,-7.86569808937954e-002

3.43426174575100e+004,-5.40159983841886e+000,-7.97534422512361e-002

3.48220225318448e+004,-5.40160539081365e+000,-8.08651440195310e-002

3.53081198516260e+004,-5.40161109869569e+000,-8.19922961728139e-002

3.58010028371187e+004,-5.40161696640185e+000,-8.31351114971684e-002

3.63007662126863e+004,-5.40162299838831e+000,-8.42938056307141e-002

3.68075060249948e+004,-5.40162919923469e+000,-8.54685970938335e-002

3.73213196614721e+004,-5.40163557364781e+000,-8.66597073204844e-002

3.78423058690237e+004,-5.40164212646351e+000,-8.78673607042466e-002

3.83705647730104e+004,-5.40164886265142e+000,-8.90917846256737e-002

3.89061978964912e+004,-5.40165578731902e+000,-9.03332094851632e-002

3.94493081797342e+004,-5.40166290571309e+000,-9.15918687531900e-002

3.99999999999998e+004,-5.40167022322688e+000,-9.28679989849932e-002

4.05583791916010e+004,-5.40167774540062e+000,-9.41618398791215e-002

4.11245530662425e+004,-5.40168547792804e+000,-9.54736342974952e-002

4.16986304336447e+004,-5.40169342665919e+000,-9.68036283107470e-002

4.22807216224550e+004,-5.40170159760477e+000,-9.81520712345783e-002

4.28709385014515e+004,-5.40170999694114e+000,-9.95192156623314e-002

4.34693945010421e+004,-5.40171863101365e+000,-1.00905317510137e-001

4.40762046350642e+004,-5.40172750634221e+000,-1.02310636047136e-001

4.46914855228886e+004,-5.40173662962555e+000,-1.03735433936724e-001

4.53153554118317e+004,-5.40174600774559e+000,-1.05179977276444e-001

4.59479341998812e+004,-5.40175564777314e+000,-1.06644535631235e-001

4.65893434587380e+004,-5.40176555697250e+000,-1.08129382074312e-001

4.72397064571810e+004,-5.40177574280583e+000,-1.09634793230976e-001

4.78991481847569e+004,-5.40178621294028e+000,-1.11161049304126e-001

4.85677953758016e+004,-5.40179697525118e+000,-1.12708434127746e-001

4.92457765337964e+004,-5.40180803782979e+000,-1.14277235191382e-001

4.99332219560642e+004,-5.40181940898681e+000,-1.15867743692300e-001

5.06302637588109e+004,-5.40183109725991e+000,-1.17480254563256e-001

5.13370359025159e+004,-5.40184311141865e+000,-1.19115066518189e-001

5.20536742176771e+004,-5.40185546047101e+000,-1.20772482087635e-001

5.27803164309155e+004,-5.40186815366985e+000,-1.22452807656199e-001

5.35171021914442e+004,-5.40188120051832e+000,-1.24156353507812e-001

5.42641730979066e+004,-5.40189461077735e+000,-1.25883433857534e-001

5.50216727255895e+004,-5.40190839447235e+000,-1.27634366891195e-001

5.57897466540159e+004,-5.40192256189953e+000,-1.29409474805428e-001

5.65685424949235e+004,-5.40193712363309e+000,-1.31209083846209e-001

5.73582099206328e+004,-5.40195209053237e+000,-1.33033524346633e-001

5.81589006928121e+004,-5.40196747374950e+000,-1.34883130762811e-001

5.89707686916437e+004,-5.40198328473656e+000,-1.36758241713394e-001

5.97939699453972e+004,-5.40199953525350e+000,-1.38659200015405e-001

6.06286626604156e+004,-5.40201623737562e+000,-1.40586352724003e-001

6.14750072515201e+004,-5.40203340350235e+000,-1.42540051164367e-001

6.23331663728396e+004,-5.40205104636454e+000,-1.44520650972996e-001

6.32033049490698e+004,-5.40206917903350e+000,-1.46528512130689e-001

6.40855902071694e+004,-5.40208781492928e+000,-1.48563998998893e-001

6.49801917084985e+004,-5.40210696782995e+000,-1.50627480351656e-001

6.58872813814055e+004,-5.40212665187969e+000,-1.52719329415543e-001

6.68070335542691e+004,-5.40214688159817e+000,-1.54839923900982e-001

6.77396249890018e+004,-5.40216767189094e+000,-1.56989646030226e-001

6.86852349150199e+004,-5.40218903805766e+000,-1.59168882576781e-001

6.96440450636895e+004,-5.40221099580223e+000,-1.61378024894719e-001

7.06162397032520e+004,-5.40223356124288e+000,-1.63617468949142e-001

7.16020056742374e+004,-5.40225675092277e+000,-1.65887615341628e-001

7.26015324253724e+004,-5.40228058181862e+000,-1.68188869351785e-001

7.36150120499896e+004,-5.40230507135395e+000,-1.70521640947370e-001

7.46426393229441e+004,-5.40233023740702e+000,-1.72886344828730e-001

7.56846117380472e+004,-5.40235609832364e+000,-1.75283400443765e-001

7.67411295460207e+004,-5.40238267292795e+000,-1.77713232013959e-001

7.78123957929823e+004,-5.40240998053293e+000,-1.80176268563886e-001

7.88986163594682e+004,-5.40243804095342e+000,-1.82672943933803e-001

7.99999999999995e+004,-5.40246687451637e+000,-1.85203696810410e-001

8.11167583832018e+004,-5.40249650207392e+000,-1.87768970738462e-001

8.22491061324848e+004,-5.40252694501551e+000,-1.90369214139462e-001

8.33972608672892e+004,-5.40255822527913e+000,-1.93004880334670e-001

8.45614432449099e+004,-5.40259036536588e+000,-1.95676427546536e-001

8.57418770029029e+004,-5.40262338835059e+000,-1.98384318925897e-001

8.69387890020841e+004,-5.40265731789660e+000,-2.01129022550151e-001

8.81524092701283e+004,-5.40269217826778e+000,-2.03911011439681e-001

8.93829710457770e+004,-5.40272799434276e+000,-2.06730763558632e-001

9.06307108236633e+004,-5.40276479162763e+000,-2.09588761824583e-001

9.18958683997622e+004,-5.40280259627034e+000,-2.12485494106590e-001

9.31786869174758e+004,-5.40284143507494e+000,-2.15421453222394e-001

9.44794129143618e+004,-5.40288133551419e+000,-2.18397136944620e-001

9.57982963695136e+004,-5.40292232574554e+000,-2.21413047984775e-001

9.71355907516031e+004,-5.40296443462474e+000,-2.24469693988989e-001

9.84915530675926e+004,-5.40300769172055e+000,-2.27567587526747e-001

9.98664439121282e+004,-5.40305212732902e+000,-2.30707246078678e-001

1.01260527517622e+005,-5.40309777248954e+000,-2.33889192011439e-001

1.02674071805032e+005,-5.40314465899853e+000,-2.37113952565600e-001

1.04107348435354e+005,-5.40319281942512e+000,-2.40382059827236e-001

1.05560632861831e+005,-5.40324228712633e+000,-2.43694050699858e-001

1.07034204382888e+005,-5.40329309626291e+000,-2.47050466871070e-001

1.08528346195813e+005,-5.40334528181341e+000,-2.50451854783786e-001

1.10043345451179e+005,-5.40339887959047e+000,-2.53898765591701e-001

1.11579493308032e+005,-5.40345392625652e+000,-2.57391755115874e-001

1.13137084989847e+005,-5.40351045933892e+000,-2.60931383797661e-001

1.14716419841265e+005,-5.40356851724493e+000,-2.64518216651185e-001

1.16317801385624e+005,-5.40362813927810e+000,-2.68152823200272e-001

1.17941537383287e+005,-5.40368936565341e+000,-2.71835777419643e-001

1.19587939890794e+005,-5.40375223751253e+000,-2.75567657669405e-001

1.21257325320831e+005,-5.40381679693892e+000,-2.79349046625171e-001

1.22950014503040e+005,-5.40388308697356e+000,-2.83180531198442e-001

1.24666332745679e+005,-5.40395115162972e+000,-2.87062702456580e-001

1.26406609898139e+005,-5.40402103590764e+000,-2.90996155536770e-001

1.28171180414339e+005,-5.40409278580974e+000,-2.94981489550559e-001

1.29960383416997e+005,-5.40416644835446e+000,-2.99019307488485e-001

1.31774562762811e+005,-5.40424207159077e+000,-3.03110216113312e-001

1.33614067108538e+005,-5.40431970461217e+000,-3.07254825848746e-001

1.35479249978003e+005,-5.40439939756971e+000,-3.11453750666065e-001

1.37370469830040e+005,-5.40448120168603e+000,-3.15707607954144e-001

1.39288090127379e+005,-5.40456516926668e+000,-3.20017018398494e-001

1.41232479406504e+005,-5.40465135371362e+000,-3.24382605836753e-001

1.43204011348474e+005,-5.40473980953633e+000,-3.28804997118200e-001

1.45203064850745e+005,-5.40483059236287e+000,-3.33284821954091e-001

1.47230024099979e+005,-5.40492375895044e+000,-3.37822712758656e-001

1.49285278645888e+005,-5.40501936719516e+000,-3.42419304485167e-001

1.51369223476094e+005,-5.40511747614101e+000,-3.47075234452645e-001

1.53482259092041e+005,-5.40521814598814e+000,-3.51791142166830e-001

1.55624791585964e+005,-5.40532143809985e+000,-3.56567669134606e-001

1.57797232718936e+005,-5.40542741500947e+000,-3.61405458665711e-001

1.59999999999999e+005,-5.40553614042531e+000,-3.66305155672313e-001

1.62233516766403e+005,-5.40564767923478e+000,-3.71267406460203e-001

1.64498212264969e+005,-5.40576209750774e+000,-3.76292858508360e-001

1.66794521734578e+005,-5.40587946249850e+000,-3.81382160242069e-001

1.69122886489819e+005,-5.40599984264560e+000,-3.86535960803092e-001

1.71483754005805e+005,-5.40612330757126e+000,-3.91754909805845e-001

1.73877578004168e+005,-5.40624992807906e+000,-3.97039657087100e-001

1.76304818540256e+005,-5.40637977614944e+000,-4.02390852451579e-001

1.78765942091554e+005,-5.40651292493428e+000,-4.07809145404558e-001

1.81261421647326e+005,-5.40664944874911e+000,-4.13295184880744e-001

1.83791736799524e+005,-5.40678942306341e+000,-4.18849618966303e-001

1.86357373834951e+005,-5.40693292448972e+000,-4.24473094607939e-001

1.88958825828723e+005,-5.40708003076908e+000,-4.30166257323592e-001

1.91596592739027e+005,-5.40723082075600e+000,-4.35929750898192e-001

1.94271181503206e+005,-5.40738537439974e+000,-4.41764217077738e-001

1.96983106135185e+005,-5.40754377272391e+000,-4.47670295254385e-001

1.99732887824256e+005,-5.40770609780288e+000,-4.53648622149470e-001

2.02521055035243e+005,-5.40787243273607e+000,-4.59699831486176e-001

2.05348143610063e+005,-5.40804286161934e+000,-4.65824553658808e-001

2.08214696870707e+005,-5.40821746951259e+000,-4.72023415400981e-001

2.11121265723661e+005,-5.40839634240586e+000,-4.78297039442174e-001

2.14068408765776e+005,-5.40857956718034e+000,-4.84646044171198e-001

2.17056692391625e+005,-5.40876723156798e+000,-4.91071043283690e-001

2.20086690902357e+005,-5.40895942410570e+000,-4.97572645442063e-001

2.23158986616063e+005,-5.40915623408793e+000,-5.04151453920077e-001

2.26274169979693e+005,-5.40935775151377e+000,-5.10808066258035e-001

2.29432839682530e+005,-5.40956406703159e+000,-5.17543073909329e-001

2.32635602771247e+005,-5.40977527187856e+000,-5.24357061896483e-001

2.35883074766574e+005,-5.40999145781690e+000,-5.31250608462716e-001

2.39175879781588e+005,-5.41021271706580e+000,-5.38224284728701e-001

2.42514650641661e+005,-5.41043914222842e+000,-5.45278654356820e-001

2.45900029006080e+005,-5.41067082621495e+000,-5.52414273217309e-001

2.49332665491357e+005,-5.41090786216136e+000,-5.59631689061664e-001

2.52813219796278e+005,-5.41115034334245e+000,-5.66931441208597e-001

2.56342360828676e+005,-5.41139836308135e+000,-5.74314060233474e-001

2.59920766833993e+005,-5.41165201465314e+000,-5.81780067675507e-001

2.63549125525621e+005,-5.41191139118429e+000,-5.89329975751828e-001

2.67228134217075e+005,-5.41217658554647e+000,-5.96964287091852e-001

2.70958499956006e+005,-5.41244769024560e+000,-6.04683494485003e-001

2.74740939660078e+005,-5.41272479730558e+000,-6.12488080646809e-001

2.78576180254757e+005,-5.41300799814727e+000,-6.20378518004471e-001

2.82464958813007e+005,-5.41329738346104e+000,-6.28355268510938e-001

2.86408022696948e+005,-5.41359304307561e+000,-6.36418783473661e-001

2.90406129701488e+005,-5.41389506582077e+000,-6.44569503415503e-001

2.94460048199957e+005,-5.41420353938439e+000,-6.52807857968184e-001

2.98570557291775e+005,-5.41451855016581e+000,-6.61134265784754e-001

3.02738446952187e+005,-5.41484018312171e+000,-6.69549134501852e-001

3.06964518184081e+005,-5.41516852160964e+000,-6.78052860720500e-001

3.11249583171928e+005,-5.41550364722383e+000,-6.86645830040840e-001

3.15594465437872e+005,-5.41584563962826e+000,-6.95328417125921e-001

3.19999999999997e+005,-5.41619457638341e+000,-7.04100985816512e-001

3.24467033532806e+005,-5.41655053276960e+000,-7.12963889285893e-001

3.28996424529938e+005,-5.41691358160472e+000,-7.21917470250631e-001

3.33589043469155e+005,-5.41728379305881e+000,-7.30962061223693e-001

3.38245772979638e+005,-5.41766123446399e+000,-7.40097984828912e-001

3.42967508011610e+005,-5.41804597012101e+000,-7.49325554165713e-001

3.47755156008335e+005,-5.41843806110190e+000,-7.58645073239087e-001

3.52609637080511e+005,-5.41883756505024e+000,-7.68056837444999e-001

3.57531884183106e+005,-5.41924453597793e+000,-7.77561134124047e-001

3.62522843294651e+005,-5.41965902406006e+000,-7.87158243179784e-001

3.67583473599047e+005,-5.42008107542796e+000,-7.96848437764230e-001

3.72714747669902e+005,-5.42051073196007e+000,-8.06631985038611e-001

3.77917651657445e+005,-5.42094803107246e+000,-8.16509147003669e-001

3.83193185478053e+005,-5.42139300550849e+000,-8.26480181406660e-001

3.88542363006410e+005,-5.42184568312891e+000,-8.36545342723026e-001

3.93966212270369e+005,-5.42230608670168e+000,-8.46704883222914e-001

3.99465775648511e+005,-5.42277423369419e+000,-8.56959054110310e-001

4.05042110070485e+005,-5.42325013606628e+000,-8.67308106749020e-001

4.10696287220124e+005,-5.42373380006649e+000,-8.77752293969224e-001

4.16429393741414e+005,-5.42422522603068e+000,-8.88291871460220e-001

4.22242531447321e+005,-5.42472440818568e+000,-8.98927099242740e-001

4.28136817531551e+005,-5.42523133445638e+000,-9.09658243230739e-001

4.34113384783250e+005,-5.42574598627911e+000,-9.20485576874314e-001

4.40173381804713e+005,-5.42626833842043e+000,-9.31409382890316e-001

4.46317973232124e+005,-5.42679835880328e+000,-9.42429955074458e-001

4.52548339959385e+005,-5.42733600834100e+000,-9.53547600195420e-001

4.58865679365059e+005,-5.42788124077935e+000,-9.64762639974137e-001

4.65271205542494e+005,-5.42843400254805e+000,-9.76075413141484e-001

4.71766149533147e+005,-5.42899423262272e+000,-9.87486277573189e-001

4.78351759563174e+005,-5.42956186239739e+000,-9.98995612501567e-001

4.85029301283321e+005,-5.43013681556921e+000,-1.01060382079921e+000

4.91800058012158e+005,-5.43071900803490e+000,-1.02231133133474e+000

4.98665330982714e+005,-5.43130834780147e+000,-1.03411860139185e+000

5.05626439592555e+005,-5.43190473491005e+000,-1.04602611915343e+000

5.12684721657352e+005,-5.43250806137529e+000,-1.05803440624114e+000

5.19841533667984e+005,-5.43311821113936e+000,-1.07014402031105e+000

5.27098251051240e+005,-5.43373506004309e+000,-1.08235555769324e+000

5.34456268434150e+005,-5.43435847581270e+000,-1.09466965607951e+000

5.41916999912011e+005,-5.43498831806457e+000,-1.10708699724248e+000

