Freq.,VOut,OutRef

1.00000000000000e+004,-1.38413939630832e+001,-1.43856338012211e-001

1.01395947979003e+004,-1.38413942735285e+001,-1.45864474318398e-001

1.02811382665607e+004,-1.38413945926991e+001,-1.47900642171478e-001

1.04246576084112e+004,-1.38413949208400e+001,-1.49965232836145e-001

1.05701804056138e+004,-1.38413952582033e+001,-1.52058643036088e-001

1.07177346253629e+004,-1.38413956050482e+001,-1.54181275030351e-001

1.08673486252606e+004,-1.38413959616412e+001,-1.56333536692288e-001

1.10190511587661e+004,-1.38413963282557e+001,-1.58515841589340e-001

1.11728713807222e+004,-1.38413967051737e+001,-1.60728609054998e-001

1.13288388529580e+004,-1.38413970926846e+001,-1.62972264277996e-001

1.14869835499703e+004,-1.38413974910859e+001,-1.65247238378356e-001

1.16473358646846e+004,-1.38413979006834e+001,-1.67553968494085e-001

1.18099266142953e+004,-1.38413983217919e+001,-1.69892897861137e-001

1.19747870461893e+004,-1.38413987547347e+001,-1.72264475898857e-001

1.21419488439505e+004,-1.38413991998440e+001,-1.74669158301579e-001

1.23114441334492e+004,-1.38413996574618e+001,-1.77107407119171e-001

1.24833054890161e+004,-1.38414001279394e+001,-1.79579690848137e-001

1.26575659397028e+004,-1.38414006116382e+001,-1.82086484522813e-001

1.28342589756290e+004,-1.38414011089293e+001,-1.84628269806964e-001

1.30134185544193e+004,-1.38414016201945e+001,-1.87205535082751e-001

1.31950791077289e+004,-1.38414021458264e+001,-1.89818775547190e-001

1.33792755478611e+004,-1.38414026862283e+001,-1.92468493306723e-001

1.35660432744767e+004,-1.38414032418155e+001,-1.95155197471410e-001

1.37554181813974e+004,-1.38414038130140e+001,-1.97879404257182e-001

1.39474366635040e+004,-1.38414044002623e+001,-2.00641637080129e-001

1.41421356237309e+004,-1.38414050040113e+001,-2.03442426658237e-001

1.43395524801583e+004,-1.38414056247243e+001,-2.06282311115246e-001

1.45397251732031e+004,-1.38414062628776e+001,-2.09161836081558e-001

1.47426921729110e+004,-1.38414069189609e+001,-2.12081554798418e-001

1.49484924863494e+004,-1.38414075934780e+001,-2.15042028225073e-001

1.51571656651040e+004,-1.38414082869460e+001,-2.18043825148712e-001

1.53687518128801e+004,-1.38414089998973e+001,-2.21087522288656e-001

1.55832915932100e+004,-1.38414097328787e+001,-2.24173704409691e-001

1.58008262372675e+004,-1.38414104864530e+001,-2.27302964432628e-001

1.60213975517924e+004,-1.38414112611978e+001,-2.30475903551851e-001

1.62450479271247e+004,-1.38414120577077e+001,-2.33693131344468e-001

1.64718203453514e+004,-1.38414128765937e+001,-2.36955265892362e-001

1.67017583885674e+004,-1.38414137184838e+001,-2.40262933897887e-001

1.69349062472505e+004,-1.38414145840237e+001,-2.43616770804231e-001

1.71713087287550e+004,-1.38414154738773e+001,-2.47017420917460e-001

1.74110112659224e+004,-1.38414163887270e+001,-2.50465537529295e-001

1.76540599258131e+004,-1.38414173292743e+001,-2.53961783045017e-001

1.79005014185594e+004,-1.38414182962405e+001,-2.57506829104688e-001

1.81503831063432e+004,-1.38414192903667e+001,-2.61101356718770e-001

1.84037530124975e+004,-1.38414203124155e+001,-2.64746056391401e-001

1.86606598307361e+004,-1.38414213631701e+001,-2.68441628257840e-001

1.89211529345119e+004,-1.38414224434359e+001,-2.72188782218293e-001

1.91852823865052e+004,-1.38414235540411e+001,-2.75988238068264e-001

1.94530989482457e+004,-1.38414246958367e+001,-2.79840725643251e-001

1.97246540898671e+004,-1.38414258696979e+001,-2.83746984954208e-001

1.99999999999999e+004,-1.38414270765240e+001,-2.87707766330263e-001

2.02791895958005e+004,-1.38414283172399e+001,-2.91723830561669e-001

2.05622765331213e+004,-1.38414295927960e+001,-2.95795949047431e-001

2.08493152168224e+004,-1.38414309041694e+001,-2.99924903939836e-001

2.11403608112276e+004,-1.38414322523649e+001,-3.04111488294889e-001

2.14354692507258e+004,-1.38414336384147e+001,-3.08356506226921e-001

2.17346972505211e+004,-1.38414350633805e+001,-3.12660773057557e-001

2.20381023175322e+004,-1.38414365283534e+001,-3.17025115473911e-001

2.23457427614443e+004,-1.38414380344552e+001,-3.21450371687381e-001

2.26576777059159e+004,-1.38414395828387e+001,-3.25937391593064e-001

2.29739670999406e+004,-1.38414411746894e+001,-3.30487036930161e-001

2.32946717293690e+004,-1.38414428112255e+001,-3.35100181450838e-001

2.36198532285905e+004,-1.38414444936994e+001,-3.39777711083229e-001

2.39495740923785e+004,-1.38414462233988e+001,-3.44520524100841e-001

2.42838976879009e+004,-1.38414480016469e+001,-3.49329531296634e-001

2.46228882668982e+004,-1.38414498298041e+001,-3.54205656155325e-001

2.49666109780322e+004,-1.38414517092685e+001,-3.59149835030049e-001

2.53151318794055e+004,-1.38414536414778e+001,-3.64163017318445e-001

2.56685179512580e+004,-1.38414556279094e+001,-3.69246165647641e-001

2.60268371088386e+004,-1.38414576700820e+001,-3.74400256055947e-001

2.63901582154578e+004,-1.38414597695566e+001,-3.79626278179724e-001

2.67585510957221e+004,-1.38414619279381e+001,-3.84925235438980e-001

2.71320865489533e+004,-1.38414641468756e+001,-3.90298145234083e-001

2.75108363627948e+004,-1.38414664280649e+001,-3.95746039133831e-001

2.78948733270080e+004,-1.38414687732483e+001,-4.01269963077069e-001

2.82842712474618e+004,-1.38414711842171e+001,-4.06870977568292e-001

2.86791049603164e+004,-1.38414736628125e+001,-4.12550157880685e-001

2.90794503464061e+004,-1.38414762109270e+001,-4.18308594260520e-001

2.94853843458219e+004,-1.38414788305055e+001,-4.24147392137244e-001

2.98969849726987e+004,-1.38414815235476e+001,-4.30067672328491e-001

3.03143313302078e+004,-1.38414842921078e+001,-4.36070571259165e-001

3.07375036257601e+004,-1.38414871382987e+001,-4.42157241171467e-001

3.11665831864199e+004,-1.38414900642907e+001,-4.48328850350739e-001

3.16016524745350e+004,-1.38414930723154e+001,-4.54586583341072e-001

3.20427951035848e+004,-1.38414961646658e+001,-4.60931641173919e-001

3.24900958542493e+004,-1.38414993436991e+001,-4.67365241595769e-001

3.29436406907028e+004,-1.38415026118377e+001,-4.73888619298450e-001

3.34035167771346e+004,-1.38415059715713e+001,-4.80503026154210e-001

3.38698124945009e+004,-1.38415094254589e+001,-4.87209731452596e-001

3.43426174575100e+004,-1.38415129761304e+001,-4.94010022141929e-001

3.48220225318448e+004,-1.38415166262885e+001,-5.00905203071954e-001

3.53081198516260e+004,-1.38415203787113e+001,-5.07896597242576e-001

3.58010028371187e+004,-1.38415242362535e+001,-5.14985546054004e-001

3.63007662126863e+004,-1.38415282018490e+001,-5.22173409560578e-001

3.68075060249948e+004,-1.38415322785132e+001,-5.29461566727272e-001

3.73213196614721e+004,-1.38415364693447e+001,-5.36851415692264e-001

3.78423058690237e+004,-1.38415407775281e+001,-5.44344374031022e-001

3.83705647730104e+004,-1.38415452063359e+001,-5.51941879022968e-001

3.89061978964912e+004,-1.38415497591312e+001,-5.59645387924262e-001

3.94493081797342e+004,-1.38415544393700e+001,-5.67456378243398e-001

3.99999999999998e+004,-1.38415592506040e+001,-5.75376348017496e-001

4.05583791916010e+004,-1.38415641964826e+001,-5.83406816098741e-001

4.11245530662425e+004,-1.38415692807561e+001,-5.91549322437358e-001

4.16986304336447e+004,-1.38415745072784e+001,-5.99805428374961e-001

4.22807216224550e+004,-1.38415798800093e+001,-6.08176716935486e-001

4.28709385014515e+004,-1.38415854030181e+001,-6.16664793125329e-001

4.34693945010421e+004,-1.38415910804859e+001,-6.25271284235283e-001

4.40762046350642e+004,-1.38415969167088e+001,-6.33997840145644e-001

4.46914855228886e+004,-1.38416029161014e+001,-6.42846133637201e-001

4.53153554118317e+004,-1.38416090831994e+001,-6.51817860703601e-001

4.59479341998812e+004,-1.38416154226629e+001,-6.60914740873386e-001

4.65893434587380e+004,-1.38416219392805e+001,-6.70138517528279e-001

4.72397064571810e+004,-1.38416286379717e+001,-6.79490958232791e-001

4.78991481847569e+004,-1.38416355237911e+001,-6.88973855064409e-001

4.85677953758016e+004,-1.38416426019316e+001,-6.98589024949384e-001

4.92457765337964e+004,-1.38416498777282e+001,-7.08338310002970e-001

4.99332219560642e+004,-1.38416573566621e+001,-7.18223577872358e-001

5.06302637588109e+004,-1.38416650443642e+001,-7.28246722087243e-001

5.13370359025159e+004,-1.38416729466191e+001,-7.38409662412136e-001

5.20536742176771e+004,-1.38416810693692e+001,-7.48714345205210e-001

5.27803164309155e+004,-1.38416894187193e+001,-7.59162743780236e-001

5.35171021914442e+004,-1.38416980009398e+001,-7.69756858775502e-001

5.42641730979066e+004,-1.38417068224726e+001,-7.80498718522771e-001

5.50216727255895e+004,-1.38417158899340e+001,-7.91390379428876e-001

5.57897466540159e+004,-1.38417252101205e+001,-8.02433926354341e-001

5.65685424949235e+004,-1.38417347900129e+001,-8.13631473000593e-001

5.73582099206328e+004,-1.38417446367811e+001,-8.24985162303484e-001

5.81589006928121e+004,-1.38417547577896e+001,-8.36497166827613e-001

5.89707686916437e+004,-1.38417651606016e+001,-8.48169689171055e-001

5.97939699453972e+004,-1.38417758529850e+001,-8.60004962370075e-001

6.06286626604156e+004,-1.38417868429173e+001,-8.72005250313376e-001

6.14750072515201e+004,-1.38417981385912e+001,-8.84172848157221e-001

6.23331663728396e+004,-1.38418097484198e+001,-8.96510082751311e-001

6.32033049490698e+004,-1.38418216810426e+001,-9.09019313064190e-001

6.40855902071694e+004,-1.38418339453311e+001,-9.21702930618953e-001

6.49801917084985e+004,-1.38418465503949e+001,-9.34563359930417e-001

6.58872813814055e+004,-1.38418595055875e+001,-9.47603058952132e-001

6.68070335542691e+004,-1.38418728205127e+001,-9.60824519524261e-001

6.77396249890018e+004,-1.38418865050308e+001,-9.74230267830554e-001

6.86852349150199e+004,-1.38419005692652e+001,-9.87822864859135e-001

6.96440450636895e+004,-1.38419150236088e+001,-1.00160490687117e+000

7.06162397032520e+004,-1.38419298787309e+001,-1.01557902587227e+000

7.16020056742374e+004,-1.38419451455842e+001,-1.02974789009198e+000

7.26015324253724e+004,-1.38419608354115e+001,-1.04411420446887e+000

7.36150120499896e+004,-1.38419769597530e+001,-1.05868071114163e+000

7.46426393229441e+004,-1.38419935304542e+001,-1.07345018994330e+000

7.56846117380472e+004,-1.38420105596722e+001,-1.08842545890879e+000

7.67411295460207e+004,-1.38420280598847e+001,-1.10360937477820e+000

7.78123957929823e+004,-1.38420460438966e+001,-1.11900483351627e+000

7.88986163594682e+004,-1.38420645248487e+001,-1.13461477083198e+000

7.99999999999995e+004,-1.38420835162255e+001,-1.15044216270630e+000

8.11167583832018e+004,-1.38421030318634e+001,-1.16649002592612e+000

8.22491061324848e+004,-1.38421230859595e+001,-1.18276141862417e+000

8.33972608672892e+004,-1.38421436930794e+001,-1.19925944082660e+000

8.45614432449099e+004,-1.38421648681668e+001,-1.21598723500580e+000

8.57418770029029e+004,-1.38421866265518e+001,-1.23294798663990e+000

8.69387890020841e+004,-1.38422089839598e+001,-1.25014492478003e+000

8.81524092701283e+004,-1.38422319565215e+001,-1.26758132262159e+000

8.93829710457770e+004,-1.38422555607811e+001,-1.28526049808594e+000

9.06307108236633e+004,-1.38422798137069e+001,-1.30318581440594e+000

9.18958683997622e+004,-1.38423047327000e+001,-1.32136068071898e+000

9.31786869174758e+004,-1.38423303356048e+001,-1.33978855266734e+000

9.44794129143618e+004,-1.38423566407186e+001,-1.35847293300490e+000

9.57982963695136e+004,-1.38423836668016e+001,-1.37741737221204e+000

9.71355907516031e+004,-1.38424114330874e+001,-1.39662546911499e+000

9.84915530675926e+004,-1.38424399592931e+001,-1.41610087151510e+000

9.98664439121282e+004,-1.38424692656303e+001,-1.43584727682380e+000

1.01260527517622e+005,-1.38424993728149e+001,-1.45586843270392e+000

1.02674071805032e+005,-1.38425303020786e+001,-1.47616813771976e+000

1.04107348435354e+005,-1.38425620751798e+001,-1.49675024199362e+000

1.05560632861831e+005,-1.38425947144140e+001,-1.51761864787046e+000

1.07034204382888e+005,-1.38426282426252e+001,-1.53877731058807e+000

1.08528346195813e+005,-1.38426626832176e+001,-1.56023023895533e+000

1.10043345451179e+005,-1.38426980601664e+001,-1.58198149604083e+000

1.11579493308032e+005,-1.38427343980293e+001,-1.60403519986383e+000

1.13137084989847e+005,-1.38427717219581e+001,-1.62639552409684e+000

1.14716419841265e+005,-1.38428100577102e+001,-1.64906669877405e+000

1.16317801385624e+005,-1.38428494316603e+001,-1.67205301100769e+000

1.17941537383287e+005,-1.38428898708124e+001,-1.69535880571222e+000

1.19587939890794e+005,-1.38429314028105e+001,-1.71898848633682e+000

1.21257325320831e+005,-1.38429740559518e+001,-1.74294651560420e+000

1.22950014503040e+005,-1.38430178591974e+001,-1.76723741625755e+000

1.24666332745679e+005,-1.38430628421845e+001,-1.79186577181892e+000

1.26406609898139e+005,-1.38431090352381e+001,-1.81683622734950e+000

1.28171180414339e+005,-1.38431564693827e+001,-1.84215349022319e+000

1.29960383416997e+005,-1.38432051763541e+001,-1.86782233090515e+000

1.31774562762811e+005,-1.38432551886110e+001,-1.89384758374073e+000

1.33614067108538e+005,-1.38433065393463e+001,-1.92023414775133e+000

1.35479249978003e+005,-1.38433592624991e+001,-1.94698698743804e+000

1.37370469830040e+005,-1.38434133927653e+001,-1.97411113359499e+000

1.39288090127379e+005,-1.38434689656091e+001,-2.00161168413269e+000

1.41232479406504e+005,-1.38435260172743e+001,-2.02949380490437e+000

1.43204011348474e+005,-1.38435845847946e+001,-2.05776273054764e+000

1.45203064850745e+005,-1.38436447060042e+001,-2.08642376533088e+000

1.47230024099979e+005,-1.38437064195484e+001,-2.11548228400940e+000

1.49285278645888e+005,-1.38437697648934e+001,-2.14494373269137e+000

1.51369223476094e+005,-1.38438347823361e+001,-2.17481362971169e+000

1.53482259092041e+005,-1.38439015130132e+001,-2.20509756651613e+000

1.55624791585964e+005,-1.38439699989105e+001,-2.23580120855393e+000

1.57797232718936e+005,-1.38440402828714e+001,-2.26693029618042e+000

1.59999999999999e+005,-1.38441124086045e+001,-2.29849064556971e+000

1.62233516766403e+005,-1.38441864206920e+001,-2.33048814963670e+000

1.64498212264969e+005,-1.38442623645959e+001,-2.36292877896797e+000

1.66794521734578e+005,-1.38443402866650e+001,-2.39581858276586e+000

1.69122886489819e+005,-1.38444202341406e+001,-2.42916368979943e+000

1.71483754005805e+005,-1.38445022551616e+001,-2.46297030936815e+000

1.73877578004168e+005,-1.38445863987690e+001,-2.49724473227640e+000

1.76304818540256e+005,-1.38446727149092e+001,-2.53199333181855e+000

1.78765942091554e+005,-1.38447612544379e+001,-2.56722256477374e+000

1.81261421647326e+005,-1.38448520691204e+001,-2.60293897241670e+000

1.83791736799524e+005,-1.38449452116342e+001,-2.63914918153454e+000

1.86357373834951e+005,-1.38450407355680e+001,-2.67585990546188e+000

1.88958825828723e+005,-1.38451386954215e+001,-2.71307794512307e+000

1.91596592739027e+005,-1.38452391466023e+001,-2.75081019009154e+000

1.94271181503206e+005,-1.38453421454236e+001,-2.78906361965884e+000

1.96983106135185e+005,-1.38454477490993e+001,-2.82784530392169e+000

1.99732887824256e+005,-1.38455560157380e+001,-2.86716240487839e+000

2.02521055035243e+005,-1.38456670043360e+001,-2.90702217754410e+000

2.05348143610063e+005,-1.38457807747690e+001,-2.94743197107788e+000

2.08214696870707e+005,-1.38458973877816e+001,-2.98839922992819e+000

2.11121265723661e+005,-1.38460169049758e+001,-3.02993149499216e+000

2.14068408765776e+005,-1.38461393887981e+001,-3.07203640479333e+000

2.17056692391625e+005,-1.38462649025240e+001,-3.11472169667653e+000

2.20086690902357e+005,-1.38463935102418e+001,-3.15799520801957e+000

2.23158986616063e+005,-1.38465252768337e+001,-3.20186487746590e+000

2.26274169979693e+005,-1.38466602679556e+001,-3.24633874617531e+000

2.29432839682530e+005,-1.38467985500145e+001,-3.29142495909504e+000

2.32635602771247e+005,-1.38469401901444e+001,-3.33713176625249e+000

2.35883074766574e+005,-1.38470852561794e+001,-3.38346752407008e+000

2.39175879781588e+005,-1.38472338166254e+001,-3.43044069670211e+000

2.42514650641661e+005,-1.38473859406287e+001,-3.47805985739707e+000

2.45900029006080e+005,-1.38475416979434e+001,-3.52633368988332e+000

2.49332665491357e+005,-1.38477011588954e+001,-3.57527098978214e+000

2.52813219796278e+005,-1.38478643943447e+001,-3.62488066604614e+000

2.56342360828676e+005,-1.38480314756451e+001,-3.67517174242757e+000

2.59920766833993e+005,-1.38482024746011e+001,-3.72615335897573e+000

2.63549125525621e+005,-1.38483774634227e+001,-3.77783477356430e+000

2.67228134217075e+005,-1.38485565146775e+001,-3.83022536345114e+000

2.70958499956006e+005,-1.38487397012402e+001,-3.88333462687177e+000

2.74740939660078e+005,-1.38489270962390e+001,-3.93717218466746e+000

2.78576180254757e+005,-1.38491187730005e+001,-3.99174778194895e+000

2.82464958813007e+005,-1.38493148049908e+001,-4.04707128979922e+000

2.86408022696948e+005,-1.38495152657546e+001,-4.10315270701376e+000

2.90406129701488e+005,-1.38497202288514e+001,-4.16000216188394e+000

2.94460048199957e+005,-1.38499297677892e+001,-4.21762991402089e+000

2.98570557291775e+005,-1.38501439559557e+001,-4.27604635622569e+000

3.02738446952187e+005,-1.38503628665467e+001,-4.33526201640272e+000

3.06964518184081e+005,-1.38505865724925e+001,-4.39528755952386e+000

3.11249583171928e+005,-1.38508151463807e+001,-4.45613378964087e+000

3.15594465437872e+005,-1.38510486603784e+001,-4.51781165194856e+000

3.19999999999997e+005,-1.38512871861508e+001,-4.58033223490200e+000

3.24467033532806e+005,-1.38515307947778e+001,-4.64370677238915e+000

3.28996424529938e+005,-1.38517795566692e+001,-4.70794664596052e+000

3.33589043469155e+005,-1.38520335414775e+001,-4.77306338711678e+000

3.38245772979638e+005,-1.38522928180088e+001,-4.83906867965826e+000

3.42967508011610e+005,-1.38525574541329e+001,-4.90597436209758e+000

3.47755156008335e+005,-1.38528275166909e+001,-4.97379243013607e+000

3.52609637080511e+005,-1.38531030714027e+001,-5.04253503920786e+000

3.57531884183106e+005,-1.38533841827728e+001,-5.11221450709131e+000

3.62522843294651e+005,-1.38536709139957e+001,-5.18284331659249e+000

3.67583473599047e+005,-1.38539633268607e+001,-5.25443411829925e+000

3.72714747669902e+005,-1.38542614816568e+001,-5.32699973341071e+000

3.77917651657445e+005,-1.38545654370775e+001,-5.40055315664050e+000

3.83193185478053e+005,-1.38548752501257e+001,-5.47510755920024e+000

3.88542363006410e+005,-1.38551909760204e+001,-5.55067629185897e+000

3.93966212270369e+005,-1.38555126681033e+001,-5.62727288808489e+000

3.99465775648511e+005,-1.38558403777478e+001,-5.70491106726769e+000

4.05042110070485e+005,-1.38561741542695e+001,-5.78360473802508e+000

4.10696287220124e+005,-1.38565140448394e+001,-5.86336800159192e+000

4.16429393741414e+005,-1.38568600943990e+001,-5.94421515529611e+000

4.22242531447321e+005,-1.38572123455795e+001,-6.02616069611952e+000

4.28136817531551e+005,-1.38575708386243e+001,-6.10921932434552e+000

4.34113384783250e+005,-1.38579356113152e+001,-6.19340594729480e+000

4.40173381804713e+005,-1.38583066989039e+001,-6.27873568314846e+000

4.46317973232124e+005,-1.38586841340478e+001,-6.36522386485794e+000

4.52548339959385e+005,-1.38590679467520e+001,-6.45288604414490e+000

4.58865679365059e+005,-1.38594581643170e+001,-6.54173799558740e+000

4.65271205542494e+005,-1.38598548112928e+001,-6.63179572079331e+000

4.71766149533147e+005,-1.38602579094408e+001,-6.72307545266130e+000

4.78351759563174e+005,-1.38606674777022e+001,-6.81559365972764e+000

4.85029301283321e+005,-1.38610835321754e+001,-6.90936705059717e+000

4.91800058012158e+005,-1.38615060861013e+001,-7.00441257845889e+000

4.98665330982714e+005,-1.38619351498585e+001,-7.10074744568239e+000

5.05626439592555e+005,-1.38623707309670e+001,-7.19838910849611e+000

5.12684721657352e+005,-1.38628128341024e+001,-7.29735528174310e+000

5.19841533667984e+005,-1.38632614611209e+001,-7.39766394371348e+000

5.27098251051240e+005,-1.38637166110947e+001,-7.49933334105052e+000

5.34456268434150e+005,-1.38641782803585e+001,-7.60238199372858e+000

5.41916999912011e+005,-1.38646464625685e+001,-7.70682870009843e+000

