Freq.,VOut,OutRef

1.00000000000000e+004,-2.06535716647607e+001,-2.55254608884978e-001

1.01395947979003e+004,-2.06535728389947e+001,-2.58817780310674e-001

1.02811382665607e+004,-2.06535740462360e+001,-2.62430689628312e-001

1.04246576084112e+004,-2.06535752874124e+001,-2.66094031061248e-001

1.05701804056138e+004,-2.06535765634776e+001,-2.69808508521811e-001

1.07177346253629e+004,-2.06535778754120e+001,-2.73574835745008e-001

1.08673486252606e+004,-2.06535792242239e+001,-2.77393736423035e-001

1.10190511587661e+004,-2.06535806109495e+001,-2.81265944348526e-001

1.11728713807222e+004,-2.06535820366545e+001,-2.85192203550149e-001

1.13288388529580e+004,-2.06535835024344e+001,-2.89173268440671e-001

1.14869835499703e+004,-2.06535850094153e+001,-2.93209903958817e-001

1.16473358646846e+004,-2.06535865587552e+001,-2.97302885714149e-001

1.18099266142953e+004,-2.06535881516445e+001,-3.01453000139922e-001

1.19747870461893e+004,-2.06535897893070e+001,-3.05661044641741e-001

1.21419488439505e+004,-2.06535914730009e+001,-3.09927827751413e-001

1.23114441334492e+004,-2.06535932040200e+001,-3.14254169278745e-001

1.24833054890161e+004,-2.06535949836940e+001,-3.18640900475161e-001

1.26575659397028e+004,-2.06535968133902e+001,-3.23088864186000e-001

1.28342589756290e+004,-2.06535986945143e+001,-3.27598915017553e-001

1.30134185544193e+004,-2.06536006285116e+001,-3.32171919496902e-001

1.31950791077289e+004,-2.06536026168676e+001,-3.36808756242985e-001

1.33792755478611e+004,-2.06536046611100e+001,-3.41510316127970e-001

1.35660432744767e+004,-2.06536067628090e+001,-3.46277502456321e-001

1.37554181813974e+004,-2.06536089235792e+001,-3.51111231130076e-001

1.39474366635040e+004,-2.06536111450805e+001,-3.56012430829468e-001

1.41421356237309e+004,-2.06536134290191e+001,-3.60982043190787e-001

1.43395524801583e+004,-2.06536157771496e+001,-3.66021022982851e-001

1.45397251732031e+004,-2.06536181912754e+001,-3.71130338294969e-001

1.47426921729110e+004,-2.06536206732510e+001,-3.76310970718267e-001

1.49484924863494e+004,-2.06536232249825e+001,-3.81563915537131e-001

1.51571656651040e+004,-2.06536258484300e+001,-3.86890181916943e-001

1.53687518128801e+004,-2.06536285456083e+001,-3.92290793099317e-001

1.55832915932100e+004,-2.06536313185889e+001,-3.97766786597339e-001

1.58008262372675e+004,-2.06536341695013e+001,-4.03319214395482e-001

1.60213975517924e+004,-2.06536371005351e+001,-4.08949143147790e-001

1.62450479271247e+004,-2.06536401139410e+001,-4.14657654387154e-001

1.64718203453514e+004,-2.06536432120332e+001,-4.20445844727542e-001

1.67017583885674e+004,-2.06536463971906e+001,-4.26314826077190e-001

1.69349062472505e+004,-2.06536496718591e+001,-4.32265725849059e-001

1.71713087287550e+004,-2.06536530385530e+001,-4.38299687178884e-001

1.74110112659224e+004,-2.06536564998577e+001,-4.44417869141397e-001

1.76540599258131e+004,-2.06536600584304e+001,-4.50621446975782e-001

1.79005014185594e+004,-2.06536637170034e+001,-4.56911612307344e-001

1.81503831063432e+004,-2.06536674783855e+001,-4.63289573375870e-001

1.84037530124975e+004,-2.06536713454643e+001,-4.69756555268622e-001

1.86606598307361e+004,-2.06536753212087e+001,-4.76313800151588e-001

1.89211529345119e+004,-2.06536794086706e+001,-4.82962567510481e-001

1.91852823865052e+004,-2.06536836109877e+001,-4.89704134388745e-001

1.94530989482457e+004,-2.06536879313853e+001,-4.96539795634950e-001

1.97246540898671e+004,-2.06536923731799e+001,-5.03470864144748e-001

1.99999999999999e+004,-2.06536969397806e+001,-5.10498671118897e-001

2.02791895958005e+004,-2.06537016346921e+001,-5.17624566311391e-001

2.05622765331213e+004,-2.06537064615175e+001,-5.24849918291349e-001

2.08493152168224e+004,-2.06537114239611e+001,-5.32176114702902e-001

2.11403608112276e+004,-2.06537165258310e+001,-5.39604562529312e-001

2.14354692507258e+004,-2.06537217710417e+001,-5.47136688365327e-001

2.17346972505211e+004,-2.06537271636181e+001,-5.54773938683586e-001

2.20381023175322e+004,-2.06537327076976e+001,-5.62517780116858e-001

2.23457427614443e+004,-2.06537384075338e+001,-5.70369699734041e-001

2.26576777059159e+004,-2.06537442674992e+001,-5.78331205325207e-001

2.29739670999406e+004,-2.06537502920892e+001,-5.86403825690272e-001

2.32946717293690e+004,-2.06537564859252e+001,-5.94589110928033e-001

2.36198532285905e+004,-2.06537628537579e+001,-6.02888632733810e-001

2.39495740923785e+004,-2.06537694004714e+001,-6.11303984699472e-001

2.42838976879009e+004,-2.06537761310866e+001,-6.19836782615231e-001

2.46228882668982e+004,-2.06537830507648e+001,-6.28488664779465e-001

2.49666109780322e+004,-2.06537901648124e+001,-6.37261292309549e-001

2.53151318794055e+004,-2.06537974786842e+001,-6.46156349459571e-001

2.56685179512580e+004,-2.06538049979877e+001,-6.55175543939816e-001

2.60268371088386e+004,-2.06538127284877e+001,-6.64320607242172e-001

2.63901582154578e+004,-2.06538206761104e+001,-6.73593294971016e-001

2.67585510957221e+004,-2.06538288469479e+001,-6.82995387175228e-001

2.71320865489533e+004,-2.06538372472629e+001,-6.92528688688534e-001

2.75108363627948e+004,-2.06538458834934e+001,-7.02195029471777e-001

2.78948733270080e+004,-2.06538547622578e+001,-7.11996264961309e-001

2.82842712474618e+004,-2.06538638903595e+001,-7.21934276422070e-001

2.86791049603164e+004,-2.06538732747926e+001,-7.32010971303316e-001

2.90794503464061e+004,-2.06538829227468e+001,-7.42228283603244e-001

2.94853843458219e+004,-2.06538928416129e+001,-7.52588174234743e-001

2.98969849726987e+004,-2.06539030389886e+001,-7.63092631398160e-001

3.03143313302078e+004,-2.06539135226841e+001,-7.73743670958616e-001

3.07375036257601e+004,-2.06539243007279e+001,-7.84543336827955e-001

3.11665831864199e+004,-2.06539353813733e+001,-7.95493701352721e-001

3.16016524745350e+004,-2.06539467731043e+001,-8.06596865707386e-001

3.20427951035848e+004,-2.06539584846418e+001,-8.17854960292168e-001

3.24900958542493e+004,-2.06539705249509e+001,-8.29270145135267e-001

3.29436406907028e+004,-2.06539829032470e+001,-8.40844610304493e-001

3.34035167771346e+004,-2.06539956290031e+001,-8.52580576319596e-001

3.38698124945009e+004,-2.06540087119568e+001,-8.64480294572802e-001

3.43426174575100e+004,-2.06540221621177e+001,-8.76546047755172e-001

3.48220225318448e+004,-2.06540359897753e+001,-8.88780150287152e-001

3.53081198516260e+004,-2.06540502055058e+001,-9.01184948757580e-001

3.58010028371187e+004,-2.06540648201813e+001,-9.13762822363908e-001

3.63007662126863e+004,-2.06540798449770e+001,-9.26516183363682e-001

3.68075060249948e+004,-2.06540952913799e+001,-9.39447477529077e-001

3.73213196614721e+004,-2.06541111711980e+001,-9.52559184606998e-001

3.78423058690237e+004,-2.06541274965682e+001,-9.65853818787603e-001

3.83705647730104e+004,-2.06541442799660e+001,-9.79333929177578e-001

3.89061978964912e+004,-2.06541615342151e+001,-9.93002100279289e-001

3.94493081797342e+004,-2.06541792724962e+001,-1.00686095247779e+000

3.99999999999998e+004,-2.06541975083577e+001,-1.02091314253300e+000

4.05583791916010e+004,-2.06542162557254e+001,-1.03516136407996e+000

4.11245530662425e+004,-2.06542355289131e+001,-1.04960834813273e+000

4.16986304336447e+004,-2.06542553426330e+001,-1.06425686359841e+000

4.22807216224550e+004,-2.06542757120073e+001,-1.07910971779676e+000

4.28709385014515e+004,-2.06542966525787e+001,-1.09416975698507e+000

4.34693945010421e+004,-2.06543181803228e+001,-1.10943986689154e+000

4.40762046350642e+004,-2.06543403116595e+001,-1.12492297325631e+000

4.46914855228886e+004,-2.06543630634651e+001,-1.14062204237792e+000

4.53153554118317e+004,-2.06543864530855e+001,-1.15654008166748e+000

4.59479341998812e+004,-2.06544104983485e+001,-1.17268014021027e+000

4.65893434587380e+004,-2.06544352175772e+001,-1.18904530933563e+000

4.72397064571810e+004,-2.06544606296039e+001,-1.20563872319188e+000

4.78991481847569e+004,-2.06544867537833e+001,-1.22246355933126e+000

4.85677953758016e+004,-2.06545136100080e+001,-1.23952303930075e+000

4.92457765337964e+004,-2.06545412187219e+001,-1.25682042924125e+000

4.99332219560642e+004,-2.06545696009364e+001,-1.27435904049446e+000

5.06302637588109e+004,-2.06545987782453e+001,-1.29214223021812e+000

5.13370359025159e+004,-2.06546287728409e+001,-1.31017340200682e+000

5.20536742176771e+004,-2.06546596075302e+001,-1.32845600652509e+000

5.27803164309155e+004,-2.06546913057519e+001,-1.34699354214348e+000

5.35171021914442e+004,-2.06547238915938e+001,-1.36578955558686e+000

5.42641730979066e+004,-2.06547573898096e+001,-1.38484764258906e+000

5.50216727255895e+004,-2.06547918258380e+001,-1.40417144855708e+000

5.57897466540159e+004,-2.06548272258211e+001,-1.42376466924064e+000

5.65685424949235e+004,-2.06548636166228e+001,-1.44363105141475e+000

5.73582099206328e+004,-2.06549010258493e+001,-1.46377439356770e+000

5.81589006928121e+004,-2.06549394818689e+001,-1.48419854659890e+000

5.89707686916437e+004,-2.06549790138323e+001,-1.50490741452383e+000

5.97939699453972e+004,-2.06550196516944e+001,-1.52590495519137e+000

6.06286626604156e+004,-2.06550614262354e+001,-1.54719518100574e+000

6.14750072515201e+004,-2.06551043690834e+001,-1.56878215966123e+000

6.23331663728396e+004,-2.06551485127373e+001,-1.59067001488290e+000

6.32033049490698e+004,-2.06551938905902e+001,-1.61286292717892e+000

6.40855902071694e+004,-2.06552405369535e+001,-1.63536513460017e+000

6.49801917084985e+004,-2.06552884870810e+001,-1.65818093351178e+000

6.58872813814055e+004,-2.06553377771952e+001,-1.68131467937003e+000

6.68070335542691e+004,-2.06553884445126e+001,-1.70477078751285e+000

6.77396249890018e+004,-2.06554405272703e+001,-1.72855373395752e+000

6.86852349150199e+004,-2.06554940647533e+001,-1.75266805620933e+000

6.96440450636895e+004,-2.06555490973228e+001,-1.77711835407807e+000

7.06162397032520e+004,-2.06556056664446e+001,-1.80190929050650e+000

7.16020056742374e+004,-2.06556638147182e+001,-1.82704559240764e+000

7.26015324253724e+004,-2.06557235859075e+001,-1.85253205151157e+000

7.36150120499896e+004,-2.06557850249713e+001,-1.87837352522392e+000

7.46426393229441e+004,-2.06558481780950e+001,-1.90457493749210e+000

7.56846117380472e+004,-2.06559130927230e+001,-1.93114127968390e+000

7.67411295460207e+004,-2.06559798175920e+001,-1.95807761147512e+000

7.78123957929823e+004,-2.06560484027649e+001,-1.98538906174742e+000

7.88986163594682e+004,-2.06561188996659e+001,-2.01308082949805e+000

7.99999999999995e+004,-2.06561913611159e+001,-2.04115818475752e+000

8.11167583832018e+004,-2.06562658413692e+001,-2.06962646952037e+000

8.22491061324848e+004,-2.06563423961512e+001,-2.09849109868466e+000

8.33972608672892e+004,-2.06564210826963e+001,-2.12775756100346e+000

8.45614432449099e+004,-2.06565019597876e+001,-2.15743142004550e+000

8.57418770029029e+004,-2.06565850877967e+001,-2.18751831516887e+000

8.69387890020841e+004,-2.06566705287252e+001,-2.21802396250272e+000

8.81524092701283e+004,-2.06567583462469e+001,-2.24895415594213e+000

8.93829710457770e+004,-2.06568486057505e+001,-2.28031476815259e+000

9.06307108236633e+004,-2.06569413743839e+001,-2.31211175158684e+000

9.18958683997622e+004,-2.06570367210996e+001,-2.34435113951063e+000

9.31786869174758e+004,-2.06571347167006e+001,-2.37703904704238e+000

9.44794129143618e+004,-2.06572354338874e+001,-2.41018167220051e+000

9.57982963695136e+004,-2.06573389473072e+001,-2.44378529696551e+000

9.71355907516031e+004,-2.06574453336021e+001,-2.47785628835062e+000

9.84915530675926e+004,-2.06575546714608e+001,-2.51240109948444e+000

9.98664439121282e+004,-2.06576670416691e+001,-2.54742627070654e+000

1.01260527517622e+005,-2.06577825271636e+001,-2.58293843067144e+000

1.02674071805032e+005,-2.06579012130850e+001,-2.61894429746633e+000

1.04107348435354e+005,-2.06580231868338e+001,-2.65545067973874e+000

1.05560632861831e+005,-2.06581485381260e+001,-2.69246447783673e+000

1.07034204382888e+005,-2.06582773590508e+001,-2.72999268496005e+000

1.08528346195813e+005,-2.06584097441297e+001,-2.76804238832199e+000

1.10043345451179e+005,-2.06585457903760e+001,-2.80662077032460e+000

1.11579493308032e+005,-2.06586855973560e+001,-2.84573510974353e+000

1.13137084989847e+005,-2.06588292672518e+001,-2.88539278292558e+000

1.14716419841265e+005,-2.06589769049250e+001,-2.92560126499734e+000

1.16317801385624e+005,-2.06591286179815e+001,-2.96636813108558e+000

1.17941537383287e+005,-2.06592845168381e+001,-3.00770105754896e+000

1.19587939890794e+005,-2.06594447147899e+001,-3.04960782322170e+000

1.21257325320831e+005,-2.06596093280796e+001,-3.09209631066905e+000

1.22950014503040e+005,-2.06597784759678e+001,-3.13517450745317e+000

1.24666332745679e+005,-2.06599522808043e+001,-3.17885050741298e+000

1.26406609898139e+005,-2.06601308681015e+001,-3.22313251195299e+000

1.28171180414339e+005,-2.06603143666089e+001,-3.26802883134518e+000

1.29960383416997e+005,-2.06605029083883e+001,-3.31354788604350e+000

1.31774562762811e+005,-2.06606966288914e+001,-3.35969820800796e+000

1.33614067108538e+005,-2.06608956670385e+001,-3.40648844204159e+000

1.35479249978003e+005,-2.06611001652978e+001,-3.45392734713948e+000

1.37370469830040e+005,-2.06613102697669e+001,-3.50202379784913e+000

1.39288090127379e+005,-2.06615261302559e+001,-3.55078678564200e+000

1.41232479406504e+005,-2.06617479003709e+001,-3.60022542029784e+000

1.43204011348474e+005,-2.06619757375997e+001,-3.65034893130031e+000

1.45203064850745e+005,-2.06622098033986e+001,-3.70116666924466e+000

1.47230024099979e+005,-2.06624502632804e+001,-3.75268810725692e+000

1.49285278645888e+005,-2.06626972869044e+001,-3.80492284242600e+000

1.51369223476094e+005,-2.06629510481668e+001,-3.85788059724606e+000

1.53482259092041e+005,-2.06632117252937e+001,-3.91157122107267e+000

1.55624791585964e+005,-2.06634795009339e+001,-3.96600469159052e+000

1.57797232718936e+005,-2.06637545622543e+001,-4.02119111629284e+000

1.59999999999999e+005,-2.06640371010363e+001,-4.07714073397365e+000

1.62233516766403e+005,-2.06643273137734e+001,-4.13386391623158e+000

1.64498212264969e+005,-2.06646254017696e+001,-4.19137116898819e+000

1.66794521734578e+005,-2.06649315712400e+001,-4.24967313401637e+000

1.69122886489819e+005,-2.06652460334122e+001,-4.30878059048314e+000

1.71483754005805e+005,-2.06655690046285e+001,-4.36870445650479e+000

1.73877578004168e+005,-2.06659007064504e+001,-4.42945579071576e+000

1.76304818540256e+005,-2.06662413657631e+001,-4.49104579384951e+000

1.78765942091554e+005,-2.06665912148816e+001,-4.55348581033459e+000

1.81261421647326e+005,-2.06669504916583e+001,-4.61678732990332e+000

1.83791736799524e+005,-2.06673194395915e+001,-4.68096198921489e+000

1.86357373834951e+005,-2.06676983079342e+001,-4.74602157349255e+000

1.88958825828723e+005,-2.06680873518053e+001,-4.81197801817625e+000

1.91596592739027e+005,-2.06684868323007e+001,-4.87884341058913e+000

1.94271181503206e+005,-2.06688970166058e+001,-4.94662999162039e+000

1.96983106135185e+005,-2.06693181781088e+001,-5.01535015742359e+000

1.99732887824256e+005,-2.06697505965154e+001,-5.08501646113081e+000

2.02521055035243e+005,-2.06701945579635e+001,-5.15564161458485e+000

2.05348143610063e+005,-2.06706503551394e+001,-5.22723849008707e+000

2.08214696870707e+005,-2.06711182873945e+001,-5.29982012216440e+000

2.11121265723661e+005,-2.06715986608630e+001,-5.37339970935434e+000

2.14068408765776e+005,-2.06720917885803e+001,-5.44799061600896e+000

2.17056692391625e+005,-2.06725979906014e+001,-5.52360637411951e+000

2.20086690902357e+005,-2.06731175941216e+001,-5.60026068516066e+000

2.23158986616063e+005,-2.06736509335958e+001,-5.67796742195704e+000

2.26274169979693e+005,-2.06741983508600e+001,-5.75674063057184e+000

2.29432839682530e+005,-2.06747601952529e+001,-5.83659453221860e+000

2.32635602771247e+005,-2.06753368237379e+001,-5.91754352519705e+000

2.35883074766574e+005,-2.06759286010260e+001,-5.99960218685499e+000

2.39175879781588e+005,-2.06765358996989e+001,-6.08278527557595e+000

2.42514650641661e+005,-2.06771591003331e+001,-6.16710773279416e+000

2.45900029006080e+005,-2.06777985916241e+001,-6.25258468503985e+000

2.49332665491357e+005,-2.06784547705122e+001,-6.33923144601182e+000

2.52813219796278e+005,-2.06791280423072e+001,-6.42706351868485e+000

2.56342360828676e+005,-2.06798188208157e+001,-6.51609659744760e+000

2.59920766833993e+005,-2.06805275284674e+001,-6.60634657027558e+000

2.63549125525621e+005,-2.06812545964436e+001,-6.69782952094007e+000

2.67228134217075e+005,-2.06820004648054e+001,-6.79056173125495e+000

2.70958499956006e+005,-2.06827655826232e+001,-6.88455968336211e+000

2.74740939660078e+005,-2.06835504081078e+001,-6.97984006205791e+000

2.78576180254757e+005,-2.06843554087412e+001,-7.07641975716280e+000

2.82464958813007e+005,-2.06851810614102e+001,-7.17431586593549e+000

2.86408022696948e+005,-2.06860278525404e+001,-7.27354569553308e+000

2.90406129701488e+005,-2.06868962782319e+001,-7.37412676552015e+000

2.94460048199957e+005,-2.06877868443969e+001,-7.47607681042814e+000

2.98570557291775e+005,-2.06887000668992e+001,-7.57941378236745e+000

3.02738446952187e+005,-2.06896364716958e+001,-7.68415585369346e+000

3.06964518184081e+005,-2.06905965949812e+001,-7.79032141972985e+000

3.11249583171928e+005,-2.06915809833334e+001,-7.89792910155086e+000

3.15594465437872e+005,-2.06925901938645e+001,-8.00699774882325e+000

3.19999999999997e+005,-2.06936247943735e+001,-8.11754644271254e+000

3.24467033532806e+005,-2.06946853635030e+001,-8.22959449885369e+000

3.28996424529938e+005,-2.06957724909000e+001,-8.34316147038929e+000

3.33589043469155e+005,-2.06968867773819e+001,-8.45826715107629e+000

3.38245772979638e+005,-2.06980288351060e+001,-8.57493157846553e+000

3.42967508011610e+005,-2.06991992877464e+001,-8.69317503715215e+000

3.47755156008335e+005,-2.07003987706752e+001,-8.81301806210369e+000

3.52609637080511e+005,-2.07016279311512e+001,-8.93448144206290e+000

3.57531884183106e+005,-2.07028874285158e+001,-9.05758622303019e+000

3.62522843294651e+005,-2.07041779343959e+001,-9.18235371182590e+000

3.67583473599047e+005,-2.07055001329163e+001,-9.30880547973413e+000

3.72714747669902e+005,-2.07068547209204e+001,-9.43696336622885e+000

3.77917651657445e+005,-2.07082424082016e+001,-9.56684948278454e+000

3.83193185478053e+005,-2.07096639177445e+001,-9.69848621677079e+000

3.88542363006410e+005,-2.07111199859788e+001,-9.83189623543232e+000

3.93966212270369e+005,-2.07126113630438e+001,-9.96710248995503e+000

3.99465775648511e+005,-2.07141388130685e+001,-1.01041282196170e+001

4.05042110070485e+005,-2.07157031144634e+001,-1.02429969560255e+001

4.10696287220124e+005,-2.07173050602292e+001,-1.03837325274394e+001

4.16429393741414e+005,-2.07189454582806e+001,-1.05263590631747e+001

4.22242531447321e+005,-2.07206251317878e+001,-1.06709009980947e+001

4.28136817531551e+005,-2.07223449195355e+001,-1.08173830771793e+001

4.34113384783250e+005,-2.07241056763013e+001,-1.09658303601761e+001

4.40173381804713e+005,-2.07259082732548e+001,-1.11162682263270e+001

4.46317973232124e+005,-2.07277535983769e+001,-1.12687223791691e+001

4.52548339959385e+005,-2.07296425569025e+001,-1.14232188514071e+001

4.58865679365059e+005,-2.07315760717864e+001,-1.15797840098519e+001

4.65271205542494e+005,-2.07335550841934e+001,-1.17384445604225e+001

4.71766149533147e+005,-2.07355805540144e+001,-1.18992275532050e+001

4.78351759563174e+005,-2.07376534604095e+001,-1.20621603875652e+001

4.85029301283321e+005,-2.07397748023783e+001,-1.22272708173062e+001

4.91800058012158e+005,-2.07419455993601e+001,-1.23945869558680e+001

4.98665330982714e+005,-2.07441668918631e+001,-1.25641372815584e+001

5.05626439592555e+005,-2.07464397421250e+001,-1.27359506428107e+001

5.12684721657352e+005,-2.07487652348059e+001,-1.29100562634581e+001

5.19841533667984e+005,-2.07511444777133e+001,-1.30864837480174e+001

5.27098251051240e+005,-2.07535786025619e+001,-1.32652630869716e+001

5.34456268434150e+005,-2.07560687657670e+001,-1.34464246620419e+001

5.41916999912011e+005,-2.07586161492742e+001,-1.36299992514409e+001

