Freq.,VOut,OutRef

1.00000000000000e+004,-4.01947657680607e+001,-2.80553670143556e-001

1.01395947979003e+004,-4.01947673688522e+001,-2.84469996751730e-001

1.02811382665607e+004,-4.01947690146432e+001,-2.88440990834860e-001

1.04246576084112e+004,-4.01947707066983e+001,-2.92467415420358e-001

1.05701804056138e+004,-4.01947724463177e+001,-2.96550044184654e-001

1.07177346253629e+004,-4.01947742348386e+001,-3.00689661595787e-001

1.08673486252606e+004,-4.01947760736354e+001,-3.04887063069908e-001

1.10190511587661e+004,-4.01947779641210e+001,-3.09143055122997e-001

1.11728713807222e+004,-4.01947799077483e+001,-3.13458455522859e-001

1.13288388529580e+004,-4.01947819060111e+001,-3.17834093447630e-001

1.14869835499703e+004,-4.01947839604446e+001,-3.22270809645721e-001

1.16473358646846e+004,-4.01947860726279e+001,-3.26769456594952e-001

1.18099266142953e+004,-4.01947882441839e+001,-3.31330898668100e-001

1.19747870461893e+004,-4.01947904767813e+001,-3.35956012297936e-001

1.21419488439505e+004,-4.01947927721357e+001,-3.40645686144521e-001

1.23114441334492e+004,-4.01947951320109e+001,-3.45400821266387e-001

1.24833054890161e+004,-4.01947975582202e+001,-3.50222331294016e-001

1.26575659397028e+004,-4.01948000526279e+001,-3.55111142603743e-001

1.28342589756290e+004,-4.01948026171506e+001,-3.60068194496117e-001

1.30134185544193e+004,-4.01948052537589e+001,-3.65094439374194e-001

1.31950791077289e+004,-4.01948079644785e+001,-3.70190842930904e-001

1.33792755478611e+004,-4.01948107513924e+001,-3.75358384327033e-001

1.35660432744767e+004,-4.01948136166417e+001,-3.80598056386169e-001

1.37554181813974e+004,-4.01948165624279e+001,-3.85910865780309e-001

1.39474366635040e+004,-4.01948195910143e+001,-3.91297833222795e-001

1.41421356237309e+004,-4.01948227047276e+001,-3.96759993667693e-001

1.43395524801583e+004,-4.01948259059602e+001,-4.02298396503869e-001

1.45397251732031e+004,-4.01948291971715e+001,-4.07914105758392e-001

1.47426921729110e+004,-4.01948325808898e+001,-4.13608200300477e-001

1.49484924863494e+004,-4.01948360597148e+001,-4.19381774046364e-001

1.51571656651040e+004,-4.01948396363190e+001,-4.25235936170668e-001

1.53687518128801e+004,-4.01948433134499e+001,-4.31171811318115e-001

1.55832915932100e+004,-4.01948470939322e+001,-4.37190539819824e-001

1.58008262372675e+004,-4.01948509806702e+001,-4.43293277908936e-001

1.60213975517924e+004,-4.01948549766494e+001,-4.49481197945169e-001

1.62450479271247e+004,-4.01948590849393e+001,-4.55755488638819e-001

1.64718203453514e+004,-4.01948633086955e+001,-4.62117355276329e-001

1.67017583885674e+004,-4.01948676511624e+001,-4.68568019952517e-001

1.69349062472505e+004,-4.01948721156754e+001,-4.75108721804444e-001

1.71713087287550e+004,-4.01948767056637e+001,-4.81740717247614e-001

1.74110112659224e+004,-4.01948814246523e+001,-4.88465280218885e-001

1.76540599258131e+004,-4.01948862762658e+001,-4.95283702416000e-001

1.79005014185594e+004,-4.01948912642302e+001,-5.02197293548928e-001

1.81503831063432e+004,-4.01948963923761e+001,-5.09207381588746e-001

1.84037530124975e+004,-4.01949016646419e+001,-5.16315313019234e-001

1.86606598307361e+004,-4.01949070850763e+001,-5.23522453099476e-001

1.89211529345119e+004,-4.01949126578417e+001,-5.30830186120543e-001

1.91852823865052e+004,-4.01949183872176e+001,-5.38239915670928e-001

1.94530989482457e+004,-4.01949242776033e+001,-5.45753064907207e-001

1.97246540898671e+004,-4.01949303335217e+001,-5.53371076823624e-001

1.99999999999999e+004,-4.01949365596226e+001,-5.61095414528251e-001

2.02791895958005e+004,-4.01949429606865e+001,-5.68927561523038e-001

2.05622765331213e+004,-4.01949495416278e+001,-5.76869021987417e-001

2.08493152168224e+004,-4.01949563074989e+001,-5.84921321065265e-001

2.11403608112276e+004,-4.01949632634942e+001,-5.93086005155453e-001

2.14354692507258e+004,-4.01949704149535e+001,-6.01364642207765e-001

2.17346972505211e+004,-4.01949777673666e+001,-6.09758822022977e-001

2.20381023175322e+004,-4.01949853263773e+001,-6.18270156555487e-001

2.23457427614443e+004,-4.01949930977880e+001,-6.26900280219547e-001

2.26576777059159e+004,-4.01950010875633e+001,-6.35650850204463e-001

2.29739670999406e+004,-4.01950093018356e+001,-6.44523546787001e-001

2.32946717293690e+004,-4.01950177469094e+001,-6.53520073654416e-001

2.36198532285905e+004,-4.01950264292655e+001,-6.62642158228244e-001

2.39495740923785e+004,-4.01950353555671e+001,-6.71891551993330e-001

2.42838976879009e+004,-4.01950445326636e+001,-6.81270030833150e-001

2.46228882668982e+004,-4.01950539675972e+001,-6.90779395365476e-001

2.49666109780322e+004,-4.01950636676070e+001,-7.00421471288224e-001

2.53151318794055e+004,-4.01950736401354e+001,-7.10198109725495e-001

2.56685179512580e+004,-4.01950838928332e+001,-7.20111187579923e-001

2.60268371088386e+004,-4.01950944335661e+001,-7.30162607891201e-001

2.63901582154578e+004,-4.01951052704199e+001,-7.40354300196396e-001

2.67585510957221e+004,-4.01951164117071e+001,-7.50688220898976e-001

2.71320865489533e+004,-4.01951278659735e+001,-7.61166353639645e-001

2.75108363627948e+004,-4.01951396420041e+001,-7.71790709673675e-001

2.78948733270080e+004,-4.01951517488301e+001,-7.82563328252964e-001

2.82842712474618e+004,-4.01951641957359e+001,-7.93486277014470e-001

2.86791049603164e+004,-4.01951769922661e+001,-8.04561652371999e-001

2.90794503464061e+004,-4.01951901482324e+001,-8.15791579914405e-001

2.94853843458219e+004,-4.01952036737216e+001,-8.27178214809880e-001

2.98969849726987e+004,-4.01952175791029e+001,-8.38723742213779e-001

3.03143313302078e+004,-4.01952318750361e+001,-8.50430377684277e-001

3.07375036257601e+004,-4.01952465724792e+001,-8.62300367601252e-001

3.11665831864199e+004,-4.01952616826974e+001,-8.74335989593225e-001

3.16016524745350e+004,-4.01952772172711e+001,-8.86539552968482e-001

3.20427951035848e+004,-4.01952931881049e+001,-8.98913399151756e-001

3.24900958542493e+004,-4.01953096074366e+001,-9.11459902129120e-001

3.29436406907028e+004,-4.01953264878467e+001,-9.24181468895650e-001

3.34035167771346e+004,-4.01953438422674e+001,-9.37080539912077e-001

3.38698124945009e+004,-4.01953616839933e+001,-9.50159589564868e-001

3.43426174575100e+004,-4.01953800266904e+001,-9.63421126634794e-001

3.48220225318448e+004,-4.01953988844071e+001,-9.76867694772006e-001

3.53081198516260e+004,-4.01954182715852e+001,-9.90501872972779e-001

3.58010028371187e+004,-4.01954382030698e+001,-1.00432627606995e+000

3.63007662126863e+004,-4.01954586941212e+001,-1.01834355522459e+000

3.68075060249948e+004,-4.01954797604265e+001,-1.03255639842586e+000

3.73213196614721e+004,-4.01955014181113e+001,-1.04696753099717e+000

3.78423058690237e+004,-4.01955236837518e+001,-1.06157971611004e+000

3.83705647730104e+004,-4.01955465743875e+001,-1.07639575530419e+000

3.89061978964912e+004,-4.01955701075336e+001,-1.09141848901484e+000

3.94493081797342e+004,-4.01955943011950e+001,-1.10665079710512e+000

3.99999999999998e+004,-4.01956191738794e+001,-1.12209559940951e+000

4.05583791916010e+004,-4.01956447446110e+001,-1.13775585627982e+000

4.11245530662425e+004,-4.01956710329455e+001,-1.15363456914260e+000

4.16986304336447e+004,-4.01956980589842e+001,-1.16973478106139e+000

4.22807216224550e+004,-4.01957258433896e+001,-1.18605957730508e+000

4.28709385014515e+004,-4.01957544074004e+001,-1.20261208592972e+000

4.34693945010421e+004,-4.01957837728480e+001,-1.21939547835999e+000

4.40762046350642e+004,-4.01958139621728e+001,-1.23641296998353e+000

4.46914855228886e+004,-4.01958449984407e+001,-1.25366782075333e+000

4.53153554118317e+004,-4.01958769053605e+001,-1.27116333579399e+000

4.59479341998812e+004,-4.01959097073022e+001,-1.28890286601939e+000

4.65893434587380e+004,-4.01959434293144e+001,-1.30688980875779e+000

4.72397064571810e+004,-4.01959780971437e+001,-1.32512760838397e+000

4.78991481847569e+004,-4.01960137372537e+001,-1.34361975695985e+000

4.85677953758016e+004,-4.01960503768449e+001,-1.36236979488477e+000

4.92457765337964e+004,-4.01960880438748e+001,-1.38138131155183e+000

4.99332219560642e+004,-4.01961267670789e+001,-1.40065794601493e+000

5.06302637588109e+004,-4.01961665759921e+001,-1.42020338766373e+000

5.13370359025159e+004,-4.01962075009707e+001,-1.44002137690541e+000

5.20536742176771e+004,-4.01962495732151e+001,-1.46011570585873e+000

5.27803164309155e+004,-4.01962928247928e+001,-1.48049021905321e+000

5.35171021914442e+004,-4.01963372886622e+001,-1.50114881413997e+000

5.42641730979066e+004,-4.01963829986973e+001,-1.52209544261043e+000

5.50216727255895e+004,-4.01964299897127e+001,-1.54333411052405e+000

5.57897466540159e+004,-4.01964782974891e+001,-1.56486887924553e+000

5.65685424949235e+004,-4.01965279588005e+001,-1.58670386619076e+000

5.73582099206328e+004,-4.01965790114404e+001,-1.60884324558395e+000

5.81589006928121e+004,-4.01966314942506e+001,-1.63129124922148e+000

5.89707686916437e+004,-4.01966854471491e+001,-1.65405216724749e+000

5.97939699453972e+004,-4.01967409111602e+001,-1.67713034893802e+000

6.06286626604156e+004,-4.01967979284440e+001,-1.70053020349553e+000

6.14750072515201e+004,-4.01968565423280e+001,-1.72425620085280e+000

6.23331663728396e+004,-4.01969167973384e+001,-1.74831287248627e+000

6.32033049490698e+004,-4.01969787392330e+001,-1.77270481224093e+000

6.40855902071694e+004,-4.01970424150345e+001,-1.79743667716381e+000

6.49801917084985e+004,-4.01971078730653e+001,-1.82251318834762e+000

6.58872813814055e+004,-4.01971751629821e+001,-1.84793913178669e+000

6.68070335542691e+004,-4.01972443358127e+001,-1.87371935924027e+000

6.77396249890018e+004,-4.01973154439928e+001,-1.89985878910745e+000

6.86852349150199e+004,-4.01973885414042e+001,-1.92636240731442e+000

6.96440450636895e+004,-4.01974636834138e+001,-1.95323526820978e+000

7.06162397032520e+004,-4.01975409269139e+001,-1.98048249547114e+000

7.16020056742374e+004,-4.01976203303633e+001,-2.00810928302288e+000

7.26015324253724e+004,-4.01977019538292e+001,-2.03612089596549e+000

7.36150120499896e+004,-4.01977858590309e+001,-2.06452267151385e+000

7.46426393229441e+004,-4.01978721093840e+001,-2.09332001994750e+000

7.56846117380472e+004,-4.01979607700459e+001,-2.12251842557306e+000

7.67411295460207e+004,-4.01980519079627e+001,-2.15212344769572e+000

7.78123957929823e+004,-4.01981455919167e+001,-2.18214072160262e+000

7.88986163594682e+004,-4.01982418925759e+001,-2.21257595955943e+000

7.99999999999995e+004,-4.01983408825444e+001,-2.24343495181399e+000

8.11167583832018e+004,-4.01984426364135e+001,-2.27472356761577e+000

8.22491061324848e+004,-4.01985472308151e+001,-2.30644775624447e+000

8.33972608672892e+004,-4.01986547444758e+001,-2.33861354804979e+000

8.45614432449099e+004,-4.01987652582725e+001,-2.37122705550419e+000

8.57418770029029e+004,-4.01988788552892e+001,-2.40429447426625e+000

8.69387890020841e+004,-4.01989956208759e+001,-2.43782208425529e+000

8.81524092701283e+004,-4.01991156427079e+001,-2.47181625073951e+000

8.93829710457770e+004,-4.01992390108475e+001,-2.50628342543420e+000

9.06307108236633e+004,-4.01993658178064e+001,-2.54123014761153e+000

9.18958683997622e+004,-4.01994961586109e+001,-2.57666304522392e+000

9.31786869174758e+004,-4.01996301308669e+001,-2.61258883603776e+000

9.44794129143618e+004,-4.01997678348279e+001,-2.64901432877922e+000

9.57982963695136e+004,-4.01999093734641e+001,-2.68594642429269e+000

9.71355907516031e+004,-4.02000548525335e+001,-2.72339211671088e+000

9.84915530675926e+004,-4.02002043806539e+001,-2.76135849463618e+000

9.98664439121282e+004,-4.02003580693776e+001,-2.79985274233514e+000

1.01260527517622e+005,-4.02005160332674e+001,-2.83888214094443e+000

1.02674071805032e+005,-4.02006783899741e+001,-2.87845406968828e+000

1.04107348435354e+005,-4.02008452603166e+001,-2.91857600710911e+000

1.05560632861831e+005,-4.02010167683631e+001,-2.95925553231017e+000

1.07034204382888e+005,-4.02011930415146e+001,-3.00050032620796e+000

1.08528346195813e+005,-4.02013742105905e+001,-3.04231817280052e+000

1.10043345451179e+005,-4.02015604099154e+001,-3.08471696044411e+000

1.11579493308032e+005,-4.02017517774091e+001,-3.12770468314438e+000

1.13137084989847e+005,-4.02019484546772e+001,-3.17128944185903e+000

1.14716419841265e+005,-4.02021505871053e+001,-3.21547944581072e+000

1.16317801385624e+005,-4.02023583239539e+001,-3.26028301381509e+000

1.17941537383287e+005,-4.02025718184564e+001,-3.30570857561845e+000

1.19587939890794e+005,-4.02027912279186e+001,-3.35176467324778e+000

1.21257325320831e+005,-4.02030167138213e+001,-3.39845996237365e+000

1.22950014503040e+005,-4.02032484419240e+001,-3.44580321368351e+000

1.24666332745679e+005,-4.02034865823718e+001,-3.49380331426860e+000

1.26406609898139e+005,-4.02037313098038e+001,-3.54246926902112e+000

1.28171180414339e+005,-4.02039828034650e+001,-3.59181020204403e+000

1.29960383416997e+005,-4.02042412473192e+001,-3.64183535807195e+000

1.31774562762811e+005,-4.02045068301649e+001,-3.69255410390548e+000

1.33614067108538e+005,-4.02047797457545e+001,-3.74397592985407e+000

1.35479249978003e+005,-4.02050601929140e+001,-3.79611045119355e+000

1.37370469830040e+005,-4.02053483756670e+001,-3.84896740963383e+000

1.39288090127379e+005,-4.02056445033606e+001,-3.90255667479767e+000

1.41232479406504e+005,-4.02059487907933e+001,-3.95688824571188e+000

1.43204011348474e+005,-4.02062614583465e+001,-4.01197225230924e+000

1.45203064850745e+005,-4.02065827321176e+001,-4.06781895694207e+000

1.47230024099979e+005,-4.02069128440567e+001,-4.12443875590717e+000

1.49285278645888e+005,-4.02072520321049e+001,-4.18184218098207e+000

1.51369223476094e+005,-4.02076005403364e+001,-4.24003990097156e+000

1.53482259092041e+005,-4.02079586191022e+001,-4.29904272326665e+000

1.55624791585964e+005,-4.02083265251777e+001,-4.35886159541449e+000

1.57797232718936e+005,-4.02087045219119e+001,-4.41950760669819e+000

1.59999999999999e+005,-4.02090928793804e+001,-4.48099198972870e+000

1.62233516766403e+005,-4.02094918745403e+001,-4.54332612204856e+000

1.64498212264969e+005,-4.02099017913887e+001,-4.60652152774405e+000

1.66794521734578e+005,-4.02103229211236e+001,-4.67058987907133e+000

1.69122886489819e+005,-4.02107555623074e+001,-4.73554299809174e+000

1.71483754005805e+005,-4.02112000210345e+001,-4.80139285831822e+000

1.73877578004168e+005,-4.02116566111000e+001,-4.86815158637459e+000

1.76304818540256e+005,-4.02121256541726e+001,-4.93583146366281e+000

1.78765942091554e+005,-4.02126074799703e+001,-5.00444492804458e+000

1.81261421647326e+005,-4.02131024264387e+001,-5.07400457553195e+000

1.83791736799524e+005,-4.02136108399323e+001,-5.14452316199035e+000

1.86357373834951e+005,-4.02141330753988e+001,-5.21601360485250e+000

1.88958825828723e+005,-4.02146694965668e+001,-5.28848898484419e+000

1.91596592739027e+005,-4.02152204761357e+001,-5.36196254772149e+000

1.94271181503206e+005,-4.02157863959695e+001,-5.43644770602010e+000

1.96983106135185e+005,-4.02163676472933e+001,-5.51195804081617e+000

1.99732887824256e+005,-4.02169646308921e+001,-5.58850730349989e+000

2.02521055035243e+005,-4.02175777573144e+001,-5.66610941756147e+000

2.05348143610063e+005,-4.02182074470770e+001,-5.74477848038980e+000

2.08214696870707e+005,-4.02188541308741e+001,-5.82452876508412e+000

2.11121265723661e+005,-4.02195182497893e+001,-5.90537472227925e+000

2.14068408765776e+005,-4.02202002555105e+001,-5.98733098198444e+000

2.17056692391625e+005,-4.02209006105481e+001,-6.07041235543677e+000

2.20086690902357e+005,-4.02216197884567e+001,-6.15463383696823e+000

2.23158986616063e+005,-4.02223582740595e+001,-6.24001060588948e+000

2.26274169979693e+005,-4.02231165636766e+001,-6.32655802838810e+000

2.29432839682530e+005,-4.02238951653559e+001,-6.41429165944279e+000

2.32635602771247e+005,-4.02246945991080e+001,-6.50322724475563e+000

2.35883074766574e+005,-4.02255153971442e+001,-6.59338072270084e+000

2.39175879781588e+005,-4.02263581041182e+001,-6.68476822629173e+000

2.42514650641661e+005,-4.02272232773709e+001,-6.77740608516705e+000

2.45900029006080e+005,-4.02281114871795e+001,-6.87131082759690e+000

2.49332665491357e+005,-4.02290233170093e+001,-6.96649918250890e+000

2.52813219796278e+005,-4.02299593637705e+001,-7.06298808153559e+000

2.56342360828676e+005,-4.02309202380777e+001,-7.16079466108525e+000

2.59920766833993e+005,-4.02319065645144e+001,-7.25993626443410e+000

2.63549125525621e+005,-4.02329189819009e+001,-7.36043044384553e+000

2.67228134217075e+005,-4.02339581435665e+001,-7.46229496271131e+000

2.70958499956006e+005,-4.02350247176269e+001,-7.56554779772235e+000

2.74740939660078e+005,-4.02361193872651e+001,-7.67020714106545e+000

2.78576180254757e+005,-4.02372428510175e+001,-7.77629140264859e+000

2.82464958813007e+005,-4.02383958230654e+001,-7.88381921235705e+000

2.86408022696948e+005,-4.02395790335307e+001,-7.99280942234035e+000

2.90406129701488e+005,-4.02407932287781e+001,-8.10328110933131e+000

2.94460048199957e+005,-4.02420391717221e+001,-8.21525357699902e+000

2.98570557291775e+005,-4.02433176421402e+001,-8.32874635833649e+000

3.02738446952187e+005,-4.02446294369928e+001,-8.44377921808485e+000

3.06964518184081e+005,-4.02459753707488e+001,-8.56037215519532e+000

3.11249583171928e+005,-4.02473562757190e+001,-8.67854540532823e+000

3.15594465437872e+005,-4.02487730023965e+001,-8.79831944339432e+000

3.19999999999997e+005,-4.02502264198044e+001,-8.91971498613496e+000

3.24467033532806e+005,-4.02517174158525e+001,-9.04275299474661e+000

3.28996424529938e+005,-4.02532468977020e+001,-9.16745467754695e+000

3.33589043469155e+005,-4.02548157921393e+001,-9.29384149268640e+000

3.38245772979638e+005,-4.02564250459602e+001,-9.42193515090477e+000

3.42967508011610e+005,-4.02580756263632e+001,-9.55175761833371e+000

3.47755156008335e+005,-4.02597685213547e+001,-9.68333111934651e+000

3.52609637080511e+005,-4.02615047401652e+001,-9.81667813945491e+000

3.57531884183106e+005,-4.02632853136773e+001,-9.95182142825392e+000

3.62522843294651e+005,-4.02651112948672e+001,-1.00887840024153e+001

3.67583473599047e+005,-4.02669837592592e+001,-1.02275891487280e+001

3.72714747669902e+005,-4.02689038053948e+001,-1.03682604271879e+001

3.77917651657445e+005,-4.02708725553168e+001,-1.05108216741350e+001

3.83193185478053e+005,-4.02728911550697e+001,-1.06552970054369e+001

3.88542363006410e+005,-4.02749607752162e+001,-1.08017108197191e+001

3.93966212270369e+005,-4.02770826113721e+001,-1.09500878016406e+001

3.99465775648511e+005,-4.02792578847600e+001,-1.11004529252114e+001

4.05042110070485e+005,-4.02814878427815e+001,-1.12528314571537e+001

4.10696287220124e+005,-4.02837737596115e+001,-1.14072489603007e+001

4.16429393741414e+005,-4.02861169368127e+001,-1.15637312970326e+001

4.22242531447321e+005,-4.02885187039741e+001,-1.17223046327460e+001

4.28136817531551e+005,-4.02909804193718e+001,-1.18829954393541e+001

4.34113384783250e+005,-4.02935034706555e+001,-1.20458304988121e+001

4.40173381804713e+005,-4.02960892755606e+001,-1.22108369066643e+001

4.46317973232124e+005,-4.02987392826472e+001,-1.23780420756089e+001

4.52548339959385e+005,-4.03014549720666e+001,-1.25474737390726e+001

4.58865679365059e+005,-4.03042378563578e+001,-1.27191599547907e+001

4.65271205542494e+005,-4.03070894812735e+001,-1.28931291083874e+001

4.71766149533147e+005,-4.03100114266372e+001,-1.30694099169438e+001

4.78351759563174e+005,-4.03130053072331e+001,-1.32480314325537e+001

4.85029301283321e+005,-4.03160727737290e+001,-1.34290230458509e+001

4.91800058012158e+005,-4.03192155136334e+001,-1.36124144895053e+001

4.98665330982714e+005,-4.03224352522881e+001,-1.37982358416738e+001

5.05626439592555e+005,-4.03257337538971e+001,-1.39865175293980e+001

5.12684721657352e+005,-4.03291128225916e+001,-1.41772903319376e+001

5.19841533667984e+005,-4.03325743035342e+001,-1.43705853840277e+001

5.27098251051240e+005,-4.03361200840611e+001,-1.45664341790472e+001

5.34456268434150e+005,-4.03397520948632e+001,-1.47648685720867e+001

5.41916999912011e+005,-4.03434723112080e+001,-1.49659207829030e+001

