Freq.,VOut,OutRef

1.00000000000000e+004,-2.32540740416276e+001,-1.80845352804873e-001

1.01395947979003e+004,-2.32540747805119e+001,-1.83369826903455e-001

1.02811382665607e+004,-2.32540755401656e+001,-1.85929539949013e-001

1.04246576084112e+004,-2.32540763211727e+001,-1.88524983797874e-001

1.05701804056138e+004,-2.32540771241331e+001,-1.91156657173357e-001

1.07177346253629e+004,-2.32540779496638e+001,-1.93825065754904e-001

1.08673486252606e+004,-2.32540787983991e+001,-1.96530722280227e-001

1.10190511587661e+004,-2.32540796709912e+001,-1.99274146641546e-001

1.11728713807222e+004,-2.32540805681106e+001,-2.02055865983549e-001

1.13288388529580e+004,-2.32540814904465e+001,-2.04876414809650e-001

1.14869835499703e+004,-2.32540824387076e+001,-2.07736335079134e-001

1.16473358646846e+004,-2.32540834136223e+001,-2.10636176314473e-001

1.18099266142953e+004,-2.32540844159398e+001,-2.13576495704736e-001

1.19747870461893e+004,-2.32540854464302e+001,-2.16557858213678e-001

1.21419488439505e+004,-2.32540865058850e+001,-2.19580836689290e-001

1.23114441334492e+004,-2.32540875951183e+001,-2.22646011969432e-001

1.24833054890161e+004,-2.32540887149669e+001,-2.25753972998500e-001

1.26575659397028e+004,-2.32540898662910e+001,-2.28905316937295e-001

1.28342589756290e+004,-2.32540910499751e+001,-2.32100649277374e-001

1.30134185544193e+004,-2.32540922669284e+001,-2.35340583958923e-001

1.31950791077289e+004,-2.32540935180858e+001,-2.38625743487058e-001

1.33792755478611e+004,-2.32540948044086e+001,-2.41956759050141e-001

1.35660432744767e+004,-2.32540961268846e+001,-2.45334270646356e-001

1.37554181813974e+004,-2.32540974865298e+001,-2.48758927197673e-001

1.39474366635040e+004,-2.32540988843885e+001,-2.52231386681486e-001

1.41421356237309e+004,-2.32541003215342e+001,-2.55752316254590e-001

1.43395524801583e+004,-2.32541017990710e+001,-2.59322392378983e-001

1.45397251732031e+004,-2.32541033181336e+001,-2.62942300954318e-001

1.47426921729110e+004,-2.32541048798887e+001,-2.66612737447915e-001

1.49484924863494e+004,-2.32541064855358e+001,-2.70334407027687e-001

1.51571656651040e+004,-2.32541081363079e+001,-2.74108024698663e-001

1.53687518128801e+004,-2.32541098334729e+001,-2.77934315439451e-001

1.55832915932100e+004,-2.32541115783340e+001,-2.81814014340190e-001

1.58008262372675e+004,-2.32541133722311e+001,-2.85747866744826e-001

1.60213975517924e+004,-2.32541152165417e+001,-2.89736628393088e-001

1.62450479271247e+004,-2.32541171126823e+001,-2.93781065563168e-001

1.64718203453514e+004,-2.32541190621085e+001,-2.97881955224695e-001

1.67017583885674e+004,-2.32541210663172e+001,-3.02040085179828e-001

1.69349062472505e+004,-2.32541231268472e+001,-3.06256254219929e-001

1.71713087287550e+004,-2.32541252452805e+001,-3.10531272274605e-001

1.74110112659224e+004,-2.32541274232437e+001,-3.14865960569248e-001

1.76540599258131e+004,-2.32541296624085e+001,-3.19261151781874e-001

1.79005014185594e+004,-2.32541319644942e+001,-3.23717690201296e-001

1.81503831063432e+004,-2.32541343312678e+001,-3.28236431890001e-001

1.84037530124975e+004,-2.32541367645460e+001,-3.32818244846697e-001

1.86606598307361e+004,-2.32541392661967e+001,-3.37464009173848e-001

1.89211529345119e+004,-2.32541418381401e+001,-3.42174617244372e-001

1.91852823865052e+004,-2.32541444823499e+001,-3.46950973874497e-001

1.94530989482457e+004,-2.32541472008558e+001,-3.51793996494359e-001

1.97246540898671e+004,-2.32541499957440e+001,-3.56704615324908e-001

1.99999999999999e+004,-2.32541528691592e+001,-3.61683773556726e-001

2.02791895958005e+004,-2.32541558233065e+001,-3.66732427526267e-001

2.05622765331213e+004,-2.32541588604528e+001,-3.71851546904429e-001

2.08493152168224e+004,-2.32541619829281e+001,-3.77042114877912e-001

2.11403608112276e+004,-2.32541651931285e+001,-3.82305128337640e-001

2.14354692507258e+004,-2.32541684935167e+001,-3.87641598070079e-001

2.17346972505211e+004,-2.32541718866245e+001,-3.93052548950151e-001

2.20381023175322e+004,-2.32541753750551e+001,-3.98539020135516e-001

2.23457427614443e+004,-2.32541789614842e+001,-4.04102065268027e-001

2.26576777059159e+004,-2.32541826486627e+001,-4.09742752672244e-001

2.29739670999406e+004,-2.32541864394185e+001,-4.15462165560202e-001

2.32946717293690e+004,-2.32541903366588e+001,-4.21261402238864e-001

2.36198532285905e+004,-2.32541943433723e+001,-4.27141576317332e-001

2.39495740923785e+004,-2.32541984626315e+001,-4.33103816923041e-001

2.42838976879009e+004,-2.32542026975948e+001,-4.39149268913106e-001

2.46228882668982e+004,-2.32542070515091e+001,-4.45279093097007e-001

2.49666109780322e+004,-2.32542115277124e+001,-4.51494466453183e-001

2.53151318794055e+004,-2.32542161296362e+001,-4.57796582356333e-001

2.56685179512580e+004,-2.32542208608078e+001,-4.64186650805538e-001

2.60268371088386e+004,-2.32542257248534e+001,-4.70665898652278e-001

2.63901582154578e+004,-2.32542307255010e+001,-4.77235569834809e-001

2.67585510957221e+004,-2.32542358665826e+001,-4.83896925616688e-001

2.71320865489533e+004,-2.32542411520376e+001,-4.90651244825526e-001

2.75108363627948e+004,-2.32542465859159e+001,-4.97499824095563e-001

2.78948733270080e+004,-2.32542521723802e+001,-5.04443978117079e-001

2.82842712474618e+004,-2.32542579157102e+001,-5.11485039883384e-001

2.86791049603164e+004,-2.32542638203050e+001,-5.18624360947176e-001

2.90794503464061e+004,-2.32542698906869e+001,-5.25863311674843e-001

2.94853843458219e+004,-2.32542761315046e+001,-5.33203281509598e-001

2.98969849726987e+004,-2.32542825475370e+001,-5.40645679232127e-001

3.03143313302078e+004,-2.32542891436963e+001,-5.48191933232149e-001

3.07375036257601e+004,-2.32542959250323e+001,-5.55843491776545e-001

3.11665831864199e+004,-2.32543028967357e+001,-5.63601823285908e-001

3.16016524745350e+004,-2.32543100641427e+001,-5.71468416611681e-001

3.20427951035848e+004,-2.32543174327382e+001,-5.79444781320010e-001

3.24900958542493e+004,-2.32543250081605e+001,-5.87532447978128e-001

3.29436406907028e+004,-2.32543327962052e+001,-5.95732968443205e-001

3.34035167771346e+004,-2.32543408028302e+001,-6.04047916156634e-001

3.38698124945009e+004,-2.32543490341594e+001,-6.12478886443072e-001

3.43426174575100e+004,-2.32543574964877e+001,-6.21027496811343e-001

3.48220225318448e+004,-2.32543661962858e+001,-6.29695387261630e-001

3.53081198516260e+004,-2.32543751402050e+001,-6.38484220593756e-001

3.58010028371187e+004,-2.32543843350821e+001,-6.47395682724770e-001

3.63007662126863e+004,-2.32543937879446e+001,-6.56431483004352e-001

3.68075060249948e+004,-2.32544035060161e+001,-6.65593354538837e-001

3.73213196614721e+004,-2.32544134967216e+001,-6.74883054519609e-001

3.78423058690237e+004,-2.32544237676928e+001,-6.84302364553711e-001

3.83705647730104e+004,-2.32544343267745e+001,-6.93853090999478e-001

3.89061978964912e+004,-2.32544451820298e+001,-7.03537065308012e-001

3.94493081797342e+004,-2.32544563417466e+001,-7.13356144367308e-001

3.99999999999998e+004,-2.32544678144434e+001,-7.23312210853272e-001

4.05583791916010e+004,-2.32544796088760e+001,-7.33407173582796e-001

4.11245530662425e+004,-2.32544917340439e+001,-7.43642967873728e-001

4.16986304336447e+004,-2.32545041991969e+001,-7.54021555907967e-001

4.22807216224550e+004,-2.32545170138423e+001,-7.64544927101131e-001

4.28709385014515e+004,-2.32545301877516e+001,-7.75215098474981e-001

4.34693945010421e+004,-2.32545437309681e+001,-7.86034115036575e-001

4.40762046350642e+004,-2.32545576538142e+001,-7.97004050162200e-001

4.46914855228886e+004,-2.32545719668989e+001,-8.08127005984680e-001

4.53153554118317e+004,-2.32545866811262e+001,-8.19405113788398e-001

4.59479341998812e+004,-2.32546018077025e+001,-8.30840534407092e-001

4.65893434587380e+004,-2.32546173581456e+001,-8.42435458628122e-001

4.72397064571810e+004,-2.32546333442925e+001,-8.54192107602280e-001

4.78991481847569e+004,-2.32546497783085e+001,-8.66112733259628e-001

4.85677953758016e+004,-2.32546666726965e+001,-8.78199618726549e-001

4.92457765337964e+004,-2.32546840403057e+001,-8.90455078753692e-001

4.99332219560642e+004,-2.32547018943412e+001,-9.02881460147297e-001

5.06302637588109e+004,-2.32547202483739e+001,-9.15481142204898e-001

5.13370359025159e+004,-2.32547391163500e+001,-9.28256537157908e-001

5.20536742176771e+004,-2.32547585126020e+001,-9.41210090620206e-001

5.27803164309155e+004,-2.32547784518585e+001,-9.54344282042282e-001

5.35171021914442e+004,-2.32547989492552e+001,-9.67661625169267e-001

5.42641730979066e+004,-2.32548200203460e+001,-9.81164668510048e-001

5.50216727255895e+004,-2.32548416811144e+001,-9.94855995804707e-001

5.57897466540159e+004,-2.32548639479850e+001,-1.00873822650525e+000

5.65685424949235e+004,-2.32548868378355e+001,-1.02281401625866e+000

5.73582099206328e+004,-2.32549103680090e+001,-1.03708605739631e+000

5.81589006928121e+004,-2.32549345563264e+001,-1.05155707942975e+000

5.89707686916437e+004,-2.32549594210996e+001,-1.06622984955475e+000

5.97939699453972e+004,-2.32549849811444e+001,-1.08110717315834e+000

6.06286626604156e+004,-2.32550112557944e+001,-1.09619189433536e+000

6.14750072515201e+004,-2.32550382649145e+001,-1.11148689640882e+000

6.23331663728396e+004,-2.32550660289156e+001,-1.12699510245947e+000

6.32033049490698e+004,-2.32550945687689e+001,-1.14271947585927e+000

6.40855902071694e+004,-2.32551239060212e+001,-1.15866302081355e+000

6.49801917084985e+004,-2.32551540628100e+001,-1.17482878290943e+000

6.58872813814055e+004,-2.32551850618795e+001,-1.19121984967010e+000

6.68070335542691e+004,-2.32552169265968e+001,-1.20783935111617e+000

6.77396249890018e+004,-2.32552496809682e+001,-1.22469046033617e+000

6.86852349150199e+004,-2.32552833496565e+001,-1.24177639406016e+000

6.96440450636895e+004,-2.32553179579982e+001,-1.25910041324410e+000

7.06162397032520e+004,-2.32553535320215e+001,-1.27666582365826e+000

7.16020056742374e+004,-2.32553900984647e+001,-1.29447597648484e+000

7.26015324253724e+004,-2.32554276847946e+001,-1.31253426892195e+000

7.36150120499896e+004,-2.32554663192261e+001,-1.33084414479493e+000

7.46426393229441e+004,-2.32555060307416e+001,-1.34940909517490e+000

7.56846117380472e+004,-2.32555468491111e+001,-1.36823265900566e+000

7.67411295460207e+004,-2.32555888049135e+001,-1.38731842373586e+000

7.78123957929823e+004,-2.32556319295567e+001,-1.40667002596114e+000

7.88986163594682e+004,-2.32556762553002e+001,-1.42629115207219e+000

7.99999999999995e+004,-2.32557218152769e+001,-1.44618553891108e+000

8.11167583832018e+004,-2.32557686435156e+001,-1.46635697443497e+000

8.22491061324848e+004,-2.32558167749644e+001,-1.48680929838830e+000

8.33972608672892e+004,-2.32558662455149e+001,-1.50754640298068e+000

8.45614432449099e+004,-2.32559170920260e+001,-1.52857223357546e+000

8.57418770029029e+004,-2.32559693523490e+001,-1.54989078938445e+000

8.69387890020841e+004,-2.32560230653530e+001,-1.57150612417039e+000

8.81524092701283e+004,-2.32560782709514e+001,-1.59342234695777e+000

8.93829710457770e+004,-2.32561350101281e+001,-1.61564362275314e+000

9.06307108236633e+004,-2.32561933249648e+001,-1.63817417327032e+000

9.18958683997622e+004,-2.32562532586696e+001,-1.66101827766636e+000

9.31786869174758e+004,-2.32563148556044e+001,-1.68418027328535e+000

9.44794129143618e+004,-2.32563781613151e+001,-1.70766455640954e+000

9.57982963695136e+004,-2.32564432225608e+001,-1.73147558301820e+000

9.71355907516031e+004,-2.32565100873447e+001,-1.75561786955702e+000

9.84915530675926e+004,-2.32565788049447e+001,-1.78009599371392e+000

9.98664439121282e+004,-2.32566494259458e+001,-1.80491459520423e+000

1.01260527517622e+005,-2.32567220022721e+001,-1.83007837656300e+000

1.02674071805032e+005,-2.32567965872204e+001,-1.85559210394769e+000

1.04107348435354e+005,-2.32568732354936e+001,-1.88146060794772e+000

1.05560632861831e+005,-2.32569520032358e+001,-1.90768878440371e+000

1.07034204382888e+005,-2.32570329480674e+001,-1.93428159523376e+000

1.08528346195813e+005,-2.32571161291209e+001,-1.96124406927082e+000

1.10043345451179e+005,-2.32572016070778e+001,-1.98858130310611e+000

1.11579493308032e+005,-2.32572894442064e+001,-2.01629846194252e+000

1.13137084989847e+005,-2.32573797043996e+001,-2.04440078045696e+000

1.14716419841265e+005,-2.32574724532139e+001,-2.07289356367104e+000

1.16317801385624e+005,-2.32575677579097e+001,-2.10178218782965e+000

1.17941537383287e+005,-2.32576656874909e+001,-2.13107210129078e+000

1.19587939890794e+005,-2.32577663127468e+001,-2.16076882542171e+000

1.21257325320831e+005,-2.32578697062942e+001,-2.19087795550461e+000

1.22950014503040e+005,-2.32579759426194e+001,-2.22140516165320e+000

1.24666332745679e+005,-2.32580850981227e+001,-2.25235618973495e+000

1.26406609898139e+005,-2.32581972511621e+001,-2.28373686230484e+000

1.28171180414339e+005,-2.32583124820988e+001,-2.31555307954717e+000

1.29960383416997e+005,-2.32584308733427e+001,-2.34781082022693e+000

1.31774562762811e+005,-2.32585525093996e+001,-2.38051614264950e+000

1.33614067108538e+005,-2.32586774769177e+001,-2.41367518563025e+000

1.35479249978003e+005,-2.32588058647369e+001,-2.44729416947283e+000

1.37370469830040e+005,-2.32589377639371e+001,-2.48137939695713e+000

1.39288090127379e+005,-2.32590732678879e+001,-2.51593725433664e+000

1.41232479406504e+005,-2.32592124722997e+001,-2.55097421234365e+000

1.43204011348474e+005,-2.32593554752738e+001,-2.58649682720741e+000

1.45203064850745e+005,-2.32595023773558e+001,-2.62251174167680e+000

1.47230024099979e+005,-2.32596532815871e+001,-2.65902568605713e+000

1.49285278645888e+005,-2.32598082935589e+001,-2.69604547925408e+000

1.51369223476094e+005,-2.32599675214666e+001,-2.73357802982723e+000

1.53482259092041e+005,-2.32601310761639e+001,-2.77163033705532e+000

1.55624791585964e+005,-2.32602990712191e+001,-2.81020949200930e+000

1.57797232718936e+005,-2.32604716229711e+001,-2.84932267863626e+000

1.59999999999999e+005,-2.32606488505858e+001,-2.88897717485404e+000

1.62233516766403e+005,-2.32608308761146e+001,-2.92918035365444e+000

1.64498212264969e+005,-2.32610178245515e+001,-2.96993968421946e+000

1.66794521734578e+005,-2.32612098238928e+001,-3.01126273304433e+000

1.69122886489819e+005,-2.32614070051958e+001,-3.05315716507515e+000

1.71483754005805e+005,-2.32616095026392e+001,-3.09563074485488e+000

1.73877578004168e+005,-2.32618174535830e+001,-3.13869133768087e+000

1.76304818540256e+005,-2.32620309986300e+001,-3.18234691077468e+000

1.78765942091554e+005,-2.32622502816871e+001,-3.22660553446087e+000

1.81261421647326e+005,-2.32624754500273e+001,-3.27147538336127e+000

1.83791736799524e+005,-2.32627066543517e+001,-3.31696473759807e+000

1.86357373834951e+005,-2.32629440488529e+001,-3.36308198401049e+000

1.88958825828723e+005,-2.32631877912779e+001,-3.40983561738313e+000

1.91596592739027e+005,-2.32634380429912e+001,-3.45723424168961e+000

1.94271181503206e+005,-2.32636949690394e+001,-3.50528657134632e+000

1.96983106135185e+005,-2.32639587382150e+001,-3.55400143248196e+000

1.99732887824256e+005,-2.32642295231206e+001,-3.60338776422043e+000

2.02521055035243e+005,-2.32645075002339e+001,-3.65345461997862e+000

2.05348143610063e+005,-2.32647928499721e+001,-3.70421116877836e+000

2.08214696870707e+005,-2.32650857567573e+001,-3.75566669657533e+000

2.11121265723661e+005,-2.32653864090813e+001,-3.80783060760185e+000

2.14068408765776e+005,-2.32656949995713e+001,-3.86071242572897e+000

2.17056692391625e+005,-2.32660117250545e+001,-3.91432179584336e+000

2.20086690902357e+005,-2.32663367866238e+001,-3.96866848524431e+000

2.23158986616063e+005,-2.32666703897036e+001,-4.02376238505728e+000

2.26274169979693e+005,-2.32670127441142e+001,-4.07961351166787e+000

2.29432839682530e+005,-2.32673640641382e+001,-4.13623200817643e+000

2.32635602771247e+005,-2.32677245685849e+001,-4.19362814587276e+000

2.35883074766574e+005,-2.32680944808560e+001,-4.25181232573288e+000

2.39175879781588e+005,-2.32684740290109e+001,-4.31079507993880e+000

2.42514650641661e+005,-2.32688634458312e+001,-4.37058707342198e+000

2.45900029006080e+005,-2.32692629688863e+001,-4.43119910543146e+000

2.49332665491357e+005,-2.32696728405980e+001,-4.49264211112805e+000

2.52813219796278e+005,-2.32700933083052e+001,-4.55492716320607e+000

2.56342360828676e+005,-2.32705246243293e+001,-4.61806547354153e+000

2.59920766833993e+005,-2.32709670460380e+001,-4.68206839487165e+000

2.63549125525621e+005,-2.32714208359111e+001,-4.74694742250467e+000

2.67228134217075e+005,-2.32718862616043e+001,-4.81271419606039e+000

2.70958499956006e+005,-2.32723635960147e+001,-4.87938050124633e+000

2.74740939660078e+005,-2.32728531173457e+001,-4.94695827166689e+000

2.78576180254757e+005,-2.32733551091717e+001,-5.01545959067011e+000

2.82464958813007e+005,-2.32738698605044e+001,-5.08489669323146e+000

2.86408022696948e+005,-2.32743976658580e+001,-5.15528196787832e+000

2.90406129701488e+005,-2.32749388253160e+001,-5.22662795865406e+000

2.94460048199957e+005,-2.32754936445980e+001,-5.29894736712670e+000

2.98570557291775e+005,-2.32760624351274e+001,-5.37225305444059e+000

3.02738446952187e+005,-2.32766455141003e+001,-5.44655804341504e+000

3.06964518184081e+005,-2.32772432045551e+001,-5.52187552069096e+000

3.11249583171928e+005,-2.32778558354436e+001,-5.59821883892772e+000

3.15594465437872e+005,-2.32784837417034e+001,-5.67560151905092e+000

3.19999999999997e+005,-2.32791272643324e+001,-5.75403725255357e+000

3.24467033532806e+005,-2.32797867504648e+001,-5.83353990385390e+000

3.28996424529938e+005,-2.32804625534496e+001,-5.91412351270878e+000

3.33589043469155e+005,-2.32811550329318e+001,-5.99580229668718e+000

3.38245772979638e+005,-2.32818645549360e+001,-6.07859065370338e+000

3.42967508011610e+005,-2.32825914919540e+001,-6.16250316461397e+000

3.47755156008335e+005,-2.32833362230348e+001,-6.24755459587825e+000

3.52609637080511e+005,-2.32840991338798e+001,-6.33375990228505e+000

3.57531884183106e+005,-2.32848806169419e+001,-6.42113422974643e+000

3.62522843294651e+005,-2.32856810715289e+001,-6.50969291816211e+000

3.67583473599047e+005,-2.32865009039135e+001,-6.59945150435248e+000

3.72714747669902e+005,-2.32873405274477e+001,-6.69042572506566e+000

3.77917651657445e+005,-2.32882003626847e+001,-6.78263152005657e+000

3.83193185478053e+005,-2.32890808375072e+001,-6.87608503524095e+000

3.88542363006410e+005,-2.32899823872633e+001,-6.97080262592457e+000

3.93966212270369e+005,-2.32909054549103e+001,-7.06680086010926e+000

3.99465775648511e+005,-2.32918504911678e+001,-7.16409652187566e+000

4.05042110070485e+005,-2.32928179546794e+001,-7.26270661484310e+000

4.10696287220124e+005,-2.32938083121856e+001,-7.36264836570838e+000

4.16429393741414e+005,-2.32948220387064e+001,-7.46393922786127e+000

4.22242531447321e+005,-2.32958596177359e+001,-7.56659688507814e+000

4.28136817531551e+005,-2.32969215414498e+001,-7.67063925529410e+000

4.34113384783250e+005,-2.32980083109247e+001,-7.77608449445006e+000

4.40173381804713e+005,-2.32991204363722e+001,-7.88295100041670e+000

4.46317973232124e+005,-2.33002584373878e+001,-7.99125741699322e+000

4.52548339959385e+005,-2.33014228432140e+001,-8.10102263797854e+000

4.58865679365059e+005,-2.33026141930214e+001,-8.21226581131434e+000

4.65271205542494e+005,-2.33038330362056e+001,-8.32500634329695e+000

4.71766149533147e+005,-2.33050799327025e+001,-8.43926390285589e+000

4.78351759563174e+005,-2.33063554533229e+001,-8.55505842589625e+000

4.85029301283321e+005,-2.33076601801055e+001,-8.67241011970213e+000

4.91800058012158e+005,-2.33089947066918e+001,-8.79133946739660e+000

4.98665330982714e+005,-2.33103596387213e+001,-8.91186723245480e+000

5.05626439592555e+005,-2.33117555942486e+001,-9.03401446326691e+000

5.12684721657352e+005,-2.33131832041847e+001,-9.15780249774404e+000

5.19841533667984e+005,-2.33146431127601e+001,-9.28325296796444e+000

5.27098251051240e+005,-2.33161359780139e+001,-9.41038780485325e+000

5.34456268434150e+005,-2.33176624723070e+001,-9.53922924289012e+000

5.41916999912011e+005,-2.33192232828610e+001,-9.66979982483959e+000

