Freq.,VOut,OutRef

1.00000000000000e+004,-1.69287822066651e+001,-7.88059536804942e-002

1.01395947979003e+004,-1.69287827970691e+001,-7.99059966661734e-002

1.02811382665607e+004,-1.69287834040664e+001,-8.10213936789094e-002

1.04246576084112e+004,-1.69287840281233e+001,-8.21523589663233e-002

1.05701804056138e+004,-1.69287846697189e+001,-8.32991097680433e-002

1.07177346253629e+004,-1.69287853293461e+001,-8.44618663469559e-002

1.08673486252606e+004,-1.69287860075115e+001,-8.56408520391307e-002

1.10190511587661e+004,-1.69287867047357e+001,-8.68362932962268e-002

1.11728713807222e+004,-1.69287874215546e+001,-8.80484197216856e-002

1.13288388529580e+004,-1.69287881585181e+001,-8.92774641256126e-002

1.14869835499703e+004,-1.69287889161924e+001,-9.05236625594852e-002

1.16473358646846e+004,-1.69287896951595e+001,-9.17872543651005e-002

1.18099266142953e+004,-1.69287904960170e+001,-9.30684822238369e-002

1.19747870461893e+004,-1.69287913193803e+001,-9.43675921948414e-002

1.21419488439505e+004,-1.69287921658811e+001,-9.56848337714431e-002

1.23114441334492e+004,-1.69287930361698e+001,-9.70204599189731e-002

1.24833054890161e+004,-1.69287939309144e+001,-9.83747271310655e-002

1.26575659397028e+004,-1.69287948508018e+001,-9.97478954757046e-002

1.28342589756290e+004,-1.69287957965380e+001,-1.01140228645205e-001

1.30134185544193e+004,-1.69287967688493e+001,-1.02551994004160e-001

1.31950791077289e+004,-1.69287977684816e+001,-1.03983462645957e-001

1.33792755478611e+004,-1.69287987962027e+001,-1.05434909435142e-001

1.35660432744767e+004,-1.69287998528012e+001,-1.06906613071619e-001

1.37554181813974e+004,-1.69288009390880e+001,-1.08398856135734e-001

1.39474366635040e+004,-1.69288020558969e+001,-1.09911925142327e-001

1.41421356237309e+004,-1.69288032040850e+001,-1.11446110600234e-001

1.43395524801583e+004,-1.69288043845335e+001,-1.13001707060962e-001

1.45397251732031e+004,-1.69288055981479e+001,-1.14579013184405e-001

1.47426921729110e+004,-1.69288068458598e+001,-1.16178331782868e-001

1.49484924863494e+004,-1.69288081286265e+001,-1.17799969889597e-001

1.51571656651040e+004,-1.69288094474322e+001,-1.19444238813015e-001

1.53687518128801e+004,-1.69288108032884e+001,-1.21111454196728e-001

1.55832915932100e+004,-1.69288121972357e+001,-1.22801936075382e-001

1.58008262372675e+004,-1.69288136303430e+001,-1.24516008943874e-001

1.60213975517924e+004,-1.69288151037100e+001,-1.26254001810502e-001

1.62450479271247e+004,-1.69288166184666e+001,-1.28016248266007e-001

1.64718203453514e+004,-1.69288181757744e+001,-1.29803086543878e-001

1.67017583885674e+004,-1.69288197768282e+001,-1.31614859581904e-001

1.69349062472505e+004,-1.69288214228553e+001,-1.33451915095874e-001

1.71713087287550e+004,-1.69288231151182e+001,-1.35314605635098e-001

1.74110112659224e+004,-1.69288248549145e+001,-1.37203288655267e-001

1.76540599258131e+004,-1.69288266435778e+001,-1.39118326588241e-001

1.79005014185594e+004,-1.69288284824795e+001,-1.41060086904976e-001

1.81503831063432e+004,-1.69288303730294e+001,-1.43028942187447e-001

1.84037530124975e+004,-1.69288323166765e+001,-1.45025270202351e-001

1.86606598307361e+004,-1.69288343149108e+001,-1.47049453966762e-001

1.89211529345119e+004,-1.69288363692633e+001,-1.49101881827146e-001

1.91852823865052e+004,-1.69288384813088e+001,-1.51182947526485e-001

1.94530989482457e+004,-1.69288406526654e+001,-1.53293050285071e-001

1.97246540898671e+004,-1.69288428849967e+001,-1.55432594870292e-001

1.99999999999999e+004,-1.69288451800133e+001,-1.57601991675325e-001

2.02791895958005e+004,-1.69288475394727e+001,-1.59801656800642e-001

2.05622765331213e+004,-1.69288499651827e+001,-1.62032012123569e-001

2.08493152168224e+004,-1.69288524590009e+001,-1.64293485386453e-001

2.11403608112276e+004,-1.69288550228370e+001,-1.66586510273075e-001

2.14354692507258e+004,-1.69288576586544e+001,-1.68911526491864e-001

2.17346972505211e+004,-1.69288603684710e+001,-1.71268979857717e-001

2.20381023175322e+004,-1.69288631543614e+001,-1.73659322375087e-001

2.23457427614443e+004,-1.69288660184579e+001,-1.76083012327525e-001

2.26576777059159e+004,-1.69288689629530e+001,-1.78540514356400e-001

2.29739670999406e+004,-1.69288719900996e+001,-1.81032299557184e-001

2.32946717293690e+004,-1.69288751022142e+001,-1.83558845558456e-001

2.36198532285905e+004,-1.69288783016779e+001,-1.86120636619743e-001

2.39495740923785e+004,-1.69288815909379e+001,-1.88718163718214e-001

2.42838976879009e+004,-1.69288849725101e+001,-1.91351924640447e-001

2.46228882668982e+004,-1.69288884489807e+001,-1.94022424076949e-001

2.49666109780322e+004,-1.69288920230080e+001,-1.96730173716007e-001

2.53151318794055e+004,-1.69288956973240e+001,-1.99475692341920e-001

2.56685179512580e+004,-1.69288994747380e+001,-2.02259505925393e-001

2.60268371088386e+004,-1.69289033581364e+001,-2.05082147730701e-001

2.63901582154578e+004,-1.69289073504870e+001,-2.07944158407558e-001

2.67585510957221e+004,-1.69289114548401e+001,-2.10846086095085e-001

2.71320865489533e+004,-1.69289156743308e+001,-2.13788486524777e-001

2.75108363627948e+004,-1.69289200121819e+001,-2.16771923122545e-001

2.78948733270080e+004,-1.69289244717058e+001,-2.19796967113348e-001

2.82842712474618e+004,-1.69289290563072e+001,-2.22864197628596e-001

2.86791049603164e+004,-1.69289337694857e+001,-2.25974201810816e-001

2.90794503464061e+004,-1.69289386148380e+001,-2.29127574928096e-001

2.94853843458219e+004,-1.69289435960615e+001,-2.32324920475921e-001

2.98969849726987e+004,-1.69289487169558e+001,-2.35566850297756e-001

3.03143313302078e+004,-1.69289539814266e+001,-2.38853984692612e-001

3.07375036257601e+004,-1.69289593934882e+001,-2.42186952529117e-001

3.11665831864199e+004,-1.69289649572665e+001,-2.45566391365635e-001

3.16016524745350e+004,-1.69289706770017e+001,-2.48992947564784e-001

3.20427951035848e+004,-1.69289765570522e+001,-2.52467276412717e-001

3.24900958542493e+004,-1.69289826018974e+001,-2.55990042239186e-001

3.29436406907028e+004,-1.69289888161407e+001,-2.59561918541014e-001

3.34035167771346e+004,-1.69289952045138e+001,-2.63183588103582e-001

3.38698124945009e+004,-1.69290017718792e+001,-2.66855743126544e-001

3.43426174575100e+004,-1.69290085232345e+001,-2.70579085351976e-001

3.48220225318448e+004,-1.69290154637157e+001,-2.74354326189700e-001

3.53081198516260e+004,-1.69290225986012e+001,-2.78182186848032e-001

3.58010028371187e+004,-1.69290299333154e+001,-2.82063398466493e-001

3.63007662126863e+004,-1.69290374734334e+001,-2.85998702245330e-001

3.68075060249948e+004,-1.69290452246837e+001,-2.89988849584994e-001

3.73213196614721e+004,-1.69290531929543e+001,-2.94034602214797e-001

3.78423058690237e+004,-1.69290613842953e+001,-2.98136732339624e-001

3.83705647730104e+004,-1.69290698049241e+001,-3.02296022771876e-001

3.89061978964912e+004,-1.69290784612300e+001,-3.06513267075647e-001

3.94493081797342e+004,-1.69290873597787e+001,-3.10789269710191e-001

3.99999999999998e+004,-1.69290965073168e+001,-3.15124846172572e-001

4.05583791916010e+004,-1.69291059107774e+001,-3.19520823144245e-001

4.11245530662425e+004,-1.69291155772843e+001,-3.23978038638755e-001

4.16986304336447e+004,-1.69291255141578e+001,-3.28497342153082e-001

4.22807216224550e+004,-1.69291357289197e+001,-3.33079594815314e-001

4.28709385014515e+004,-1.69291462292987e+001,-3.37725669541195e-001

4.34693945010421e+004,-1.69291570232361e+001,-3.42436451186575e-001

4.40762046350642e+004,-1.69291681188914e+001,-3.47212836704346e-001

4.46914855228886e+004,-1.69291795246485e+001,-3.52055735303446e-001

4.53153554118317e+004,-1.69291912491209e+001,-3.56966068608845e-001

4.59479341998812e+004,-1.69292033011586e+001,-3.61944770822415e-001

4.65893434587380e+004,-1.69292156898543e+001,-3.66992788886977e-001

4.72397064571810e+004,-1.69292284245495e+001,-3.72111082651804e-001

4.78991481847569e+004,-1.69292415148417e+001,-3.77300625039246e-001

4.85677953758016e+004,-1.69292549705902e+001,-3.82562402216439e-001

4.92457765337964e+004,-1.69292688019246e+001,-3.87897413760942e-001

4.99332219560642e+004,-1.69292830192504e+001,-3.93306672837714e-001

5.06302637588109e+004,-1.69292976332572e+001,-3.98791206372202e-001

5.13370359025159e+004,-1.69293126549260e+001,-4.04352055226435e-001

5.20536742176771e+004,-1.69293280955367e+001,-4.09990274377252e-001

5.27803164309155e+004,-1.69293439666763e+001,-4.15706933095008e-001

5.35171021914442e+004,-1.69293602802466e+001,-4.21503115126971e-001

5.42641730979066e+004,-1.69293770484727e+001,-4.27379918881032e-001

5.50216727255895e+004,-1.69293942839113e+001,-4.33338457608143e-001

5.57897466540159e+004,-1.69294119994595e+001,-4.39379859592899e-001

5.65685424949235e+004,-1.69294302083634e+001,-4.45505268339604e-001

5.73582099206328e+004,-1.69294489242275e+001,-4.51715842765811e-001

5.81589006928121e+004,-1.69294681610236e+001,-4.58012757392106e-001

5.89707686916437e+004,-1.69294879331009e+001,-4.64397202536987e-001

5.97939699453972e+004,-1.69295082551946e+001,-4.70870384515182e-001

6.06286626604156e+004,-1.69295291424372e+001,-4.77433525832362e-001

6.14750072515201e+004,-1.69295506103678e+001,-4.84087865385833e-001

6.23331663728396e+004,-1.69295726749426e+001,-4.90834658666873e-001

6.32033049490698e+004,-1.69295953525458e+001,-4.97675177960944e-001

6.40855902071694e+004,-1.69296186600000e+001,-5.04610712556423e-001

6.49801917084985e+004,-1.69296426145781e+001,-5.11642568947337e-001

6.58872813814055e+004,-1.69296672340138e+001,-5.18772071042268e-001

6.68070335542691e+004,-1.69296925365138e+001,-5.26000560374654e-001

6.77396249890018e+004,-1.69297185407693e+001,-5.33329396314702e-001

6.86852349150199e+004,-1.69297452659681e+001,-5.40759956280318e-001

6.96440450636895e+004,-1.69297727318076e+001,-5.48293635951805e-001

7.06162397032520e+004,-1.69298009585065e+001,-5.55931849488921e-001

7.16020056742374e+004,-1.69298299668184e+001,-5.63676029747491e-001

7.26015324253724e+004,-1.69298597780444e+001,-5.71527628498995e-001

7.36150120499896e+004,-1.69298904140469e+001,-5.79488116649540e-001

7.46426393229441e+004,-1.69299218972636e+001,-5.87558984461394e-001

7.56846117380472e+004,-1.69299542507207e+001,-5.95741741777482e-001

7.67411295460207e+004,-1.69299874980475e+001,-6.04037918244344e-001

7.78123957929823e+004,-1.69300216634909e+001,-6.12449063539117e-001

7.88986163594682e+004,-1.69300567719303e+001,-6.20976747594033e-001

7.99999999999995e+004,-1.69300928488928e+001,-6.29622560825123e-001

8.11167583832018e+004,-1.69301299205678e+001,-6.38388114362436e-001

8.22491061324848e+004,-1.69301680138236e+001,-6.47275040278666e-001

8.33972608672892e+004,-1.69302071562223e+001,-6.56284991820173e-001

8.45614432449099e+004,-1.69302473760371e+001,-6.65419643638761e-001

8.57418770029029e+004,-1.69302887022675e+001,-6.74680692026305e-001

8.69387890020841e+004,-1.69303311646572e+001,-6.84069855144224e-001

8.81524092701283e+004,-1.69303747937099e+001,-6.93588873262050e-001

8.93829710457770e+004,-1.69304196207078e+001,-7.03239508989162e-001

9.06307108236633e+004,-1.69304656777281e+001,-7.13023547511627e-001

9.18958683997622e+004,-1.69305129976609e+001,-7.22942796828777e-001

9.31786869174758e+004,-1.69305616142282e+001,-7.32999087986565e-001

9.44794129143618e+004,-1.69306115620009e+001,-7.43194275317444e-001

9.57982963695136e+004,-1.69306628764179e+001,-7.53530236675768e-001

9.71355907516031e+004,-1.69307155938052e+001,-7.64008873673576e-001

9.84915530675926e+004,-1.69307697513942e+001,-7.74632111920397e-001

9.98664439121282e+004,-1.69308253873414e+001,-7.85401901257030e-001

1.01260527517622e+005,-1.69308825407477e+001,-7.96320215994510e-001

1.02674071805032e+005,-1.69309412516780e+001,-8.07389055150060e-001

1.04107348435354e+005,-1.69310015611808e+001,-8.18610442683061e-001

1.05560632861831e+005,-1.69310635113087e+001,-8.29986427729810e-001

1.07034204382888e+005,-1.69311271451382e+001,-8.41519084840329e-001

1.08528346195813e+005,-1.69311925067900e+001,-8.53210514211808e-001

1.10043345451179e+005,-1.69312596414495e+001,-8.65062841922123e-001

1.11579493308032e+005,-1.69313285953876e+001,-8.77078220161490e-001

1.13137084989847e+005,-1.69313994159807e+001,-8.89258827467075e-001

1.14716419841265e+005,-1.69314721517321e+001,-9.01606868949725e-001

1.16317801385624e+005,-1.69315468522926e+001,-9.14124576524806e-001

1.17941537383287e+005,-1.69316235684812e+001,-9.26814209139735e-001

1.19587939890794e+005,-1.69317023523056e+001,-9.39678053000738e-001

1.21257325320831e+005,-1.69317832569837e+001,-9.52718421796236e-001

1.22950014503040e+005,-1.69318663369637e+001,-9.65937656918860e-001

1.24666332745679e+005,-1.69319516479453e+001,-9.79338127688015e-001

1.26406609898139e+005,-1.69320392468996e+001,-9.92922231567146e-001

1.28171180414339e+005,-1.69321291920900e+001,-1.00669239438043e+000

1.29960383416997e+005,-1.69322215430923e+001,-1.02065107052734e+000

1.31774562762811e+005,-1.69323163608144e+001,-1.03480074319354e+000

1.33614067108538e+005,-1.69324137075164e+001,-1.04914392456081e+000

1.35479249978003e+005,-1.69325136468293e+001,-1.06368315601359e+000

1.37370469830040e+005,-1.69326162437751e+001,-1.07842100834164e+000

1.39288090127379e+005,-1.69327215647844e+001,-1.09336008194198e+000

1.41232479406504e+005,-1.69328296777150e+001,-1.10850300701631e+000

1.43204011348474e+005,-1.69329406518695e+001,-1.12385244376573e+000

1.45203064850745e+005,-1.69330545580121e+001,-1.13941108258267e+000

1.47230024099979e+005,-1.69331714683856e+001,-1.15518164423870e+000

1.49285278645888e+005,-1.69332914567264e+001,-1.17116688006986e+000

1.51369223476094e+005,-1.69334145982800e+001,-1.18736957215752e+000

1.53482259092041e+005,-1.69335409698145e+001,-1.20379253350893e+000

1.55624791585964e+005,-1.69336706496344e+001,-1.22043860822879e+000

1.57797232718936e+005,-1.69338037175926e+001,-1.23731067169267e+000

1.59999999999999e+005,-1.69339402551012e+001,-1.25441163071338e+000

1.62233516766403e+005,-1.69340803451420e+001,-1.27174442370683e+000

1.64498212264969e+005,-1.69342240722746e+001,-1.28931202085090e+000

1.66794521734578e+005,-1.69343715226444e+001,-1.30711742424423e+000

1.69122886489819e+005,-1.69345227839885e+001,-1.32516366805850e+000

1.71483754005805e+005,-1.69346779456395e+001,-1.34345381869159e+000

1.73877578004168e+005,-1.69348370985289e+001,-1.36199097491330e+000

1.76304818540256e+005,-1.69350003351884e+001,-1.38077826800962e+000

1.78765942091554e+005,-1.69351677497483e+001,-1.39981886192585e+000

1.81261421647326e+005,-1.69353394379357e+001,-1.41911595340539e+000

1.83791736799524e+005,-1.69355154970690e+001,-1.43867277212555e+000

1.86357373834951e+005,-1.69356960260514e+001,-1.45849258083327e+000

1.88958825828723e+005,-1.69358811253614e+001,-1.47857867547685e+000

1.91596592739027e+005,-1.69360708970412e+001,-1.49893438533873e+000

1.94271181503206e+005,-1.69362654446825e+001,-1.51956307316509e+000

1.96983106135185e+005,-1.69364648734090e+001,-1.54046813529546e+000

1.99732887824256e+005,-1.69366692898576e+001,-1.56165300179260e+000

2.02521055035243e+005,-1.69368788021546e+001,-1.58312113657359e+000

2.05348143610063e+005,-1.69370935198905e+001,-1.60487603753907e+000

2.08214696870707e+005,-1.69373135540908e+001,-1.62692123670798e+000

2.11121265723661e+005,-1.69375390171829e+001,-1.64926030035299e+000

2.14068408765776e+005,-1.69377700229610e+001,-1.67189682913732e+000

2.17056692391625e+005,-1.69380066865459e+001,-1.69483445825880e+000

2.20086690902357e+005,-1.69382491243413e+001,-1.71807685759774e+000

2.23158986616063e+005,-1.69384974539867e+001,-1.74162773186886e+000

2.26274169979693e+005,-1.69387517943056e+001,-1.76549082078405e+000

2.29432839682530e+005,-1.69390122652497e+001,-1.78966989921922e+000

2.32635602771247e+005,-1.69392789878384e+001,-1.81416877739368e+000

2.35883074766574e+005,-1.69395520840945e+001,-1.83899130105823e+000

2.39175879781588e+005,-1.69398316769743e+001,-1.86414135169614e+000

2.42514650641661e+005,-1.69401178902937e+001,-1.88962284673794e+000

2.45900029006080e+005,-1.69404108486486e+001,-1.91543973979011e+000

2.49332665491357e+005,-1.69407106773309e+001,-1.94159602088191e+000

2.52813219796278e+005,-1.69410175022393e+001,-1.96809571672947e+000

2.56342360828676e+005,-1.69413314497841e+001,-1.99494289102083e+000

2.59920766833993e+005,-1.69416526467874e+001,-2.02214164472374e+000

2.63549125525621e+005,-1.69419812203775e+001,-2.04969611641667e+000

2.67228134217075e+005,-1.69423172978778e+001,-2.07761048264545e+000

2.70958499956006e+005,-1.69426610066901e+001,-2.10588895831150e+000

2.74740939660078e+005,-1.69430124741720e+001,-2.13453579708749e+000

2.78576180254757e+005,-1.69433718275091e+001,-2.16355529186943e+000

2.82464958813007e+005,-1.69437391935805e+001,-2.19295177526133e+000

2.86408022696948e+005,-1.69441146988198e+001,-2.22272962010038e+000

2.90406129701488e+005,-1.69444984690693e+001,-2.25289324002396e+000

2.94460048199957e+005,-1.69448906294288e+001,-2.28344709007669e+000

2.98570557291775e+005,-1.69452913040990e+001,-2.31439566736885e+000

3.02738446952187e+005,-1.69457006162187e+001,-2.34574351178023e+000

3.06964518184081e+005,-1.69461186876972e+001,-2.37749520671926e+000

3.11249583171928e+005,-1.69465456390405e+001,-2.40965537993654e+000

3.15594465437872e+005,-1.69469815891730e+001,-2.44222870439646e+000

3.19999999999997e+005,-1.69474266552533e+001,-2.47521989921142e+000

3.24467033532806e+005,-1.69478809524860e+001,-2.50863373064127e+000

3.28996424529938e+005,-1.69483445939280e+001,-2.54247501315963e+000

3.33589043469155e+005,-1.69488176902908e+001,-2.57674861059234e+000

3.38245772979638e+005,-1.69493003497390e+001,-2.61145943733014e+000

3.42967508011610e+005,-1.69497926776843e+001,-2.64661245961973e+000

3.47755156008335e+005,-1.69502947765764e+001,-2.68221269693490e+000

3.52609637080511e+005,-1.69508067456910e+001,-2.71826522343165e+000

3.57531884183106e+005,-1.69513286809154e+001,-2.75477516949189e+000

3.62522843294651e+005,-1.69518606745312e+001,-2.79174772335511e+000

3.67583473599047e+005,-1.69524028149963e+001,-2.82918813284426e+000

3.72714747669902e+005,-1.69529551867251e+001,-2.86710170718834e+000

3.77917651657445e+005,-1.69535178698686e+001,-2.90549381894223e+000

3.83193185478053e+005,-1.69540909400951e+001,-2.94436990600661e+000

3.88542363006410e+005,-1.69546744683700e+001,-2.98373547375517e+000

3.93966212270369e+005,-1.69552685207395e+001,-3.02359609726320e+000

3.99465775648511e+005,-1.69558731581145e+001,-3.06395742364576e+000

4.05042110070485e+005,-1.69564884360584e+001,-3.10482517450534e+000

4.10696287220124e+005,-1.69571144045787e+001,-3.14620514848984e+000

4.16429393741414e+005,-1.69577511079228e+001,-3.18810322396236e+000

4.22242531447321e+005,-1.69583985843798e+001,-3.23052536178456e+000

4.28136817531551e+005,-1.69590568660881e+001,-3.27347760821221e+000

4.34113384783250e+005,-1.69597259788506e+001,-3.31696609790621e+000

4.40173381804713e+005,-1.69604059419580e+001,-3.36099705705591e+000

4.46317973232124e+005,-1.69610967680212e+001,-3.40557680661584e+000

4.52548339959385e+005,-1.69617984628141e+001,-3.45071176565523e+000

4.58865679365059e+005,-1.69625110251267e+001,-3.49640845481761e+000

4.65271205542494e+005,-1.69632344466315e+001,-3.54267349989010e+000

4.71766149533147e+005,-1.69639687117613e+001,-3.58951363547985e+000

4.78351759563174e+005,-1.69647137976027e+001,-3.63693570879459e+000

4.85029301283321e+005,-1.69654696738036e+001,-3.68494668352393e+000

4.91800058012158e+005,-1.69662363024965e+001,-3.73355364382082e+000

4.98665330982714e+005,-1.69670136382394e+001,-3.78276379837379e+000

5.05626439592555e+005,-1.69678016279738e+001,-3.83258448456992e+000

5.12684721657352e+005,-1.69686002110022e+001,-3.88302317274297e+000

5.19841533667984e+005,-1.69694093189840e+001,-3.93408747049901e+000

5.27098251051240e+005,-1.69702288759525e+001,-3.98578512711586e+000

5.34456268434150e+005,-1.69710587983533e+001,-4.03812403800976e+000

5.41916999912011e+005,-1.69718989951032e+001,-4.09111224926162e+000

