Freq.,VOut,OutRef

1.00000000000000e+004,-1.88391315034933e+001,-1.43703363452986e-001

1.01395947979003e+004,-1.88391322752964e+001,-1.45709335382357e-001

1.02811382665607e+004,-1.88391330687922e+001,-1.47743307416370e-001

1.04246576084112e+004,-1.88391338845902e+001,-1.49805670329038e-001

1.05701804056138e+004,-1.88391347233172e+001,-1.51896820342115e-001

1.07177346253629e+004,-1.88391355856171e+001,-1.54017159209242e-001

1.08673486252606e+004,-1.88391364721527e+001,-1.56167094281969e-001

1.10190511587661e+004,-1.88391373836045e+001,-1.58347038598578e-001

1.11728713807222e+004,-1.88391383206727e+001,-1.60557410956998e-001

1.13288388529580e+004,-1.88391392840774e+001,-1.62798635993325e-001

1.14869835499703e+004,-1.88391402745581e+001,-1.65071144270927e-001

1.16473358646846e+004,-1.88391412928755e+001,-1.67375372356189e-001

1.18099266142953e+004,-1.88391423398119e+001,-1.69711762903565e-001

1.19747870461893e+004,-1.88391434161712e+001,-1.72080764742363e-001

1.21419488439505e+004,-1.88391445227801e+001,-1.74482832958723e-001

1.23114441334492e+004,-1.88391456604882e+001,-1.76918428989182e-001

1.24833054890161e+004,-1.88391468301694e+001,-1.79388020701009e-001

1.26575659397028e+004,-1.88391480327218e+001,-1.81892082488221e-001

1.28342589756290e+004,-1.88391492690685e+001,-1.84431095360952e-001

1.30134185544193e+004,-1.88391505401593e+001,-1.87005547032795e-001

1.31950791077289e+004,-1.88391518469697e+001,-1.89615932021170e-001

1.33792755478611e+004,-1.88391531905034e+001,-1.92262751736968e-001

1.35660432744767e+004,-1.88391545717918e+001,-1.94946514582537e-001

1.37554181813974e+004,-1.88391559918952e+001,-1.97667736049106e-001

1.39474366635040e+004,-1.88391574519038e+001,-2.00426938814559e-001

1.41421356237309e+004,-1.88391589529386e+001,-2.03224652841339e-001

1.43395524801583e+004,-1.88391604961518e+001,-2.06061415482139e-001

1.45397251732031e+004,-1.88391620827277e+001,-2.08937771581524e-001

1.47426921729110e+004,-1.88391637138844e+001,-2.11854273574925e-001

1.49484924863494e+004,-1.88391653908738e+001,-2.14811481602645e-001

1.51571656651040e+004,-1.88391671149828e+001,-2.17809963609954e-001

1.53687518128801e+004,-1.88391688875350e+001,-2.20850295456694e-001

1.55832915932100e+004,-1.88391707098901e+001,-2.23933061034308e-001

1.58008262372675e+004,-1.88391725834471e+001,-2.27058852364696e-001

1.60213975517924e+004,-1.88391745096434e+001,-2.30228269724688e-001

1.62450479271247e+004,-1.88391764899571e+001,-2.33441921755028e-001

1.64718203453514e+004,-1.88391785259075e+001,-2.36700425577003e-001

1.67017583885674e+004,-1.88391806190567e+001,-2.40004406912596e-001

1.69349062472505e+004,-1.88391827710106e+001,-2.43354500199006e-001

1.71713087287550e+004,-1.88391849834198e+001,-2.46751348716644e-001

1.74110112659224e+004,-1.88391872579816e+001,-2.50195604705540e-001

1.76540599258131e+004,-1.88391895964408e+001,-2.53687929491574e-001

1.79005014185594e+004,-1.88391920005908e+001,-2.57228993615044e-001

1.81503831063432e+004,-1.88391944722754e+001,-2.60819476955496e-001

1.84037530124975e+004,-1.88391970133903e+001,-2.64460068861764e-001

1.86606598307361e+004,-1.88391996258840e+001,-2.68151468284093e-001

1.89211529345119e+004,-1.88392023117597e+001,-2.71894383907202e-001

1.91852823865052e+004,-1.88392050730768e+001,-2.75689534284175e-001

1.94530989482457e+004,-1.88392079119524e+001,-2.79537647974307e-001

1.97246540898671e+004,-1.88392108305627e+001,-2.83439463681025e-001

1.99999999999999e+004,-1.88392138311450e+001,-2.87395730393454e-001

2.02791895958005e+004,-1.88392169159992e+001,-2.91407207526814e-001

2.05622765331213e+004,-1.88392200874897e+001,-2.95474665069980e-001

2.08493152168224e+004,-1.88392233480468e+001,-2.99598883728035e-001

2.11403608112276e+004,-1.88392267001692e+001,-3.03780655073446e-001

2.14354692507258e+004,-1.88392301464254e+001,-3.08020781694800e-001

2.17346972505211e+004,-1.88392336894557e+001,-3.12320077350027e-001

2.20381023175322e+004,-1.88392373319743e+001,-3.16679367121180e-001

2.23457427614443e+004,-1.88392410767714e+001,-3.21099487570587e-001

2.26576777059159e+004,-1.88392449267152e+001,-3.25581286898304e-001

2.29739670999406e+004,-1.88392488847543e+001,-3.30125625104578e-001

2.32946717293690e+004,-1.88392529539193e+001,-3.34733374153102e-001

2.36198532285905e+004,-1.88392571373262e+001,-3.39405418133293e-001

2.39495740923785e+004,-1.88392614381776e+001,-3.44142653431577e-001

2.42838976879009e+004,-1.88392658597659e+001,-3.48945988898956e-001

2.46228882668982e+004,-1.88392704054753e+001,-3.53816346023290e-001

2.49666109780322e+004,-1.88392750787847e+001,-3.58754659103647e-001

2.53151318794055e+004,-1.88392798832703e+001,-3.63761875426536e-001

2.56685179512580e+004,-1.88392848226081e+001,-3.68838955444732e-001

2.60268371088386e+004,-1.88392899005767e+001,-3.73986872961084e-001

2.63901582154578e+004,-1.88392951210603e+001,-3.79206615308955e-001

2.67585510957221e+004,-1.88393004880515e+001,-3.84499183541068e-001

2.71320865489533e+004,-1.88393060056545e+001,-3.89865592615154e-001

2.75108363627948e+004,-1.88393116780878e+001,-3.95306871590531e-001

2.78948733270080e+004,-1.88393175096877e+001,-4.00824063816198e-001

2.82842712474618e+004,-1.88393235049118e+001,-4.06418227130917e-001

2.86791049603164e+004,-1.88393296683413e+001,-4.12090434062044e-001

2.90794503464061e+004,-1.88393360046859e+001,-4.17841772024620e-001

2.94853843458219e+004,-1.88393425187861e+001,-4.23673343529498e-001

2.98969849726987e+004,-1.88393492156177e+001,-4.29586266386514e-001

3.03143313302078e+004,-1.88393561002946e+001,-4.35581673918622e-001

3.07375036257601e+004,-1.88393631780737e+001,-4.41660715169706e-001

3.11665831864199e+004,-1.88393704543581e+001,-4.47824555124712e-001

3.16016524745350e+004,-1.88393779347014e+001,-4.54074374923233e-001

3.20427951035848e+004,-1.88393856248115e+001,-4.60411372085459e-001

3.24900958542493e+004,-1.88393935305557e+001,-4.66836760731743e-001

3.29436406907028e+004,-1.88394016579638e+001,-4.73351771813192e-001

3.34035167771346e+004,-1.88394100132342e+001,-4.79957653337525e-001

3.38698124945009e+004,-1.88394186027366e+001,-4.86655670607483e-001

3.43426174575100e+004,-1.88394274330186e+001,-4.93447106450862e-001

3.48220225318448e+004,-1.88394365108092e+001,-5.00333261463979e-001

3.53081198516260e+004,-1.88394458430247e+001,-5.07315454251407e-001

3.58010028371187e+004,-1.88394554367731e+001,-5.14395021671492e-001

3.63007662126863e+004,-1.88394652993598e+001,-5.21573319085938e-001

3.68075060249948e+004,-1.88394754382931e+001,-5.28851720610142e-001

3.73213196614721e+004,-1.88394858612893e+001,-5.36231619369249e-001

3.78423058690237e+004,-1.88394965762787e+001,-5.43714427754729e-001

3.83705647730104e+004,-1.88395075914114e+001,-5.51301577687030e-001

3.89061978964912e+004,-1.88395189150634e+001,-5.58994520879264e-001

3.94493081797342e+004,-1.88395305558424e+001,-5.66794729107080e-001

3.99999999999998e+004,-1.88395425225947e+001,-5.74703694477842e-001

4.05583791916010e+004,-1.88395548244111e+001,-5.82722929707660e-001

4.11245530662425e+004,-1.88395674706339e+001,-5.90853968398883e-001

4.16986304336447e+004,-1.88395804708637e+001,-5.99098365321455e-001

4.22807216224550e+004,-1.88395938349662e+001,-6.07457696700210e-001

4.28709385014515e+004,-1.88396075730797e+001,-6.15933560501783e-001

4.34693945010421e+004,-1.88396216956222e+001,-6.24527576728669e-001

4.40762046350642e+004,-1.88396362132993e+001,-6.33241387714694e-001

4.46914855228886e+004,-1.88396511371118e+001,-6.42076658425648e-001

4.53153554118317e+004,-1.88396664783634e+001,-6.51035076762580e-001

4.59479341998812e+004,-1.88396822486692e+001,-6.60118353869832e-001

4.65893434587380e+004,-1.88396984599642e+001,-6.69328224444663e-001

4.72397064571810e+004,-1.88397151245115e+001,-6.78666447054032e-001

4.78991481847569e+004,-1.88397322549116e+001,-6.88134804451184e-001

4.85677953758016e+004,-1.88397498641111e+001,-6.97735103901481e-001

4.92457765337964e+004,-1.88397679654119e+001,-7.07469177505419e-001

4.99332219560642e+004,-1.88397865724810e+001,-7.17338882532314e-001

5.06302637588109e+004,-1.88398056993602e+001,-7.27346101752178e-001

5.13370359025159e+004,-1.88398253604761e+001,-7.37492743774867e-001

5.20536742176771e+004,-1.88398455706503e+001,-7.47780743393539e-001

5.27803164309155e+004,-1.88398663451096e+001,-7.58212061929803e-001

5.35171021914442e+004,-1.88398876994975e+001,-7.68788687585027e-001

5.42641730979066e+004,-1.88399096498847e+001,-7.79512635793661e-001

5.50216727255895e+004,-1.88399322127804e+001,-7.90385949583434e-001

5.57897466540159e+004,-1.88399554051441e+001,-8.01410699938068e-001

5.65685424949235e+004,-1.88399792443976e+001,-8.12588986162826e-001

5.73582099206328e+004,-1.88400037484367e+001,-8.23922936257150e-001

5.81589006928121e+004,-1.88400289356442e+001,-8.35414707289861e-001

5.89707686916437e+004,-1.88400548249022e+001,-8.47066485777726e-001

5.97939699453972e+004,-1.88400814356054e+001,-8.58880488071025e-001

6.06286626604156e+004,-1.88401087876748e+001,-8.70858960739471e-001

6.14750072515201e+004,-1.88401369015707e+001,-8.83004180967018e-001

6.23331663728396e+004,-1.88401657983073e+001,-8.95318456947121e-001

6.32033049490698e+004,-1.88401954994668e+001,-9.07804128284328e-001

6.40855902071694e+004,-1.88402260272144e+001,-9.20463566398673e-001

6.49801917084985e+004,-1.88402574043128e+001,-9.33299174937222e-001

6.58872813814055e+004,-1.88402896541383e+001,-9.46313390186544e-001

6.68070335542691e+004,-1.88403228006960e+001,-9.59508681491684e-001

6.77396249890018e+004,-1.88403568686360e+001,-9.72887551679102e-001

6.86852349150199e+004,-1.88403918832703e+001,-9.86452537483917e-001

6.96440450636895e+004,-1.88404278705890e+001,-1.00020620998164e+000

7.06162397032520e+004,-1.88404648572782e+001,-1.01415117502303e+000

7.16020056742374e+004,-1.88405028707368e+001,-1.02829007367621e+000

7.26015324253724e+004,-1.88405419390956e+001,-1.04262558266953e+000

7.36150120499896e+004,-1.88405820912345e+001,-1.05716041484265e+000

7.46426393229441e+004,-1.88406233568023e+001,-1.07189731959880e+000

7.56846117380472e+004,-1.88406657662352e+001,-1.08683908336273e+000

7.67411295460207e+004,-1.88407093507767e+001,-1.10198853004320e+000

7.78123957929823e+004,-1.88407541424979e+001,-1.11734852149951e+000

7.88986163594682e+004,-1.88408001743174e+001,-1.13292195801307e+000

7.99999999999995e+004,-1.88408474800223e+001,-1.14871177876190e+000

8.11167583832018e+004,-1.88408960942897e+001,-1.16472096230087e+000

8.22491061324848e+004,-1.88409460527085e+001,-1.18095252704349e+000

8.33972608672892e+004,-1.88409973918011e+001,-1.19740953175415e+000

8.45614432449099e+004,-1.88410501490463e+001,-1.21409507603724e+000

8.57418770029029e+004,-1.88411043629023e+001,-1.23101230083389e+000

8.69387890020841e+004,-1.88411600728302e+001,-1.24816438892460e+000

8.81524092701283e+004,-1.88412173193176e+001,-1.26555456543233e+000

8.93829710457770e+004,-1.88412761439033e+001,-1.28318609833314e+000

9.06307108236633e+004,-1.88413365892019e+001,-1.30106229896821e+000

9.18958683997622e+004,-1.88413986989293e+001,-1.31918652256001e+000

9.31786869174758e+004,-1.88414625179278e+001,-1.33756216873703e+000

9.44794129143618e+004,-1.88415280921928e+001,-1.35619268205475e+000

9.57982963695136e+004,-1.88415954688990e+001,-1.37508155252752e+000

9.71355907516031e+004,-1.88416646964275e+001,-1.39423231615978e+000

9.84915530675926e+004,-1.88417358243935e+001,-1.41364855548282e+000

9.98664439121282e+004,-1.88418089036735e+001,-1.43333390009658e+000

1.01260527517622e+005,-1.88418839864340e+001,-1.45329202721211e+000

1.02674071805032e+005,-1.88419611261604e+001,-1.47352666219897e+000

1.04107348435354e+005,-1.88420403776857e+001,-1.49404157913798e+000

1.05560632861831e+005,-1.88421217972200e+001,-1.51484060137488e+000

1.07034204382888e+005,-1.88422054423808e+001,-1.53592760207771e+000

1.08528346195813e+005,-1.88422913722229e+001,-1.55730650479964e+000

1.10043345451179e+005,-1.88423796472692e+001,-1.57898128404261e+000

1.11579493308032e+005,-1.88424703295418e+001,-1.60095596582507e+000

1.13137084989847e+005,-1.88425634825929e+001,-1.62323462825395e+000

1.14716419841265e+005,-1.88426591715374e+001,-1.64582140209691e+000

1.16317801385624e+005,-1.88427574630837e+001,-1.66872047136102e+000

1.17941537383287e+005,-1.88428584255672e+001,-1.69193607387117e+000

1.19587939890794e+005,-1.88429621289821e+001,-1.71547250185242e+000

1.21257325320831e+005,-1.88430686450142e+001,-1.73933410251723e+000

1.22950014503040e+005,-1.88431780470744e+001,-1.76352527865151e+000

1.24666332745679e+005,-1.88432904103314e+001,-1.78805048920506e+000

1.26406609898139e+005,-1.88434058117458e+001,-1.81291424988463e+000

1.28171180414339e+005,-1.88435243301028e+001,-1.83812113375076e+000

1.29960383416997e+005,-1.88436460460466e+001,-1.86367577181210e+000

1.31774562762811e+005,-1.88437710421136e+001,-1.88958285362877e+000

1.33614067108538e+005,-1.88438994027668e+001,-1.91584712791122e+000

1.35479249978003e+005,-1.88440312144288e+001,-1.94247340312641e+000

1.37370469830040e+005,-1.88441665655161e+001,-1.96946654810300e+000

1.39288090127379e+005,-1.88443055464724e+001,-1.99683149263918e+000

1.41232479406504e+005,-1.88444482498026e+001,-2.02457322811346e+000

1.43204011348474e+005,-1.88445947701055e+001,-2.05269680809568e+000

1.45203064850745e+005,-1.88447452041073e+001,-2.08120734896113e+000

1.47230024099979e+005,-1.88448996506944e+001,-2.11011003050637e+000

1.49285278645888e+005,-1.88450582109456e+001,-2.13941009656646e+000

1.51369223476094e+005,-1.88452209881643e+001,-2.16911285563337e+000

1.53482259092041e+005,-1.88453880879099e+001,-2.19922368147831e+000

1.55624791585964e+005,-1.88455596180294e+001,-2.22974801377327e+000

1.57797232718936e+005,-1.88457356886867e+001,-2.26069135871675e+000

1.59999999999999e+005,-1.88459164123935e+001,-2.29205928965974e+000

1.62233516766403e+005,-1.88461019040374e+001,-2.32385744773518e+000

1.64498212264969e+005,-1.88462922809101e+001,-2.35609154248766e+000

1.66794521734578e+005,-1.88464876627350e+001,-2.38876735250710e+000

1.69122886489819e+005,-1.88466881716927e+001,-2.42189072606440e+000

1.71483754005805e+005,-1.88468939324466e+001,-2.45546758174914e+000

1.73877578004168e+005,-1.88471050721660e+001,-2.48950390910960e+000

1.76304818540256e+005,-1.88473217205493e+001,-2.52400576929709e+000

1.78765942091554e+005,-1.88475440098445e+001,-2.55897929571334e+000

1.81261421647326e+005,-1.88477720748688e+001,-2.59443069465931e+000

1.83791736799524e+005,-1.88480060530268e+001,-2.63036624599100e+000

1.86357373834951e+005,-1.88482460843265e+001,-2.66679230377639e+000

1.88958825828723e+005,-1.88484923113932e+001,-2.70371529696031e+000

1.91596592739027e+005,-1.88487448794827e+001,-2.74114173003062e+000

1.94271181503206e+005,-1.88490039364904e+001,-2.77907818369341e+000

1.96983106135185e+005,-1.88492696329604e+001,-2.81753131555230e+000

1.99732887824256e+005,-1.88495421220902e+001,-2.85650786079496e+000

2.02521055035243e+005,-1.88498215597345e+001,-2.89601463288741e+000

2.05348143610063e+005,-1.88501081044055e+001,-2.93605852427606e+000

2.08214696870707e+005,-1.88504019172705e+001,-2.97664650709931e+000

2.11121265723661e+005,-1.88507031621473e+001,-3.01778563390723e+000

2.14068408765776e+005,-1.88510120054957e+001,-3.05948303839460e+000

2.17056692391625e+005,-1.88513286164066e+001,-3.10174593614314e+000

2.20086690902357e+005,-1.88516531665872e+001,-3.14458162537785e+000

2.23158986616063e+005,-1.88519858303432e+001,-3.18799748773755e+000

2.26274169979693e+005,-1.88523267845577e+001,-3.23200098905824e+000

2.29432839682530e+005,-1.88526762086653e+001,-3.27659968017639e+000

2.32635602771247e+005,-1.88530342846237e+001,-3.32180119774729e+000

2.35883074766574e+005,-1.88534011968809e+001,-3.36761326508321e+000

2.39175879781588e+005,-1.88537771323380e+001,-3.41404369301340e+000

2.42514650641661e+005,-1.88541622803082e+001,-3.46110038076599e+000

2.45900029006080e+005,-1.88545568324714e+001,-3.50879131687371e+000

2.49332665491357e+005,-1.88549609828247e+001,-3.55712458010629e+000

2.52813219796278e+005,-1.88553749276277e+001,-3.60610834043113e+000

2.56342360828676e+005,-1.88557988653444e+001,-3.65575086000354e+000

2.59920766833993e+005,-1.88562329965790e+001,-3.70606049419005e+000

2.63549125525621e+005,-1.88566775240084e+001,-3.75704569262466e+000

2.67228134217075e+005,-1.88571326523089e+001,-3.80871500030460e+000

2.70958499956006e+005,-1.88575985880787e+001,-3.86107705872299e+000

2.74740939660078e+005,-1.88580755397556e+001,-3.91414060704451e+000

2.78576180254757e+005,-1.88585637175289e+001,-3.96791448332635e+000

2.82464958813007e+005,-1.88590633332480e+001,-4.02240762578501e+000

2.86408022696948e+005,-1.88595746003249e+001,-4.07762907411424e+000

2.90406129701488e+005,-1.88600977336327e+001,-4.13358797085651e+000

2.94460048199957e+005,-1.88606329493990e+001,-4.19029356282994e+000

2.98570557291775e+005,-1.88611804650949e+001,-4.24775520261438e+000

3.02738446952187e+005,-1.88617404993196e+001,-4.30598235010068e+000

3.06964518184081e+005,-1.88623132716802e+001,-4.36498457410610e+000

3.11249583171928e+005,-1.88628990026683e+001,-4.42477155405729e+000

3.15594465437872e+005,-1.88634979135313e+001,-4.48535308174667e+000

3.19999999999997e+005,-1.88641102261413e+001,-4.54673906316596e+000

3.24467033532806e+005,-1.88647361628596e+001,-4.60893952041608e+000

3.28996424529938e+005,-1.88653759463986e+001,-4.67196459370303e+000

3.33589043469155e+005,-1.88660297996808e+001,-4.73582454341794e+000

3.38245772979638e+005,-1.88666979456946e+001,-4.80052975230844e+000

3.42967508011610e+005,-1.88673806073498e+001,-4.86609072774212e+000

3.47755156008335e+005,-1.88680780073293e+001,-4.93251810406749e+000

3.52609637080511e+005,-1.88687903679416e+001,-4.99982264507550e+000

3.57531884183106e+005,-1.88695179109718e+001,-5.06801524656296e+000

3.62522843294651e+005,-1.88702608575325e+001,-5.13710693900473e+000

3.67583473599047e+005,-1.88710194279162e+001,-5.20710889033413e+000

3.72714747669902e+005,-1.88717938414478e+001,-5.27803240883682e+000

3.77917651657445e+005,-1.88725843163403e+001,-5.34988894616083e+000

3.83193185478053e+005,-1.88733910695520e+001,-5.42269010044398e+000

3.88542363006410e+005,-1.88742143166486e+001,-5.49644761956337e+000

3.93966212270369e+005,-1.88750542716683e+001,-5.57117340450727e+000

3.99465775648511e+005,-1.88759111469930e+001,-5.64687951287212e+000

4.05042110070485e+005,-1.88767851532253e+001,-5.72357816248725e+000

4.10696287220124e+005,-1.88776764990726e+001,-5.80128173516743e+000

4.16429393741414e+005,-1.88785853912390e+001,-5.88000278059510e+000

4.22242531447321e+005,-1.88795120343271e+001,-5.95975402033374e+000

4.28136817531551e+005,-1.88804566307484e+001,-6.04054835197152e+000

4.34113384783250e+005,-1.88814193806464e+001,-6.12239885339607e+000

4.40173381804713e+005,-1.88824004818311e+001,-6.20531878719975e+000

4.46317973232124e+005,-1.88834001297271e+001,-6.28932160521636e+000

4.52548339959385e+005,-1.88844185173362e+001,-6.37442095318464e+000

4.58865679365059e+005,-1.88854558352152e+001,-6.46063067553980e+000

4.65271205542494e+005,-1.88865122714720e+001,-6.54796482033109e+000

4.71766149533147e+005,-1.88875880117774e+001,-6.63643764425942e+000

4.78351759563174e+005,-1.88886832393984e+001,-6.72606361783683e+000

4.85029301283321e+005,-1.88897981352497e+001,-6.81685743065942e+000

4.91800058012158e+005,-1.88909328779684e+001,-6.90883399679327e+000

4.98665330982714e+005,-1.88920876440099e+001,-7.00200846026592e+000

5.05626439592555e+005,-1.88932626077682e+001,-7.09639620065986e+000

5.12684721657352e+005,-1.88944579417205e+001,-7.19201283880207e+000

5.19841533667984e+005,-1.88956738165980e+001,-7.28887424254195e+000

5.27098251051240e+005,-1.88969104015827e+001,-7.38699653261241e+000

5.34456268434150e+005,-1.88981678645326e+001,-7.48639608856688e+000

5.41916999912011e+005,-1.88994463722350e+001,-7.58708955478219e+000

