Freq.,VOut,OutRef

1.00000000000000e+004,-2.52644806455667e+001,-3.57489508086900e-001

1.01395947979003e+004,-2.52644827323095e+001,-3.62479811957525e-001

1.02811382665607e+004,-2.52644848777138e+001,-3.67539775169365e-001

1.04246576084112e+004,-2.52644870834284e+001,-3.72670370016733e-001

1.05701804056138e+004,-2.52644893511488e+001,-3.77872582359403e-001

1.07177346253629e+004,-2.52644916826176e+001,-3.83147411817233e-001

1.08673486252606e+004,-2.52644940796269e+001,-3.88495871956120e-001

1.10190511587661e+004,-2.52644965440188e+001,-3.93918990487215e-001

1.11728713807222e+004,-2.52644990776874e+001,-3.99417809460906e-001

1.13288388529580e+004,-2.52645016825800e+001,-4.04993385469269e-001

1.14869835499703e+004,-2.52645043606985e+001,-4.10646789846058e-001

1.16473358646846e+004,-2.52645071141010e+001,-4.16379108876098e-001

1.18099266142953e+004,-2.52645099449039e+001,-4.22191443998504e-001

1.19747870461893e+004,-2.52645128552825e+001,-4.28084912022645e-001

1.21419488439505e+004,-2.52645158474735e+001,-4.34060645341100e-001

1.23114441334492e+004,-2.52645189237764e+001,-4.40119792145153e-001

1.24833054890161e+004,-2.52645220865554e+001,-4.46263516645903e-001

1.26575659397028e+004,-2.52645253382409e+001,-4.52492999299100e-001

1.28342589756290e+004,-2.52645286813320e+001,-4.58809437029793e-001

1.30134185544193e+004,-2.52645321183977e+001,-4.65214043461878e-001

1.31950791077289e+004,-2.52645356520793e+001,-4.71708049152321e-001

1.33792755478611e+004,-2.52645392850922e+001,-4.78292701825378e-001

1.35660432744767e+004,-2.52645430202282e+001,-4.84969266612568e-001

1.37554181813974e+004,-2.52645468603576e+001,-4.91739026296253e-001

1.39474366635040e+004,-2.52645508084312e+001,-4.98603281553304e-001

1.41421356237309e+004,-2.52645548674829e+001,-5.05563351206427e-001

1.43395524801583e+004,-2.52645590406316e+001,-5.12620572475680e-001

1.45397251732031e+004,-2.52645633310840e+001,-5.19776301236565e-001

1.47426921729110e+004,-2.52645677421369e+001,-5.27031912276924e-001

1.49484924863494e+004,-2.52645722771797e+001,-5.34388799563464e-001

1.51571656651040e+004,-2.52645769396967e+001,-5.41848376507811e-001

1.53687518128801e+004,-2.52645817332708e+001,-5.49412076235297e-001

1.55832915932100e+004,-2.52645866615848e+001,-5.57081351863496e-001

1.58008262372675e+004,-2.52645917284254e+001,-5.64857676777632e-001

1.60213975517924e+004,-2.52645969376856e+001,-5.72742544912994e-001

1.62450479271247e+004,-2.52646022933678e+001,-5.80737471042020e-001

1.64718203453514e+004,-2.52646077995865e+001,-5.88843991065629e-001

1.67017583885674e+004,-2.52646134605723e+001,-5.97063662304059e-001

1.69349062472505e+004,-2.52646192806742e+001,-6.05398063797854e-001

1.71713087287550e+004,-2.52646252643636e+001,-6.13848796608846e-001

1.74110112659224e+004,-2.52646314162373e+001,-6.22417484127853e-001

1.76540599258131e+004,-2.52646377410215e+001,-6.31105772383569e-001

1.79005014185594e+004,-2.52646442435748e+001,-6.39915330359532e-001

1.81503831063432e+004,-2.52646509288926e+001,-6.48847850312969e-001

1.84037530124975e+004,-2.52646578021102e+001,-6.57905048097984e-001

1.86606598307361e+004,-2.52646648685074e+001,-6.67088663494782e-001

1.89211529345119e+004,-2.52646721335124e+001,-6.76400460540935e-001

1.91852823865052e+004,-2.52646796027054e+001,-6.85842227872117e-001

1.94530989482457e+004,-2.52646872818237e+001,-6.95415779059970e-001

1.97246540898671e+004,-2.52646951767655e+001,-7.05122952962356e-001

1.99999999999999e+004,-2.52647032935947e+001,-7.14965614073185e-001

2.02791895958005e+004,-2.52647116385454e+001,-7.24945652879445e-001

2.05622765331213e+004,-2.52647202180267e+001,-7.35064986223034e-001

2.08493152168224e+004,-2.52647290386278e+001,-7.45325557666096e-001

2.11403608112276e+004,-2.52647381071229e+001,-7.55729337863114e-001

2.14354692507258e+004,-2.52647474304761e+001,-7.66278324937461e-001

2.17346972505211e+004,-2.52647570158474e+001,-7.76974544863326e-001

2.20381023175322e+004,-2.52647668705974e+001,-7.87820051851623e-001

2.23457427614443e+004,-2.52647770022937e+001,-7.98816928743909e-001

2.26576777059159e+004,-2.52647874187161e+001,-8.09967287408832e-001

2.29739670999406e+004,-2.52647981278628e+001,-8.21273269145738e-001

2.32946717293690e+004,-2.52648091379564e+001,-8.32737045094386e-001

2.36198532285905e+004,-2.52648204574505e+001,-8.44360816646490e-001

2.39495740923785e+004,-2.52648320950357e+001,-8.56146815869019e-001

2.42838976879009e+004,-2.52648440596467e+001,-8.68097305928914e-001

2.46228882668982e+004,-2.52648563604688e+001,-8.80214581522638e-001

2.49666109780322e+004,-2.52648690069450e+001,-8.92500969317354e-001

2.53151318794055e+004,-2.52648820087836e+001,-9.04958828391122e-001

2.56685179512580e+004,-2.52648953759647e+001,-9.17590550685264e-001

2.60268371088386e+004,-2.52649091187489e+001,-9.30398561458203e-001

2.63901582154578e+004,-2.52649232476845e+001,-9.43385319748796e-001

2.67585510957221e+004,-2.52649377736156e+001,-9.56553318843801e-001

2.71320865489533e+004,-2.52649527076906e+001,-9.69905086752908e-001

2.75108363627948e+004,-2.52649680613706e+001,-9.83443186689949e-001

2.78948733270080e+004,-2.52649838464380e+001,-9.97170217561441e-001

2.82842712474618e+004,-2.52650000750060e+001,-1.01108881446025e+000

2.86791049603164e+004,-2.52650167595271e+001,-1.02520164916608e+000

2.90794503464061e+004,-2.52650339128032e+001,-1.03951143065582e+000

2.94853843458219e+004,-2.52650515479951e+001,-1.05402090561690e+000

2.98969849726987e+004,-2.52650696786327e+001,-1.06873285896854e+000

3.03143313302078e+004,-2.52650883186249e+001,-1.08365011439322e+000

3.07375036257601e+004,-2.52651074822709e+001,-1.09877553487036e+000

3.11665831864199e+004,-2.52651271842705e+001,-1.11411202322166e+000

3.16016524745350e+004,-2.52651474397357e+001,-1.12966252266159e+000

3.20427951035848e+004,-2.52651682642016e+001,-1.14543001735581e+000

3.24900958542493e+004,-2.52651896736391e+001,-1.16141753298619e+000

3.29436406907028e+004,-2.52652116844665e+001,-1.17762813732607e+000

3.34035167771346e+004,-2.52652343135621e+001,-1.19406494082021e+000

3.38698124945009e+004,-2.52652575782771e+001,-1.21073109717483e+000

3.43426174575100e+004,-2.52652814964485e+001,-1.22762980395562e+000

3.48220225318448e+004,-2.52653060864132e+001,-1.24476430319073e+000

3.53081198516260e+004,-2.52653313670217e+001,-1.26213788198547e+000

3.58010028371187e+004,-2.52653573576522e+001,-1.27975387314493e+000

3.63007662126863e+004,-2.52653840782256e+001,-1.29761565580298e+000

3.68075060249948e+004,-2.52654115492207e+001,-1.31572665605955e+000

3.73213196614721e+004,-2.52654397916893e+001,-1.33409034763075e+000

3.78423058690237e+004,-2.52654688272728e+001,-1.35271025250174e+000

3.83705647730104e+004,-2.52654986782181e+001,-1.37158994159306e+000

3.89061978964912e+004,-2.52655293673947e+001,-1.39073303543262e+000

3.94493081797342e+004,-2.52655609183121e+001,-1.41014320483907e+000

3.99999999999998e+004,-2.52655933551375e+001,-1.42982417161376e+000

4.05583791916010e+004,-2.52656267027141e+001,-1.44977970924012e+000

4.11245530662425e+004,-2.52656609865801e+001,-1.47001364359395e+000

4.16986304336447e+004,-2.52656962329877e+001,-1.49052985366451e+000

4.22807216224550e+004,-2.52657324689233e+001,-1.51133227228106e+000

4.28709385014515e+004,-2.52657697221277e+001,-1.53242488685390e+000

4.34693945010421e+004,-2.52658080211174e+001,-1.55381174012068e+000

4.40762046350642e+004,-2.52658473952054e+001,-1.57549693090685e+000

4.46914855228886e+004,-2.52658878745244e+001,-1.59748461489188e+000

4.53153554118317e+004,-2.52659294900484e+001,-1.61977900538994e+000

4.59479341998812e+004,-2.52659722736172e+001,-1.64238437413650e+000

4.65893434587380e+004,-2.52660162579596e+001,-1.66530505208861e+000

4.72397064571810e+004,-2.52660614767183e+001,-1.68854543023453e+000

4.78991481847569e+004,-2.52661079644754e+001,-1.71210996041314e+000

4.85677953758016e+004,-2.52661557567783e+001,-1.73600315614506e+000

4.92457765337964e+004,-2.52662048901664e+001,-1.76022959347419e+000

4.99332219560642e+004,-2.52662554021988e+001,-1.78479391182031e+000

5.06302637588109e+004,-2.52663073314821e+001,-1.80970081484359e+000

5.13370359025159e+004,-2.52663607177000e+001,-1.83495507131749e+000

5.20536742176771e+004,-2.52664156016427e+001,-1.86056151601687e+000

5.27803164309155e+004,-2.52664720252372e+001,-1.88652505061462e+000

5.35171021914442e+004,-2.52665300315796e+001,-1.91285064459031e+000

5.42641730979066e+004,-2.52665896649667e+001,-1.93954333615185e+000

5.50216727255895e+004,-2.52666509709292e+001,-1.96660823316789e+000

5.57897466540159e+004,-2.52667139962659e+001,-1.99405051411221e+000

5.65685424949235e+004,-2.52667787890790e+001,-2.02187542901955e+000

5.73582099206328e+004,-2.52668453988091e+001,-2.05008830045598e+000

5.81589006928121e+004,-2.52669138762734e+001,-2.07869452449712e+000

5.89707686916437e+004,-2.52669842737022e+001,-2.10769957172521e+000

5.97939699453972e+004,-2.52670566447790e+001,-2.13710898823100e+000

6.06286626604156e+004,-2.52671310446798e+001,-2.16692839663509e+000

6.14750072515201e+004,-2.52672075301141e+001,-2.19716349711865e+000

6.23331663728396e+004,-2.52672861593676e+001,-2.22782006846625e+000

6.32033049490698e+004,-2.52673669923447e+001,-2.25890396912455e+000

6.40855902071694e+004,-2.52674500906136e+001,-2.29042113827177e+000

6.49801917084985e+004,-2.52675355174516e+001,-2.32237759690141e+000

6.58872813814055e+004,-2.52676233378918e+001,-2.35477944891946e+000

6.68070335542691e+004,-2.52677136187715e+001,-2.38763288225385e+000

6.77396249890018e+004,-2.52678064287813e+001,-2.42094416997935e+000

6.86852349150199e+004,-2.52679018385161e+001,-2.45471967145473e+000

6.96440450636895e+004,-2.52679999205266e+001,-2.48896583347396e+000

7.06162397032520e+004,-2.52681007493734e+001,-2.52368919143232e+000

7.16020056742374e+004,-2.52682044016810e+001,-2.55889637050547e+000

7.26015324253724e+004,-2.52683109561947e+001,-2.59459408684235e+000

7.36150120499896e+004,-2.52684204938383e+001,-2.63078914877410e+000

7.46426393229441e+004,-2.52685330977729e+001,-2.66748845803569e+000

7.56846117380472e+004,-2.52686488534582e+001,-2.70469901100241e+000

7.67411295460207e+004,-2.52687678487148e+001,-2.74242789994169e+000

7.78123957929823e+004,-2.52688901737880e+001,-2.78068231427841e+000

7.88986163594682e+004,-2.52690159214140e+001,-2.81946954187543e+000

7.99999999999995e+004,-2.52691451868869e+001,-2.85879697033027e+000

8.11167583832018e+004,-2.52692780681281e+001,-2.89867208828422e+000

8.22491061324848e+004,-2.52694146657576e+001,-2.93910248674820e+000

8.33972608672892e+004,-2.52695550831661e+001,-2.98009586044414e+000

8.45614432449099e+004,-2.52696994265905e+001,-3.02166000916021e+000

8.57418770029029e+004,-2.52698478051900e+001,-3.06380283912166e+000

8.69387890020841e+004,-2.52700003311250e+001,-3.10653236437836e+000

8.81524092701283e+004,-2.52701571196377e+001,-3.14985670820628e+000

8.93829710457770e+004,-2.52703182891349e+001,-3.19378410452435e+000

9.06307108236633e+004,-2.52704839612725e+001,-3.23832289932847e+000

9.18958683997622e+004,-2.52706542610431e+001,-3.28348155214037e+000

9.31786869174758e+004,-2.52708293168643e+001,-3.32926863747127e+000

9.44794129143618e+004,-2.52710092606711e+001,-3.37569284630229e+000

9.57982963695136e+004,-2.52711942280091e+001,-3.42276298758118e+000

9.71355907516031e+004,-2.52713843581307e+001,-3.47048798973394e+000

9.84915530675926e+004,-2.52715797940940e+001,-3.51887690219158e+000

9.98664439121282e+004,-2.52717806828631e+001,-3.56793889693558e+000

1.01260527517622e+005,-2.52719871754127e+001,-3.61768327005649e+000

1.02674071805032e+005,-2.52721994268332e+001,-3.66811944332959e+000

1.04107348435354e+005,-2.52724175964400e+001,-3.71925696580768e+000

1.05560632861831e+005,-2.52726418478849e+001,-3.77110551542753e+000

1.07034204382888e+005,-2.52728723492702e+001,-3.82367490063455e+000

1.08528346195813e+005,-2.52731092732658e+001,-3.87697506202206e+000

1.10043345451179e+005,-2.52733527972289e+001,-3.93101607398790e+000

1.11579493308032e+005,-2.52736031033271e+001,-3.98580814640564e+000

1.13137084989847e+005,-2.52738603786637e+001,-4.04136162631289e+000

1.14716419841265e+005,-2.52741248154069e+001,-4.09768699961499e+000

1.16317801385624e+005,-2.52743966109217e+001,-4.15479489280508e+000

1.17941537383287e+005,-2.52746759679047e+001,-4.21269607469993e+000

1.19587939890794e+005,-2.52749630945228e+001,-4.27140145819150e+000

1.21257325320831e+005,-2.52752582045546e+001,-4.33092210201425e+000

1.22950014503040e+005,-2.52755615175352e+001,-4.39126921252926e+000

1.24666332745679e+005,-2.52758732589052e+001,-4.45245414552185e+000

1.26406609898139e+005,-2.52761936601616e+001,-4.51448840801801e+000

1.28171180414339e+005,-2.52765229590144e+001,-4.57738366011291e+000

1.29960383416997e+005,-2.52768613995447e+001,-4.64115171681779e+000

1.31774562762811e+005,-2.52772092323676e+001,-4.70580454992058e+000

1.33614067108538e+005,-2.52775667147994e+001,-4.77135428986184e+000

1.35479249978003e+005,-2.52779341110269e+001,-4.83781322762719e+000

1.37370469830040e+005,-2.52783116922823e+001,-4.90519381665315e+000

1.39288090127379e+005,-2.52786997370210e+001,-4.97350867474919e+000

1.41232479406504e+005,-2.52790985311040e+001,-5.04277058603327e+000

1.43204011348474e+005,-2.52795083679839e+001,-5.11299250288381e+000

1.45203064850745e+005,-2.52799295488955e+001,-5.18418754790458e+000

1.47230024099979e+005,-2.52803623830504e+001,-5.25636901590415e+000

1.49285278645888e+005,-2.52808071878360e+001,-5.32955037589094e+000

1.51369223476094e+005,-2.52812642890188e+001,-5.40374527308097e+000

1.53482259092041e+005,-2.52817340209520e+001,-5.47896753091919e+000

1.55624791585964e+005,-2.52822167267881e+001,-5.55523115311582e+000

1.57797232718936e+005,-2.52827127586954e+001,-5.63255032569560e+000

1.59999999999999e+005,-2.52832224780798e+001,-5.71093941905935e+000

1.62233516766403e+005,-2.52837462558109e+001,-5.79041299006087e+000

1.64498212264969e+005,-2.52842844724529e+001,-5.87098578409442e+000

1.66794521734578e+005,-2.52848375185006e+001,-5.95267273719628e+000

1.69122886489819e+005,-2.52854057946203e+001,-6.03548897815876e+000

1.71483754005805e+005,-2.52859897118955e+001,-6.11944983065591e+000

1.73877578004168e+005,-2.52865896920777e+001,-6.20457081538156e+000

1.76304818540256e+005,-2.52872061678429e+001,-6.29086765219980e+000

1.78765942091554e+005,-2.52878395830522e+001,-6.37835626230613e+000

1.81261421647326e+005,-2.52884903930190e+001,-6.46705277040075e+000

1.83791736799524e+005,-2.52891590647804e+001,-6.55697350687295e+000

1.86357373834951e+005,-2.52898460773753e+001,-6.64813500999594e+000

1.88958825828723e+005,-2.52905519221265e+001,-6.74055402813323e+000

1.91596592739027e+005,-2.52912771029297e+001,-6.83424752195531e+000

1.94271181503206e+005,-2.52920221365476e+001,-6.92923266666613e+000

1.96983106135185e+005,-2.52927875529094e+001,-7.02552685424081e+000

1.99732887824256e+005,-2.52935738954175e+001,-7.12314769567172e+000

2.02521055035243e+005,-2.52943817212581e+001,-7.22211302322581e+000

2.05348143610063e+005,-2.52952116017194e+001,-7.32244089271049e+000

2.08214696870707e+005,-2.52960641225152e+001,-7.42414958574909e+000

2.11121265723661e+005,-2.52969398841148e+001,-7.52725761206557e+000

2.14068408765776e+005,-2.52978395020788e+001,-7.63178371177792e+000

2.17056692391625e+005,-2.52987636074022e+001,-7.73774685770042e+000

2.20086690902357e+005,-2.52997128468625e+001,-7.84516625765480e+000

2.23158986616063e+005,-2.53006878833754e+001,-7.95406135678890e+000

2.26274169979693e+005,-2.53016893963572e+001,-8.06445183990515e+000

2.29432839682530e+005,-2.53027180820928e+001,-8.17635763379549e+000

2.32635602771247e+005,-2.53037746541117e+001,-8.28979890958554e+000

2.35883074766574e+005,-2.53048598435706e+001,-8.40479608508640e+000

2.39175879781588e+005,-2.53059743996426e+001,-8.52136982715355e+000

2.42514650641661e+005,-2.53071190899141e+001,-8.63954105405421e+000

2.45900029006080e+005,-2.53082947007893e+001,-8.75933093784167e+000

2.49332665491357e+005,-2.53095020379009e+001,-8.88076090673801e+000

2.52813219796278e+005,-2.53107419265300e+001,-9.00385264752247e+000

2.56342360828676e+005,-2.53120152120328e+001,-9.12862810792880e+000

2.59920766833993e+005,-2.53133227602749e+001,-9.25510949904924e+000

2.63549125525621e+005,-2.53146654580748e+001,-9.38331929774498e+000

2.67228134217075e+005,-2.53160442136549e+001,-9.51328024906432e+000

2.70958499956006e+005,-2.53174599571010e+001,-9.64501536866767e+000

2.74740939660078e+005,-2.53189136408305e+001,-9.77854794525893e+000

2.78576180254757e+005,-2.53204062400699e+001,-9.91390154302414e+000

2.82464958813007e+005,-2.53219387533407e+001,-1.00511000040758e+001

2.86408022696948e+005,-2.53235122029553e+001,-1.01901674509045e+001

2.90406129701488e+005,-2.53251276355221e+001,-1.03311282888361e+001

2.94460048199957e+005,-2.53267861224605e+001,-1.04740072084951e+001

2.98570557291775e+005,-2.53284887605267e+001,-1.06188291882736e+001

3.02738446952187e+005,-2.53302366723487e+001,-1.07656194968054e+001

3.06964518184081e+005,-2.53320310069736e+001,-1.09144036954455e+001

3.11249583171928e+005,-2.53338729404250e+001,-1.10652076407538e+001

3.15594465437872e+005,-2.53357636762721e+001,-1.12180574869828e+001

3.19999999999997e+005,-2.53377044462113e+001,-1.13729796885689e+001

3.24467033532806e+005,-2.53396965106592e+001,-1.15300010026263e+001

3.28996424529938e+005,-2.53417411593589e+001,-1.16891484914419e+001

3.33589043469155e+005,-2.53438397119994e+001,-1.18504495249735e+001

3.38245772979638e+005,-2.53459935188484e+001,-1.20139317833446e+001

3.42967508011610e+005,-2.53482039613993e+001,-1.21796232593401e+001

3.47755156008335e+005,-2.53504724530331e+001,-1.23475522608989e+001

3.52609637080511e+005,-2.53528004396948e+001,-1.25177474136011e+001

3.57531884183106e+005,-2.53551894005864e+001,-1.26902376631500e+001

3.62522843294651e+005,-2.53576408488751e+001,-1.28650522778457e+001

3.67583473599047e+005,-2.53601563324193e+001,-1.30422208510477e+001

3.72714747669902e+005,-2.53627374345115e+001,-1.32217733036261e+001

3.77917651657445e+005,-2.53653857746395e+001,-1.34037398863951e+001

3.83193185478053e+005,-2.53681030092662e+001,-1.35881511825294e+001

3.88542363006410e+005,-2.53708908326290e+001,-1.37750381099578e+001

3.93966212270369e+005,-2.53737509775589e+001,-1.39644319237312e+001

3.99465775648511e+005,-2.53766852163208e+001,-1.41563642183608e+001

4.05042110070485e+005,-2.53796953614750e+001,-1.43508669301211e+001

4.10696287220124e+005,-2.53827832667606e+001,-1.45479723393156e+001

4.16429393741414e+005,-2.53859508280023e+001,-1.47477130724960e+001

4.22242531447321e+005,-2.53891999840401e+001,-1.49501221046327e+001

4.28136817531551e+005,-2.53925327176838e+001,-1.51552327612285e+001

4.34113384783250e+005,-2.53959510566919e+001,-1.53630787203694e+001

4.40173381804713e+005,-2.53994570747770e+001,-1.55736940147055e+001

4.46317973232124e+005,-2.54030528926359e+001,-1.57871130333544e+001

4.52548339959385e+005,-2.54067406790088e+001,-1.60033705237178e+001

4.58865679365059e+005,-2.54105226517635e+001,-1.62225015932056e+001

4.65271205542494e+005,-2.54144010790100e+001,-1.64445417108537e+001

4.71766149533147e+005,-2.54183782802424e+001,-1.66695267088302e+001

4.78351759563174e+005,-2.54224566275105e+001,-1.68974927838172e+001

4.85029301283321e+005,-2.54266385466204e+001,-1.71284764982563e+001

4.91800058012158e+005,-2.54309265183662e+001,-1.73625147814501e+001

4.98665330982714e+005,-2.54353230797907e+001,-1.75996449305028e+001

5.05626439592555e+005,-2.54398308254779e+001,-1.78399046110909e+001

5.12684721657352e+005,-2.54444524088752e+001,-1.80833318580493e+001

5.19841533667984e+005,-2.54491905436473e+001,-1.83299650757582e+001

5.27098251051240e+005,-2.54540480050600e+001,-1.85798430383190e+001

5.34456268434150e+005,-2.54590276313959e+001,-1.88330048895009e+001

5.41916999912011e+005,-2.54641323253994e+001,-1.90894901424461e+001

