Freq.,VOut,OutRef

1.00000000000000e+004,-2.18151883723325e+001,-1.55972170346329e-001

1.01395947979003e+004,-2.18151889387847e+001,-1.58149433774992e-001

1.02811382665607e+004,-2.18151895211592e+001,-1.60357089524695e-001

1.04246576084112e+004,-2.18151901199036e+001,-1.62595561808185e-001

1.05701804056138e+004,-2.18151907354779e+001,-1.64865280757755e-001

1.07177346253629e+004,-2.18151913683550e+001,-1.67166682507620e-001

1.08673486252606e+004,-2.18151920190212e+001,-1.69500209278868e-001

1.10190511587661e+004,-2.18151926879764e+001,-1.71866309462249e-001

1.11728713807222e+004,-2.18151933757346e+001,-1.74265437706184e-001

1.13288388529580e+004,-2.18151940828242e+001,-1.76698055002630e-001

1.14869835499703e+004,-2.18151948097885e+001,-1.79164628775759e-001

1.16473358646846e+004,-2.18151955571857e+001,-1.81665632974451e-001

1.18099266142953e+004,-2.18151963255906e+001,-1.84201548156484e-001

1.19747870461893e+004,-2.18151971155929e+001,-1.86772861589858e-001

1.21419488439505e+004,-2.18151979277998e+001,-1.89380067338083e-001

1.23114441334492e+004,-2.18151987628353e+001,-1.92023666358837e-001

1.24833054890161e+004,-2.18151996213407e+001,-1.94704166600673e-001

1.26575659397028e+004,-2.18152005039755e+001,-1.97422083098384e-001

1.28342589756290e+004,-2.18152014114177e+001,-2.00177938073280e-001

1.30134185544193e+004,-2.18152023443645e+001,-2.02972261031067e-001

1.31950791077289e+004,-2.18152033035323e+001,-2.05805588867945e-001

1.33792755478611e+004,-2.18152042896580e+001,-2.08678465968533e-001

1.35660432744767e+004,-2.18152053034992e+001,-2.11591444312100e-001

1.37554181813974e+004,-2.18152063458342e+001,-2.14545083581624e-001

1.39474366635040e+004,-2.18152074174638e+001,-2.17539951264848e-001

1.41421356237309e+004,-2.18152085192110e+001,-2.20576622768056e-001

1.43395524801583e+004,-2.18152096519219e+001,-2.23655681526004e-001

1.45397251732031e+004,-2.18152108164665e+001,-2.26777719108925e-001

1.47426921729110e+004,-2.18152120137391e+001,-2.29943335343371e-001

1.49484924863494e+004,-2.18152132446591e+001,-2.33153138420939e-001

1.51571656651040e+004,-2.18152145101718e+001,-2.36407745017911e-001

1.53687518128801e+004,-2.18152158112490e+001,-2.39707780412199e-001

1.55832915932100e+004,-2.18152171488896e+001,-2.43053878605450e-001

1.58008262372675e+004,-2.18152185241208e+001,-2.46446682441579e-001

1.60213975517924e+004,-2.18152199379986e+001,-2.49886843729861e-001

1.62450479271247e+004,-2.18152213916084e+001,-2.53375023373085e-001

1.64718203453514e+004,-2.18152228860664e+001,-2.56911891490562e-001

1.67017583885674e+004,-2.18152244225198e+001,-2.60498127549884e-001

1.69349062472505e+004,-2.18152260021483e+001,-2.64134420492700e-001

1.71713087287550e+004,-2.18152276261645e+001,-2.67821468870850e-001

1.74110112659224e+004,-2.18152292958149e+001,-2.71559980978928e-001

1.76540599258131e+004,-2.18152310123814e+001,-2.75350674987524e-001

1.79005014185594e+004,-2.18152327771813e+001,-2.79194279083818e-001

1.81503831063432e+004,-2.18152345915696e+001,-2.83091531608580e-001

1.84037530124975e+004,-2.18152364569384e+001,-2.87043181200832e-001

1.86606598307361e+004,-2.18152383747196e+001,-2.91049986936634e-001

1.89211529345119e+004,-2.18152403463850e+001,-2.95112718477098e-001

1.91852823865052e+004,-2.18152423734474e+001,-2.99232156216084e-001

1.94530989482457e+004,-2.18152444574627e+001,-3.03409091427419e-001

1.97246540898671e+004,-2.18152466000296e+001,-3.07644326418234e-001

1.99999999999999e+004,-2.18152488027923e+001,-3.11938674681155e-001

2.02791895958005e+004,-2.18152510674409e+001,-3.16292961049709e-001

2.05622765331213e+004,-2.18152533957127e+001,-3.20708021857215e-001

2.08493152168224e+004,-2.18152557893940e+001,-3.25184705095861e-001

2.11403608112276e+004,-2.18152582503207e+001,-3.29723870579950e-001

2.14354692507258e+004,-2.18152607803810e+001,-3.34326390106655e-001

2.17346972505211e+004,-2.18152633815150e+001,-3.38993147628497e-001

2.20381023175322e+004,-2.18152660557180e+001,-3.43725039415975e-001

2.23457427614443e+004,-2.18152688050407e+001,-3.48522974233891e-001

2.26576777059159e+004,-2.18152716315916e+001,-3.53387873510613e-001

2.29739670999406e+004,-2.18152745375380e+001,-3.58320671518973e-001

2.32946717293690e+004,-2.18152775251081e+001,-3.63322315549111e-001

2.36198532285905e+004,-2.18152805965926e+001,-3.68393766092696e-001

2.39495740923785e+004,-2.18152837543460e+001,-3.73535997027258e-001

2.42838976879009e+004,-2.18152870007891e+001,-3.78749995797690e-001

2.46228882668982e+004,-2.18152903384105e+001,-3.84036763608924e-001

2.49666109780322e+004,-2.18152937697680e+001,-3.89397315615768e-001

2.53151318794055e+004,-2.18152972974916e+001,-3.94832681113541e-001

2.56685179512580e+004,-2.18153009242846e+001,-4.00343903739339e-001

2.60268371088386e+004,-2.18153046529260e+001,-4.05932041667047e-001

2.63901582154578e+004,-2.18153084862728e+001,-4.11598167809487e-001

2.67585510957221e+004,-2.18153124272616e+001,-4.17343370025796e-001

2.71320865489533e+004,-2.18153164789116e+001,-4.23168751324363e-001

2.75108363627948e+004,-2.18153206443258e+001,-4.29075430076655e-001

2.78948733270080e+004,-2.18153249266948e+001,-4.35064540227523e-001

2.82842712474618e+004,-2.18153293292978e+001,-4.41137231511687e-001

2.86791049603164e+004,-2.18153338555061e+001,-4.47294669673927e-001

2.90794503464061e+004,-2.18153385087850e+001,-4.53538036689158e-001

2.94853843458219e+004,-2.18153432926969e+001,-4.59868530987026e-001

2.98969849726987e+004,-2.18153482109036e+001,-4.66287367681804e-001

3.03143313302078e+004,-2.18153532671693e+001,-4.72795778801745e-001

3.07375036257601e+004,-2.18153584653634e+001,-4.79395013522019e-001

3.11665831864199e+004,-2.18153638094633e+001,-4.86086338405953e-001

3.16016524745350e+004,-2.18153693035578e+001,-4.92871037640381e-001

3.20427951035848e+004,-2.18153749518496e+001,-4.99750413283654e-001

3.24900958542493e+004,-2.18153807586587e+001,-5.06725785511326e-001

3.29436406907028e+004,-2.18153867284259e+001,-5.13798492864661e-001

3.34035167771346e+004,-2.18153928657159e+001,-5.20969892508227e-001

3.38698124945009e+004,-2.18153991752208e+001,-5.28241360482574e-001

3.43426174575100e+004,-2.18154056617636e+001,-5.35614291969828e-001

3.48220225318448e+004,-2.18154123303017e+001,-5.43090101554353e-001

3.53081198516260e+004,-2.18154191859309e+001,-5.50670223491235e-001

3.58010028371187e+004,-2.18154262338892e+001,-5.58356111978926e-001

3.63007662126863e+004,-2.18154334795602e+001,-5.66149241433817e-001

3.68075060249948e+004,-2.18154409284780e+001,-5.74051106768068e-001

3.73213196614721e+004,-2.18154485863306e+001,-5.82063223673028e-001

3.78423058690237e+004,-2.18154564589646e+001,-5.90187128905789e-001

3.83705647730104e+004,-2.18154645523891e+001,-5.98424380578907e-001

3.89061978964912e+004,-2.18154728727810e+001,-6.06776558453886e-001

3.94493081797342e+004,-2.18154814264888e+001,-6.15245264240167e-001

3.99999999999998e+004,-2.18154902200376e+001,-6.23832121897052e-001

4.05583791916010e+004,-2.18154992601341e+001,-6.32538777939207e-001

4.11245530662425e+004,-2.18155085536716e+001,-6.41366901746963e-001

4.16986304336447e+004,-2.18155181077349e+001,-6.50318185879511e-001

4.22807216224550e+004,-2.18155279296056e+001,-6.59394346396426e-001

4.28709385014515e+004,-2.18155380267679e+001,-6.68597123175822e-001

4.34693945010421e+004,-2.18155484069136e+001,-6.77928280245097e-001

4.40762046350642e+004,-2.18155590779482e+001,-6.87389606110785e-001

4.46914855228886e+004,-2.18155700479964e+001,-6.96982914093044e-001

4.53153554118317e+004,-2.18155813254085e+001,-7.06710042667612e-001

4.59479341998812e+004,-2.18155929187664e+001,-7.16572855809413e-001

4.65893434587380e+004,-2.18156048368897e+001,-7.26573243341418e-001

4.72397064571810e+004,-2.18156170888427e+001,-7.36713121288715e-001

4.78991481847569e+004,-2.18156296839404e+001,-7.46994432238018e-001

4.85677953758016e+004,-2.18156426317561e+001,-7.57419145697166e-001

4.92457765337964e+004,-2.18156559421279e+001,-7.67989258466772e-001

4.99332219560642e+004,-2.18156696251661e+001,-7.78706795010747e-001

5.06302637588109e+004,-2.18156836912604e+001,-7.89573807834697e-001

5.13370359025159e+004,-2.18156981510879e+001,-8.00592377866817e-001

5.20536742176771e+004,-2.18157130156205e+001,-8.11764614846890e-001

5.27803164309155e+004,-2.18157282961332e+001,-8.23092657717666e-001

5.35171021914442e+004,-2.18157440042122e+001,-8.34578675022150e-001

5.42641730979066e+004,-2.18157601517629e+001,-8.46224865307450e-001

5.50216727255895e+004,-2.18157767510197e+001,-8.58033457529455e-001

5.57897466540159e+004,-2.18157938145533e+001,-8.70006711470402e-001

5.65685424949235e+004,-2.18158113552811e+001,-8.82146918152774e-001

5.73582099206328e+004,-2.18158293864757e+001,-8.94456400265861e-001

5.81589006928121e+004,-2.18158479217752e+001,-9.06937512592069e-001

5.89707686916437e+004,-2.18158669751921e+001,-9.19592642444665e-001

5.97939699453972e+004,-2.18158865611243e+001,-9.32424210105463e-001

6.06286626604156e+004,-2.18159066943648e+001,-9.45434669270852e-001

6.14750072515201e+004,-2.18159273901124e+001,-9.58626507503025e-001

6.23331663728396e+004,-2.18159486639827e+001,-9.72002246687919e-001

6.32033049490698e+004,-2.18159705320191e+001,-9.85564443496360e-001

6.40855902071694e+004,-2.18159930107044e+001,-9.99315689852491e-001

6.49801917084985e+004,-2.18160161169723e+001,-1.01325861341004e+000

6.58872813814055e+004,-2.18160398682191e+001,-1.02739587803071e+000

6.68070335542691e+004,-2.18160642823168e+001,-1.04173018427035e+000

6.77396249890018e+004,-2.18160893776247e+001,-1.05626426987280e+000

6.86852349150199e+004,-2.18161151730032e+001,-1.07100091026575e+000

6.96440450636895e+004,-2.18161416878265e+001,-1.08594291906756e+000

7.06162397032520e+004,-2.18161689419960e+001,-1.10109314859613e+000

7.16020056742374e+004,-2.18161969559547e+001,-1.11645449038671e+000

7.26015324253724e+004,-2.18162257507011e+001,-1.13202987571445e+000

7.36150120499896e+004,-2.18162553478037e+001,-1.14782227612460e+000

7.46426393229441e+004,-2.18162857694159e+001,-1.16383470396807e+000

7.56846117380472e+004,-2.18163170382915e+001,-1.18007021294290e+000

7.67411295460207e+004,-2.18163491778001e+001,-1.19653189864493e+000

7.78123957929823e+004,-2.18163822119433e+001,-1.21322289912219e+000

7.88986163594682e+004,-2.18164161653706e+001,-1.23014639543688e+000

7.99999999999995e+004,-2.18164510633971e+001,-1.24730561223425e+000

8.11167583832018e+004,-2.18164869320193e+001,-1.26470381831885e+000

8.22491061324848e+004,-2.18165237979342e+001,-1.28234432723467e+000

8.33972608672892e+004,-2.18165616885559e+001,-1.30023049785758e+000

8.45614432449099e+004,-2.18166006320348e+001,-1.31836573498766e+000

8.57418770029029e+004,-2.18166406572761e+001,-1.33675348995475e+000

8.69387890020841e+004,-2.18166817939588e+001,-1.35539726122717e+000

8.81524092701283e+004,-2.18167240725562e+001,-1.37430059502784e+000

8.93829710457770e+004,-2.18167675243548e+001,-1.39346708596013e+000

9.06307108236633e+004,-2.18168121814755e+001,-1.41290037763773e+000

9.18958683997622e+004,-2.18168580768948e+001,-1.43260416332245e+000

9.31786869174758e+004,-2.18169052444658e+001,-1.45258218657042e+000

9.44794129143618e+004,-2.18169537189401e+001,-1.47283824188499e+000

9.57982963695136e+004,-2.18170035359904e+001,-1.49337617537585e+000

9.71355907516031e+004,-2.18170547322336e+001,-1.51419988542675e+000

9.84915530675926e+004,-2.18171073452533e+001,-1.53531332337086e+000

9.98664439121282e+004,-2.18171614136245e+001,-1.55672049417202e+000

1.01260527517622e+005,-2.18172169769375e+001,-1.57842545711444e+000

1.02674071805032e+005,-2.18172740758227e+001,-1.60043232650039e+000

1.04107348435354e+005,-2.18173327519761e+001,-1.62274527235463e+000

1.05560632861831e+005,-2.18173930481849e+001,-1.64536852113685e+000

1.07034204382888e+005,-2.18174550083541e+001,-1.66830635646092e+000

1.08528346195813e+005,-2.18175186775332e+001,-1.69156311982351e+000

1.10043345451179e+005,-2.18175841019434e+001,-1.71514321133928e+000

1.11579493308032e+005,-2.18176513290058e+001,-1.73905109048323e+000

1.13137084989847e+005,-2.18177204073697e+001,-1.76329127684255e+000

1.14716419841265e+005,-2.18177913869415e+001,-1.78786835087456e+000

1.16317801385624e+005,-2.18178643189141e+001,-1.81278695467405e+000

1.17941537383287e+005,-2.18179392557970e+001,-1.83805179274736e+000

1.19587939890794e+005,-2.18180162514470e+001,-1.86366763279508e+000

1.21257325320831e+005,-2.18180953610988e+001,-1.88963930650272e+000

1.22950014503040e+005,-2.18181766413970e+001,-1.91597171033963e+000

1.24666332745679e+005,-2.18182601504282e+001,-1.94266980636415e+000

1.26406609898139e+005,-2.18183459477531e+001,-1.96973862304091e+000

1.28171180414339e+005,-2.18184340944405e+001,-1.99718325606142e+000

1.29960383416997e+005,-2.18185246531003e+001,-2.02500886917650e+000

1.31774562762811e+005,-2.18186176879180e+001,-2.05322069503655e+000

1.33614067108538e+005,-2.18187132646894e+001,-2.08182403603700e+000

1.35479249978003e+005,-2.18188114508559e+001,-2.11082426517735e+000

1.37370469830040e+005,-2.18189123155398e+001,-2.14022682692438e+000

1.39288090127379e+005,-2.18190159295812e+001,-2.17003723808493e+000

1.41232479406504e+005,-2.18191223655742e+001,-2.20026108868829e+000

1.43204011348474e+005,-2.18192316979039e+001,-2.23090404287757e+000

1.45203064850745e+005,-2.18193440027848e+001,-2.26197183980651e+000

1.47230024099979e+005,-2.18194593582981e+001,-2.29347029454983e+000

1.49285278645888e+005,-2.18195778444306e+001,-2.32540529901788e+000

1.51369223476094e+005,-2.18196995431139e+001,-2.35778282288399e+000

1.53482259092041e+005,-2.18198245382630e+001,-2.39060891451878e+000

1.55624791585964e+005,-2.18199529158171e+001,-2.42388970193321e+000

1.57797232718936e+005,-2.18200847637788e+001,-2.45763139373295e+000

1.59999999999999e+005,-2.18202201722552e+001,-2.49184028008128e+000

1.62233516766403e+005,-2.18203592334986e+001,-2.52652273366970e+000

1.64498212264969e+005,-2.18205020419476e+001,-2.56168521070092e+000

1.66794521734578e+005,-2.18206486942689e+001,-2.59733425188026e+000

1.69122886489819e+005,-2.18207992893985e+001,-2.63347648341756e+000

1.71483754005805e+005,-2.18209539285843e+001,-2.67011861803798e+000

1.73877578004168e+005,-2.18211127154279e+001,-2.70726745600539e+000

1.76304818540256e+005,-2.18212757559275e+001,-2.74492988615377e+000

1.78765942091554e+005,-2.18214431585201e+001,-2.78311288693189e+000

1.81261421647326e+005,-2.18216150341247e+001,-2.82182352745686e+000

1.83791736799524e+005,-2.18217914961846e+001,-2.86106896858064e+000

1.86357373834951e+005,-2.18219726607113e+001,-2.90085646396573e+000

1.88958825828723e+005,-2.18221586463266e+001,-2.94119336117615e+000

1.91596592739027e+005,-2.18223495743065e+001,-2.98208710277810e+000

1.94271181503206e+005,-2.18225455686234e+001,-3.02354522745283e+000

1.96983106135185e+005,-2.18227467559902e+001,-3.06557537112412e+000

1.99732887824256e+005,-2.18229532659023e+001,-3.10818526809822e+000

2.02521055035243e+005,-2.18231652306811e+001,-3.15138275221639e+000

2.05348143610063e+005,-2.18233827855163e+001,-3.19517575802388e+000

2.08214696870707e+005,-2.18236060685087e+001,-3.23957232195079e+000

2.11121265723661e+005,-2.18238352207125e+001,-3.28458058351050e+000

2.14068408765776e+005,-2.18240703861774e+001,-3.33020878651166e+000

2.17056692391625e+005,-2.18243117119903e+001,-3.37646528028789e+000

2.20086690902357e+005,-2.18245593483169e+001,-3.42335852094366e+000

2.23158986616063e+005,-2.18248134484429e+001,-3.47089707261770e+000

2.26274169979693e+005,-2.18250741688149e+001,-3.51908960876382e+000

2.29432839682530e+005,-2.18253416690805e+001,-3.56794491345238e+000

2.32635602771247e+005,-2.18256161121289e+001,-3.61747188268943e+000

2.35883074766574e+005,-2.18258976641295e+001,-3.66767952575810e+000

2.39175879781588e+005,-2.18261864945722e+001,-3.71857696657876e+000

2.42514650641661e+005,-2.18264827763049e+001,-3.77017344509469e+000

2.45900029006080e+005,-2.18267866855724e+001,-3.82247831867726e+000

2.49332665491357e+005,-2.18270984020537e+001,-3.87550106355860e+000

2.52813219796278e+005,-2.18274181088992e+001,-3.92925127628636e+000

2.56342360828676e+005,-2.18277459927671e+001,-3.98373867520730e+000

2.59920766833993e+005,-2.18280822438599e+001,-4.03897310197567e+000

2.63549125525621e+005,-2.18284270559601e+001,-4.09496452309207e+000

2.67228134217075e+005,-2.18287806264649e+001,-4.15172303147104e+000

2.70958499956006e+005,-2.18291431564214e+001,-4.20925884803981e+000

2.74740939660078e+005,-2.18295148505605e+001,-4.26758232336936e+000

2.78576180254757e+005,-2.18298959173319e+001,-4.32670393933862e+000

2.82464958813007e+005,-2.18302865689366e+001,-4.38663431083468e+000

2.86408022696948e+005,-2.18306870213613e+001,-4.44738418748830e+000

2.90406129701488e+005,-2.18310974944115e+001,-4.50896445544782e+000

2.94460048199957e+005,-2.18315182117450e+001,-4.57138613919338e+000

2.98570557291775e+005,-2.18319494009048e+001,-4.63466040339030e+000

3.02738446952187e+005,-2.18323912933534e+001,-4.69879855478677e+000

3.06964518184081e+005,-2.18328441245058e+001,-4.76381204415500e+000

3.11249583171928e+005,-2.18333081337646e+001,-4.82971246827784e+000

3.15594465437872e+005,-2.18337835645546e+001,-4.89651157198392e+000

3.19999999999997e+005,-2.18342706643584e+001,-4.96422125023102e+000

3.24467033532806e+005,-2.18347696847531e+001,-5.03285355024118e+000

3.28996424529938e+005,-2.18352808814488e+001,-5.10242067368716e+000

3.33589043469155e+005,-2.18358045143271e+001,-5.17293497893495e+000

3.38245772979638e+005,-2.18363408474827e+001,-5.24440898334048e+000

3.42967508011610e+005,-2.18368901492665e+001,-5.31685536560475e+000

3.47755156008335e+005,-2.18374526923305e+001,-5.39028696818896e+000

3.52609637080511e+005,-2.18380287536762e+001,-5.46471679978873e+000

3.57531884183106e+005,-2.18386186147050e+001,-5.54015803787230e+000

3.62522843294651e+005,-2.18392225612728e+001,-5.61662403128253e+000

3.67583473599047e+005,-2.18398408837474e+001,-5.69412830290282e+000

3.72714747669902e+005,-2.18404738770703e+001,-5.77268455239235e+000

3.77917651657445e+005,-2.18411218408239e+001,-5.85230665898710e+000

3.83193185478053e+005,-2.18417850793020e+001,-5.93300868437146e+000

3.88542363006410e+005,-2.18424639015869e+001,-6.01480487561943e+000

3.93966212270369e+005,-2.18431586216326e+001,-6.09770966820827e+000

3.99465775648511e+005,-2.18438695583534e+001,-6.18173768910304e+000

4.05042110070485e+005,-2.18445970357205e+001,-6.26690375991514e+000

4.10696287220124e+005,-2.18453413828658e+001,-6.35322290013350e+000

4.16429393741414e+005,-2.18461029341939e+001,-6.44071033043007e+000

4.22242531447321e+005,-2.18468820295025e+001,-6.52938147603875e+000

4.28136817531551e+005,-2.18476790141128e+001,-6.61925197020947e+000

4.34113384783250e+005,-2.18484942390096e+001,-6.71033765773465e+000

4.40173381804713e+005,-2.18493280609918e+001,-6.80265459854930e+000

4.46317973232124e+005,-2.18501808428345e+001,-6.89621907140518e+000

4.52548339959385e+005,-2.18510529534632e+001,-6.99104757761459e+000

4.58865679365059e+005,-2.18519447681404e+001,-7.08715684486647e+000

4.65271205542494e+005,-2.18528566686655e+001,-7.18456383111081e+000

4.71766149533147e+005,-2.18537890435891e+001,-7.28328572851084e+000

4.78351759563174e+005,-2.18547422884416e+001,-7.38333996746109e+000

4.85029301283321e+005,-2.18557168059777e+001,-7.48474422066798e+000

4.91800058012158e+005,-2.18567130064367e+001,-7.58751640729210e+000

4.98665330982714e+005,-2.18577313078194e+001,-7.69167469714764e+000

5.05626439592555e+005,-2.18587721361831e+001,-7.79723751495751e+000

5.12684721657352e+005,-2.18598359259541e+001,-7.90422354465894e+000

5.19841533667984e+005,-2.18609231202594e+001,-8.01265173375755e+000

5.27098251051240e+005,-2.18620341712775e+001,-8.12254129772509e+000

5.34456268434150e+005,-2.18631695406093e+001,-8.23391172443631e+000

5.41916999912011e+005,-2.18643296996696e+001,-8.34678277864116e+000

