Freq.,VOut,OutRef

1.00000000000000e+004,-5.07310308456999e+000,-9.62504337453917e-003

1.01395947979003e+004,-5.07310309318465e+000,-9.75940317665374e-003

1.02811382665607e+004,-5.07310310204164e+000,-9.89563853664315e-003

1.04246576084112e+004,-5.07310311114784e+000,-1.00337756338966e-002

1.05701804056138e+004,-5.07310312050938e+000,-1.01738410202352e-002

1.07177346253629e+004,-5.07310313013435e+000,-1.03158616059166e-002

1.08673486252606e+004,-5.07310314002923e+000,-1.04598646889353e-002

1.10190511587661e+004,-5.07310315020287e+000,-1.06058779337893e-002

1.11728713807222e+004,-5.07310316066215e+000,-1.07539294056833e-002

1.13288388529580e+004,-5.07310317141561e+000,-1.09040475523977e-002

1.14869835499703e+004,-5.07310318247077e+000,-1.10562612260641e-002

1.16473358646846e+004,-5.07310319383700e+000,-1.12105996717765e-002

1.18099266142953e+004,-5.07310320552212e+000,-1.13670925535790e-002

1.19747870461893e+004,-5.07310321753597e+000,-1.15257699389426e-002

1.21419488439505e+004,-5.07310322988735e+000,-1.16866623226538e-002

1.23114441334492e+004,-5.07310324258593e+000,-1.18498006211353e-002

1.24833054890161e+004,-5.07310325564132e+000,-1.20152161849893e-002

1.26575659397028e+004,-5.07310326906329e+000,-1.21829408026072e-002

1.28342589756290e+004,-5.07310328286262e+000,-1.23530067012366e-002

1.30134185544193e+004,-5.07310329704941e+000,-1.25254465645090e-002

1.31950791077289e+004,-5.07310331163496e+000,-1.27002935259304e-002

1.33792755478611e+004,-5.07310332663036e+000,-1.28775811850835e-002

1.35660432744767e+004,-5.07310334204678e+000,-1.30573436120728e-002

1.37554181813974e+004,-5.07310335789669e+000,-1.32396153452924e-002

1.39474366635040e+004,-5.07310337419181e+000,-1.34244314136783e-002

1.41421356237309e+004,-5.07310339094481e+000,-1.36118273295595e-002

1.43395524801583e+004,-5.07310340816819e+000,-1.38018391048848e-002

1.45397251732031e+004,-5.07310342587607e+000,-1.39945032457701e-002

1.47426921729110e+004,-5.07310344408058e+000,-1.41898567838452e-002

1.49484924863494e+004,-5.07310346279718e+000,-1.43879372469783e-002

1.51571656651040e+004,-5.07310348203920e+000,-1.45887827044532e-002

1.53687518128801e+004,-5.07310350182195e+000,-1.47924317455677e-002

1.55832915932100e+004,-5.07310352215996e+000,-1.49989235065020e-002

1.58008262372675e+004,-5.07310354306986e+000,-1.52082976583114e-002

1.60213975517924e+004,-5.07310356456663e+000,-1.54205944393591e-002

1.62450479271247e+004,-5.07310358666715e+000,-1.56358546401138e-002

1.64718203453514e+004,-5.07310360938888e+000,-1.58541196191837e-002

1.67017583885674e+004,-5.07310363274846e+000,-1.60754313209015e-002

1.69349062472505e+004,-5.07310365676447e+000,-1.62998322653884e-002

1.71713087287550e+004,-5.07310368145480e+000,-1.65273655741493e-002

1.74110112659224e+004,-5.07310370683861e+000,-1.67580749648022e-002

1.76540599258131e+004,-5.07310373293472e+000,-1.69920047708326e-002

1.79005014185594e+004,-5.07310375976428e+000,-1.72291999331638e-002

1.81503831063432e+004,-5.07310378734743e+000,-1.74697060293861e-002

1.84037530124975e+004,-5.07310381570476e+000,-1.77135692743912e-002

1.86606598307361e+004,-5.07310384485822e+000,-1.79608365220340e-002

1.89211529345119e+004,-5.07310387483059e+000,-1.82115552790196e-002

1.91852823865052e+004,-5.07310390564471e+000,-1.84657737188926e-002

1.94530989482457e+004,-5.07310393732363e+000,-1.87235406890846e-002

1.97246540898671e+004,-5.07310396989195e+000,-1.89849057138142e-002

1.99999999999999e+004,-5.07310400337499e+000,-1.92499190071244e-002

2.02791895958005e+004,-5.07310403779750e+000,-1.95186314921506e-002

2.05622765331213e+004,-5.07310407318697e+000,-1.97910947895222e-002

2.08493152168224e+004,-5.07310410956982e+000,-2.00673612512606e-002

2.11403608112276e+004,-5.07310414697348e+000,-2.03474839586608e-002

2.14354692507258e+004,-5.07310418542745e+000,-2.06315167242041e-002

2.17346972505211e+004,-5.07310422496064e+000,-2.09195141210966e-002

2.20381023175322e+004,-5.07310426560366e+000,-2.12115314770740e-002

2.23457427614443e+004,-5.07310430738667e+000,-2.15076249014307e-002

2.26576777059159e+004,-5.07310435034289e+000,-2.18078512703070e-002

2.29739670999406e+004,-5.07310439450420e+000,-2.21122682686042e-002

2.32946717293690e+004,-5.07310443990546e+000,-2.24209343725411e-002

2.36198532285905e+004,-5.07310448657976e+000,-2.27339088910320e-002

2.39495740923785e+004,-5.07310453456440e+000,-2.30512519393883e-002

2.42838976879009e+004,-5.07310458389513e+000,-2.33730244881963e-002

2.46228882668982e+004,-5.07310463460970e+000,-2.36992883512378e-002

2.49666109780322e+004,-5.07310468674680e+000,-2.40301062060667e-002

2.53151318794055e+004,-5.07310474034660e+000,-2.43655416013772e-002

2.56685179512580e+004,-5.07310479545001e+000,-2.47056589739166e-002

2.60268371088386e+004,-5.07310485209920e+000,-2.50505236591160e-002

2.63901582154578e+004,-5.07310491033715e+000,-2.54002019056795e-002

2.67585510957221e+004,-5.07310497020791e+000,-2.57547608866712e-002

2.71320865489533e+004,-5.07310503175801e+000,-2.61142687036494e-002

2.75108363627948e+004,-5.07310509503383e+000,-2.64787944178429e-002

2.78948733270080e+004,-5.07310516008414e+000,-2.68484080454148e-002

2.82842712474618e+004,-5.07310522695790e+000,-2.72231805870346e-002

2.86791049603164e+004,-5.07310529570667e+000,-2.76031840246072e-002

2.90794503464061e+004,-5.07310536638257e+000,-2.79884913498016e-002

2.94853843458219e+004,-5.07310543903959e+000,-2.83791765690491e-002

2.98969849726987e+004,-5.07310551373277e+000,-2.87753147230874e-002

3.03143313302078e+004,-5.07310559051926e+000,-2.91769818956757e-002

3.07375036257601e+004,-5.07310566945773e+000,-2.95842552308698e-002

3.11665831864199e+004,-5.07310575060812e+000,-2.99972129507207e-002

3.16016524745350e+004,-5.07310583403205e+000,-3.04159343675819e-002

3.20427951035848e+004,-5.07310591979306e+000,-3.08404998979242e-002

3.24900958542493e+004,-5.07310600795625e+000,-3.12709910800511e-002

3.29436406907028e+004,-5.07310609858895e+000,-3.17074905862859e-002

3.34035167771346e+004,-5.07310619175988e+000,-3.21500822437399e-002

3.38698124945009e+004,-5.07310628754022e+000,-3.25988510447796e-002

3.43426174575100e+004,-5.07310638600215e+000,-3.30538831715444e-002

3.48220225318448e+004,-5.07310648722062e+000,-3.35152660031365e-002

3.53081198516260e+004,-5.07310659127282e+000,-3.39830881340830e-002

3.58010028371187e+004,-5.07310669823758e+000,-3.44574393974354e-002

3.63007662126863e+004,-5.07310680819567e+000,-3.49384108785417e-002

3.68075060249948e+004,-5.07310692123084e+000,-3.54260949273415e-002

3.73213196614721e+004,-5.07310703742863e+000,-3.59205851833722e-002

3.78423058690237e+004,-5.07310715687730e+000,-3.64219765888158e-002

3.83705647730104e+004,-5.07310727966709e+000,-3.69303654104083e-002

3.89061978964912e+004,-5.07310740589114e+000,-3.74458492537639e-002

3.94493081797342e+004,-5.07310753564490e+000,-3.79685270854973e-002

3.99999999999998e+004,-5.07310766902639e+000,-3.84984992501874e-002

4.05583791916010e+004,-5.07310780613690e+000,-3.90358674869552e-002

4.11245530662425e+004,-5.07310794707967e+000,-3.95807349564157e-002

4.16986304336447e+004,-5.07310809196106e+000,-4.01332062541224e-002

4.22807216224550e+004,-5.07310824089078e+000,-4.06933874287068e-002

4.28709385014515e+004,-5.07310839398133e+000,-4.12613860075023e-002

4.34693945010421e+004,-5.07310855134786e+000,-4.18373110161440e-002

4.40762046350642e+004,-5.07310871310915e+000,-4.24212729960344e-002

4.46914855228886e+004,-5.07310887938723e+000,-4.30133840266383e-002

4.53153554118317e+004,-5.07310905030681e+000,-4.36137577515061e-002

4.59479341998812e+004,-5.07310922599709e+000,-4.42225093890070e-002

4.65893434587380e+004,-5.07310940658980e+000,-4.48397557670343e-002

4.72397064571810e+004,-5.07310959222124e+000,-4.54656153329147e-002

4.78991481847569e+004,-5.07310978303033e+000,-4.61002081886910e-002

4.85677953758016e+004,-5.07310997916060e+000,-4.67436561022354e-002

4.92457765337964e+004,-5.07311018075893e+000,-4.73960825385898e-002

4.99332219560642e+004,-5.07311038797649e+000,-4.80576126784585e-002

5.06302637588109e+004,-5.07311060096889e+000,-4.87283734409534e-002

5.13370359025159e+004,-5.07311081989528e+000,-4.94084935146916e-002

5.20536742176771e+004,-5.07311104491930e+000,-5.00981033768691e-002

5.27803164309155e+004,-5.07311127620974e+000,-5.07973353135153e-002

5.35171021914442e+004,-5.07311151393860e+000,-5.15063234587574e-002

5.42641730979066e+004,-5.07311175828377e+000,-5.22252038033844e-002

5.50216727255895e+004,-5.07311200942732e+000,-5.29541142319005e-002

5.57897466540159e+004,-5.07311226755613e+000,-5.36931945455907e-002

5.65685424949235e+004,-5.07311253286262e+000,-5.44425864852410e-002

5.73582099206328e+004,-5.07311280554408e+000,-5.52024337630997e-002

5.81589006928121e+004,-5.07311308580329e+000,-5.59728820858995e-002

5.89707686916437e+004,-5.07311337384774e+000,-5.67540791896406e-002

5.97939699453972e+004,-5.07311366989124e+000,-5.75461748564738e-002

6.06286626604156e+004,-5.07311397415345e+000,-5.83493209484769e-002

6.14750072515201e+004,-5.07311428685896e+000,-5.91636714415538e-002

6.23331663728396e+004,-5.07311460823917e+000,-5.99893824437401e-002

6.32033049490698e+004,-5.07311493853127e+000,-6.08266122326078e-002

6.40855902071694e+004,-5.07311527797900e+000,-6.16755212809752e-002

6.49801917084985e+004,-5.07311562683249e+000,-6.25362722882478e-002

6.58872813814055e+004,-5.07311598534808e+000,-6.34090302138993e-002

6.68070335542691e+004,-5.07311635378954e+000,-6.42939623017872e-002

6.77396249890018e+004,-5.07311673242704e+000,-6.51912381185318e-002

6.86852349150199e+004,-5.07311712153792e+000,-6.61010295815976e-002

6.96440450636895e+004,-5.07311752140743e+000,-6.70235109887032e-002

7.06162397032520e+004,-5.07311793232763e+000,-6.79588590570452e-002

7.16020056742374e+004,-5.07311835459821e+000,-6.89072529536821e-002

7.26015324253724e+004,-5.07311878852724e+000,-6.98688743246916e-002

7.36150120499896e+004,-5.07311923443036e+000,-7.08439073353159e-002

7.46426393229441e+004,-5.07311969263134e+000,-7.18325387025517e-002

7.56846117380472e+004,-5.07312016346277e+000,-7.28349577263352e-002

7.67411295460207e+004,-5.07312064726547e+000,-7.38513563299907e-002

7.78123957929823e+004,-5.07312114438912e+000,-7.48819290932239e-002

7.88986163594682e+004,-5.07312165519261e+000,-7.59268732867245e-002

7.99999999999995e+004,-5.07312218004374e+000,-7.69863889138100e-002

8.11167583832018e+004,-5.07312271932015e+000,-7.80606787407648e-002

8.22491061324848e+004,-5.07312327340839e+000,-7.91499483433486e-002

8.33972608672892e+004,-5.07312384270568e+000,-8.02544061345075e-002

8.45614432449099e+004,-5.07312442761877e+000,-8.13742634115084e-002

8.57418770029029e+004,-5.07312502856483e+000,-8.25097343912646e-002

8.69387890020841e+004,-5.07312564597177e+000,-8.36610362486801e-002

8.81524092701283e+004,-5.07312628027799e+000,-8.48283891600419e-002

8.93829710457770e+004,-5.07312693193265e+000,-8.60120163441929e-002

9.06307108236633e+004,-5.07312760139686e+000,-8.72121440965258e-002

9.18958683997622e+004,-5.07312828914237e+000,-8.84290018406589e-002

9.31786869174758e+004,-5.07312899565302e+000,-8.96628221637643e-002

9.44794129143618e+004,-5.07312972142470e+000,-9.09138408601828e-002

9.57982963695136e+004,-5.07313046696541e+000,-9.21822969766486e-002

9.71355907516031e+004,-5.07313123279534e+000,-9.34684328560598e-002

9.84915530675926e+004,-5.07313201944746e+000,-9.47724941814390e-002

9.98664439121282e+004,-5.07313282746758e+000,-9.60947300204901e-002

1.01260527517622e+005,-5.07313365741518e+000,-9.74353928681476e-002

1.02674071805032e+005,-5.07313450986242e+000,-9.87947387009524e-002

1.04107348435354e+005,-5.07313538539600e+000,-1.00173027012626e-001

1.05560632861831e+005,-5.07313628461561e+000,-1.01570520873585e-001

1.07034204382888e+005,-5.07313720813591e+000,-1.02987486967435e-001

1.08528346195813e+005,-5.07313815658577e+000,-1.04424195646304e-001

1.10043345451179e+005,-5.07313913060835e+000,-1.05880920980311e-001

1.11579493308032e+005,-5.07314013086252e+000,-1.07357940800654e-001

1.13137084989847e+005,-5.07314115802191e+000,-1.08855536757191e-001

1.14716419841265e+005,-5.07314221277576e+000,-1.10373994365451e-001

1.16317801385624e+005,-5.07314329582854e+000,-1.11913603062703e-001

1.17941537383287e+005,-5.07314440790149e+000,-1.13474656251102e-001

1.19587939890794e+005,-5.07314554973167e+000,-1.15057451359382e-001

1.21257325320831e+005,-5.07314672207262e+000,-1.16662289892410e-001

1.22950014503040e+005,-5.07314792569427e+000,-1.18289477488180e-001

1.24666332745679e+005,-5.07314916138408e+000,-1.19939323967133e-001

1.26406609898139e+005,-5.07315042994618e+000,-1.21612143393850e-001

1.28171180414339e+005,-5.07315173220197e+000,-1.23308254131330e-001

1.29960383416997e+005,-5.07315306899143e+000,-1.25027978891586e-001

1.31774562762811e+005,-5.07315444117085e+000,-1.26771644807169e-001

1.33614067108538e+005,-5.07315584961556e+000,-1.28539583475298e-001

1.35479249978003e+005,-5.07315729521892e+000,-1.30332131023629e-001

1.37370469830040e+005,-5.07315877889248e+000,-1.32149628170515e-001

1.39288090127379e+005,-5.07316030156614e+000,-1.33992420285123e-001

1.41232479406504e+005,-5.07316186418892e+000,-1.35860857444905e-001

1.43204011348474e+005,-5.07316346772860e+000,-1.37755294501617e-001

1.45203064850745e+005,-5.07316511317171e+000,-1.39676091143992e-001

1.47230024099979e+005,-5.07316680152386e+000,-1.41623611960165e-001

1.49285278645888e+005,-5.07316853380997e+000,-1.43598226501537e-001

1.51369223476094e+005,-5.07317031107447e+000,-1.45600309346879e-001

1.53482259092041e+005,-5.07317213438061e+000,-1.47630240173036e-001

1.55624791585964e+005,-5.07317400481147e+000,-1.49688403815887e-001

1.57797232718936e+005,-5.07317592346893e+000,-1.51775190344000e-001

1.59999999999999e+005,-5.07317789147505e+000,-1.53890995118543e-001

1.62233516766403e+005,-5.07317990997055e+000,-1.56036218872865e-001

1.64498212264969e+005,-5.07318198011587e+000,-1.58211267773702e-001

1.66794521734578e+005,-5.07318410309032e+000,-1.60416553499166e-001

1.69122886489819e+005,-5.07318628009269e+000,-1.62652493304905e-001

1.71483754005805e+005,-5.07318851234046e+000,-1.64919510100863e-001

1.73877578004168e+005,-5.07319080107008e+000,-1.67218032522978e-001

1.76304818540256e+005,-5.07319314753622e+000,-1.69548495011261e-001

1.78765942091554e+005,-5.07319555301226e+000,-1.71911337879357e-001

1.81261421647326e+005,-5.07319801878928e+000,-1.74307007397672e-001

1.83791736799524e+005,-5.07320054617628e+000,-1.76735955866329e-001

1.86357373834951e+005,-5.07320313649926e+000,-1.79198641697620e-001

1.88958825828723e+005,-5.07320579110139e+000,-1.81695529492076e-001

1.91596592739027e+005,-5.07320851134197e+000,-1.84227090122281e-001

1.94271181503206e+005,-5.07321129859635e+000,-1.86793800812411e-001

1.96983106135185e+005,-5.07321415425523e+000,-1.89396145222047e-001

1.99732887824256e+005,-5.07321707972376e+000,-1.92034613531127e-001

2.02521055035243e+005,-5.07322007642096e+000,-1.94709702525248e-001

2.05348143610063e+005,-5.07322314577948e+000,-1.97421915678994e-001

2.08214696870707e+005,-5.07322628924364e+000,-2.00171763248826e-001

2.11121265723661e+005,-5.07322950827012e+000,-2.02959762354975e-001

2.14068408765776e+005,-5.07323280432545e+000,-2.05786437078791e-001

2.17056692391625e+005,-5.07323617888567e+000,-2.08652318550893e-001

2.20086690902357e+005,-5.07323963343565e+000,-2.11557945040896e-001

2.23158986616063e+005,-5.07324316946712e+000,-2.14503862056682e-001

2.26274169979693e+005,-5.07324678847793e+000,-2.17490622436758e-001

2.29432839682530e+005,-5.07325049197014e+000,-2.20518786449856e-001

2.32635602771247e+005,-5.07325428144964e+000,-2.23588921887439e-001

2.35883074766574e+005,-5.07325815842306e+000,-2.26701604173323e-001

2.39175879781588e+005,-5.07326212439807e+000,-2.29857416452755e-001

2.42514650641661e+005,-5.07326618087976e+000,-2.33056949707785e-001

2.45900029006080e+005,-5.07327032937022e+000,-2.36300802853151e-001

2.49332665491357e+005,-5.07327457136596e+000,-2.39589582846663e-001

2.52813219796278e+005,-5.07327890835621e+000,-2.42923904796160e-001

2.56342360828676e+005,-5.07328334182049e+000,-2.46304392070037e-001

2.59920766833993e+005,-5.07328787322674e+000,-2.49731676408642e-001

2.63549125525621e+005,-5.07329250402868e+000,-2.53206398037615e-001

2.67228134217075e+005,-5.07329723566387e+000,-2.56729205782576e-001

2.70958499956006e+005,-5.07330206955038e+000,-2.60300757191070e-001

2.74740939660078e+005,-5.07330700708493e+000,-2.63921718645820e-001

2.78576180254757e+005,-5.07331204963954e+000,-2.67592765491873e-001

2.82464958813007e+005,-5.07331719855917e+000,-2.71314582157011e-001

2.86408022696948e+005,-5.07332245515792e+000,-2.75087862281977e-001

2.90406129701488e+005,-5.07332782071682e+000,-2.78913308844624e-001

2.94460048199957e+005,-5.07333329648015e+000,-2.82791634293135e-001

2.98570557291775e+005,-5.07333888365183e+000,-2.86723560681357e-001

3.02738446952187e+005,-5.07334458339238e+000,-2.90709819801712e-001

3.06964518184081e+005,-5.07335039681543e+000,-2.94751153324123e-001

3.11249583171928e+005,-5.07335632498323e+000,-2.98848312941654e-001

3.15594465437872e+005,-5.07336236890401e+000,-3.03002060507427e-001

3.19999999999997e+005,-5.07336852952678e+000,-3.07213168190030e-001

3.24467033532806e+005,-5.07337480773866e+000,-3.11482418614961e-001

3.28996424529938e+005,-5.07338120435930e+000,-3.15810605026267e-001

3.33589043469155e+005,-5.07338772013800e+000,-3.20198531434204e-001

3.38245772979638e+005,-5.07339435574847e+000,-3.24647012781323e-001

3.42967508011610e+005,-5.07340111178480e+000,-3.29156875100835e-001

3.47755156008335e+005,-5.07340798875689e+000,-3.33728955684407e-001

3.52609637080511e+005,-5.07341498708558e+000,-3.38364103252446e-001

3.57531884183106e+005,-5.07342210709881e+000,-3.43063178121714e-001

3.62522843294651e+005,-5.07342934902577e+000,-3.47827052389953e-001

3.67583473599047e+005,-5.07343671299313e+000,-3.52656610108247e-001

3.72714747669902e+005,-5.07344419901955e+000,-3.57552747469618e-001

3.77917651657445e+005,-5.07345180701104e+000,-3.62516372994932e-001

3.83193185478053e+005,-5.07345953675612e+000,-3.67548407725122e-001

3.88542363006410e+005,-5.07346738792086e+000,-3.72649785415436e-001

3.93966212270369e+005,-5.07347536004391e+000,-3.77821452735911e-001

3.99465775648511e+005,-5.07348345253128e+000,-3.83064369477293e-001

4.05042110070485e+005,-5.07349166465230e+000,-3.88379508752741e-001

4.10696287220124e+005,-5.07349999553347e+000,-3.93767857217562e-001

4.16429393741414e+005,-5.07350844415475e+000,-3.99230415279599e-001

4.22242531447321e+005,-5.07351700934417e+000,-4.04768197322321e-001

4.28136817531551e+005,-5.07352568977326e+000,-4.10382231929205e-001

4.34113384783250e+005,-5.07353448395200e+000,-4.16073562116361e-001

4.40173381804713e+005,-5.07354339022510e+000,-4.21843245560308e-001

4.46317973232124e+005,-5.07355240676669e+000,-4.27692354842459e-001

4.52548339959385e+005,-5.07356153157655e+000,-4.33621977687617e-001

4.58865679365059e+005,-5.07357076247575e+000,-4.39633217214593e-001

4.65271205542494e+005,-5.07358009710259e+000,-4.45727192186065e-001

4.71766149533147e+005,-5.07358953290869e+000,-4.51905037266570e-001

4.78351759563174e+005,-5.07359906715541e+000,-4.58167903283370e-001

4.85029301283321e+005,-5.07360869691073e+000,-4.64516957489129e-001

4.91800058012158e+005,-5.07361841904533e+000,-4.70953383836739e-001

4.98665330982714e+005,-5.07362823022995e+000,-4.77478383251108e-001

5.05626439592555e+005,-5.07363812693293e+000,-4.84093173906690e-001

5.12684721657352e+005,-5.07364810541685e+000,-4.90798991516115e-001

5.19841533667984e+005,-5.07365816173736e+000,-4.97597089610928e-001

5.27098251051240e+005,-5.07366829174053e+000,-5.04488739838535e-001

5.34456268434150e+005,-5.07367849106125e+000,-5.11475232257838e-001

5.41916999912011e+005,-5.07368875512238e+000,-5.18557875636827e-001

