Freq.,VOut,OutRef

1.00000000000000e+004,-2.15026270256914e+001,-3.91613984889866e-001

1.01395947979003e+004,-2.15026292644458e+001,-3.97080637815665e-001

1.02811382665607e+004,-2.15026315661343e+001,-4.02623599205446e-001

1.04246576084112e+004,-2.15026339325258e+001,-4.08243934151735e-001

1.05701804056138e+004,-2.15026363654391e+001,-4.13942722609117e-001

1.07177346253629e+004,-2.15026388667440e+001,-4.19721059601189e-001

1.08673486252606e+004,-2.15026414383627e+001,-4.25580055432330e-001

1.10190511587661e+004,-2.15026440822719e+001,-4.31520835898349e-001

1.11728713807222e+004,-2.15026468005032e+001,-4.37544542505290e-001

1.13288388529580e+004,-2.15026495951456e+001,-4.43652332686683e-001

1.14869835499703e+004,-2.15026524683471e+001,-4.49845380025067e-001

1.16473358646846e+004,-2.15026554223156e+001,-4.56124874478847e-001

1.18099266142953e+004,-2.15026584593212e+001,-4.62492022609160e-001

1.19747870461893e+004,-2.15026615816978e+001,-4.68948047812227e-001

1.21419488439505e+004,-2.15026647918450e+001,-4.75494190553244e-001

1.23114441334492e+004,-2.15026680922296e+001,-4.82131708604284e-001

1.24833054890161e+004,-2.15026714853878e+001,-4.88861877287564e-001

1.26575659397028e+004,-2.15026749739273e+001,-4.95685989715635e-001

1.28342589756290e+004,-2.15026785605287e+001,-5.02605357044639e-001

1.30134185544193e+004,-2.15026822479481e+001,-5.09621308721239e-001

1.31950791077289e+004,-2.15026860390191e+001,-5.16735192740438e-001

1.33792755478611e+004,-2.15026899366546e+001,-5.23948375903170e-001

1.35660432744767e+004,-2.15026939438499e+001,-5.31262244077117e-001

1.37554181813974e+004,-2.15026980636839e+001,-5.38678202463620e-001

1.39474366635040e+004,-2.15027022993224e+001,-5.46197675867470e-001

1.41421356237309e+004,-2.15027066540198e+001,-5.53822108969127e-001

1.43395524801583e+004,-2.15027111311222e+001,-5.61552966601545e-001

1.45397251732031e+004,-2.15027157340696e+001,-5.69391734031270e-001

1.47426921729110e+004,-2.15027204663986e+001,-5.77339917242902e-001

1.49484924863494e+004,-2.15027253317453e+001,-5.85399043227402e-001

1.51571656651040e+004,-2.15027303338477e+001,-5.93570660275399e-001

1.53687518128801e+004,-2.15027354765491e+001,-6.01856338273132e-001

1.55832915932100e+004,-2.15027407638004e+001,-6.10257669003509e-001

1.58008262372675e+004,-2.15027461996639e+001,-6.18776266450474e-001

1.60213975517924e+004,-2.15027517883158e+001,-6.27413767108491e-001

1.62450479271247e+004,-2.15027575340493e+001,-6.36171830297242e-001

1.64718203453514e+004,-2.15027634412788e+001,-6.45052138475758e-001

1.67017583885674e+004,-2.15027695145423e+001,-6.54056397568557e-001

1.69349062472505e+004,-2.15027757585052e+001,-6.63186337290594e-001

1.71713087287550e+004,-2.15027821779640e+001,-6.72443711477694e-001

1.74110112659224e+004,-2.15027887778502e+001,-6.81830298422633e-001

1.76540599258131e+004,-2.15027955632334e+001,-6.91347901216335e-001

1.79005014185594e+004,-2.15028025393257e+001,-7.00998348091846e-001

1.81503831063432e+004,-2.15028097114857e+001,-7.10783492774720e-001

1.84037530124975e+004,-2.15028170852222e+001,-7.20705214837668e-001

1.86606598307361e+004,-2.15028246661991e+001,-7.30765420059411e-001

1.89211529345119e+004,-2.15028324602388e+001,-7.40966040790193e-001

1.91852823865052e+004,-2.15028404733277e+001,-7.51309036320825e-001

1.94530989482457e+004,-2.15028487116201e+001,-7.61796393256587e-001

1.97246540898671e+004,-2.15028571814427e+001,-7.72430125899157e-001

1.99999999999999e+004,-2.15028658893006e+001,-7.83212276628421e-001

2.02791895958005e+004,-2.15028748418807e+001,-7.94144916296254e-001

2.05622765331213e+004,-2.15028840460584e+001,-8.05230144619895e-001

2.08493152168224e+004,-2.15028935089014e+001,-8.16470090583808e-001

2.11403608112276e+004,-2.15029032376764e+001,-8.27866912846420e-001

2.14354692507258e+004,-2.15029132398535e+001,-8.39422800153345e-001

2.17346972505211e+004,-2.15029235231130e+001,-8.51139971753153e-001

2.20381023175322e+004,-2.15029340953504e+001,-8.63020677823654e-001

2.23457427614443e+004,-2.15029449646829e+001,-8.75067199899489e-001

2.26576777059159e+004,-2.15029561394556e+001,-8.87281851308293e-001

2.29739670999406e+004,-2.15029676282478e+001,-8.99666977612367e-001

2.32946717293690e+004,-2.15029794398794e+001,-9.12224957056196e-001

2.36198532285905e+004,-2.15029915834177e+001,-9.24958201019858e-001

2.39495740923785e+004,-2.15030040681847e+001,-9.37869154478742e-001

2.42838976879009e+004,-2.15030169037639e+001,-9.50960296469878e-001

2.46228882668982e+004,-2.15030301000073e+001,-9.64234140564999e-001

2.49666109780322e+004,-2.15030436670438e+001,-9.77693235348407e-001

2.53151318794055e+004,-2.15030576152862e+001,-9.91340164903667e-001

2.56685179512580e+004,-2.15030719554393e+001,-1.00517754930584e+000

2.60268371088386e+004,-2.15030866985082e+001,-1.01920804511978e+000

2.63901582154578e+004,-2.15031018558068e+001,-1.03343434590601e+000

2.67585510957221e+004,-2.15031174389663e+001,-1.04785918273367e+000

2.71320865489533e+004,-2.15031334599437e+001,-1.06248532470123e+000

2.75108363627948e+004,-2.15031499310318e+001,-1.07731557946118e+000

2.78948733270080e+004,-2.15031668648677e+001,-1.09235279375523e+000

2.82842712474618e+004,-2.15031842744430e+001,-1.10759985395615e+000

2.86791049603164e+004,-2.15032021731134e+001,-1.12305968661528e+000

2.90794503464061e+004,-2.15032205746091e+001,-1.13873525901876e+000

2.94853843458219e+004,-2.15032394930451e+001,-1.15462957975236e+000

2.98969849726987e+004,-2.15032589429320e+001,-1.17074569927083e+000

3.03143313302078e+004,-2.15032789391871e+001,-1.18708671047865e+000

3.07375036257601e+004,-2.15032994971458e+001,-1.20365574931645e+000

3.11665831864199e+004,-2.15033206325729e+001,-1.22045599535578e+000

3.16016524745350e+004,-2.15033423616754e+001,-1.23749067240160e+000

3.20427951035848e+004,-2.15033647011139e+001,-1.25476304910440e+000

3.24900958542493e+004,-2.15033876680159e+001,-1.27227643957870e+000

3.29436406907028e+004,-2.15034112799885e+001,-1.29003420403122e+000

3.34035167771346e+004,-2.15034355551322e+001,-1.30803974939668e+000

3.38698124945009e+004,-2.15034605120541e+001,-1.32629652998351e+000

3.43426174575100e+004,-2.15034861698824e+001,-1.34480804812554e+000

3.48220225318448e+004,-2.15035125482809e+001,-1.36357785484667e+000

3.53081198516260e+004,-2.15035396674637e+001,-1.38260955052960e+000

3.58010028371187e+004,-2.15035675482110e+001,-1.40190678559759e+000

3.63007662126863e+004,-2.15035962118843e+001,-1.42147326120301e+000

3.68075060249948e+004,-2.15036256804430e+001,-1.44131272992652e+000

3.73213196614721e+004,-2.15036559764610e+001,-1.46142899648458e+000

3.78423058690237e+004,-2.15036871231436e+001,-1.48182591844610e+000

3.83705647730104e+004,-2.15037191443453e+001,-1.50250740696092e+000

3.89061978964912e+004,-2.15037520645878e+001,-1.52347742749421e+000

3.94493081797342e+004,-2.15037859090784e+001,-1.54474000057572e+000

3.99999999999998e+004,-2.15038207037293e+001,-1.56629920255347e+000

4.05583791916010e+004,-2.15038564751774e+001,-1.58815916636158e+000

4.11245530662425e+004,-2.15038932508035e+001,-1.61032408229659e+000

4.16986304336447e+004,-2.15039310587543e+001,-1.63279819880371e+000

4.22807216224550e+004,-2.15039699279627e+001,-1.65558582327472e+000

4.28709385014515e+004,-2.15040098881697e+001,-1.67869132285585e+000

4.34693945010421e+004,-2.15040509699475e+001,-1.70211912526561e+000

4.40762046350642e+004,-2.15040932047218e+001,-1.72587371962396e+000

4.46914855228886e+004,-2.15041366247960e+001,-1.74995965729275e+000

4.53153554118317e+004,-2.15041812633752e+001,-1.77438155272633e+000

4.59479341998812e+004,-2.15042271545914e+001,-1.79914408433508e+000

4.65893434587380e+004,-2.15042743335292e+001,-1.82425199535663e+000

4.72397064571810e+004,-2.15043228362519e+001,-1.84971009474262e+000

4.78991481847569e+004,-2.15043726998288e+001,-1.87552325805482e+000

4.85677953758016e+004,-2.15044239623633e+001,-1.90169642837177e+000

4.92457765337964e+004,-2.15044766630208e+001,-1.92823461721100e+000

4.99332219560642e+004,-2.15045308420588e+001,-1.95514290545850e+000

5.06302637588109e+004,-2.15045865408568e+001,-1.98242644431352e+000

5.13370359025159e+004,-2.15046438019470e+001,-2.01009045624439e+000

5.20536742176771e+004,-2.15047026690464e+001,-2.03814023595705e+000

5.27803164309155e+004,-2.15047631870898e+001,-2.06658115137399e+000

5.35171021914442e+004,-2.15048254022628e+001,-2.09541864463031e+000

5.42641730979066e+004,-2.15048893620364e+001,-2.12465823307658e+000

5.50216727255895e+004,-2.15049551152029e+001,-2.15430551029917e+000

5.57897466540159e+004,-2.15050227119117e+001,-2.18436614715140e+000

5.65685424949235e+004,-2.15050922037067e+001,-2.21484589279814e+000

5.73582099206328e+004,-2.15051636435653e+001,-2.24575057577311e+000

5.81589006928121e+004,-2.15052370859368e+001,-2.27708610505078e+000

5.89707686916437e+004,-2.15053125867837e+001,-2.30885847113031e+000

5.97939699453972e+004,-2.15053902036226e+001,-2.34107374713408e+000

6.06286626604156e+004,-2.15054699955675e+001,-2.37373808991882e+000

6.14750072515201e+004,-2.15055520233726e+001,-2.40685774120253e+000

6.23331663728396e+004,-2.15056363494785e+001,-2.44043902870180e+000

6.32033049490698e+004,-2.15057230380571e+001,-2.47448836728836e+000

6.40855902071694e+004,-2.15058121550600e+001,-2.50901226015415e+000

6.49801917084985e+004,-2.15059037682664e+001,-2.54401729999523e+000

6.58872813814055e+004,-2.15059979473333e+001,-2.57951017020781e+000

6.68070335542691e+004,-2.15060947638470e+001,-2.61549764609948e+000

6.77396249890018e+004,-2.15061942913751e+001,-2.65198659611468e+000

6.86852349150199e+004,-2.15062966055211e+001,-2.68898398307573e+000

6.96440450636895e+004,-2.15064017839794e+001,-2.72649686543852e+000

7.06162397032520e+004,-2.15065099065924e+001,-2.76453239856211e+000

7.16020056742374e+004,-2.15066210554086e+001,-2.80309783599562e+000

7.26015324253724e+004,-2.15067353147428e+001,-2.84220053077841e+000

7.36150120499896e+004,-2.15068527712373e+001,-2.88184793675695e+000

7.46426393229441e+004,-2.15069735139253e+001,-2.92204760991574e+000

7.56846117380472e+004,-2.15070976342951e+001,-2.96280720972559e+000

7.67411295460207e+004,-2.15072252263569e+001,-3.00413450050595e+000

7.78123957929823e+004,-2.15073563867106e+001,-3.04603735280423e+000

7.88986163594682e+004,-2.15074912146161e+001,-3.08852374478985e+000

7.99999999999995e+004,-2.15076298120645e+001,-3.13160176366529e+000

8.11167583832018e+004,-2.15077722838518e+001,-3.17527960709268e+000

8.22491061324848e+004,-2.15079187376545e+001,-3.21956558463633e+000

8.33972608672892e+004,-2.15080692841065e+001,-3.26446811922195e+000

8.45614432449099e+004,-2.15082240368790e+001,-3.30999574861194e+000

8.57418770029029e+004,-2.15083831127611e+001,-3.35615712689726e+000

8.69387890020841e+004,-2.15085466317441e+001,-3.40296102600480e+000

8.81524092701283e+004,-2.15087147171061e+001,-3.45041633722309e+000

8.93829710457770e+004,-2.15088874955005e+001,-3.49853207274262e+000

9.06307108236633e+004,-2.15090650970452e+001,-3.54731736721421e+000

9.18958683997622e+004,-2.15092476554152e+001,-3.59678147932309e+000

9.31786869174758e+004,-2.15094353079369e+001,-3.64693379338086e+000

9.44794129143618e+004,-2.15096281956850e+001,-3.69778382093271e+000

9.57982963695136e+004,-2.15098264635817e+001,-3.74934120238312e+000

9.71355907516031e+004,-2.15100302604982e+001,-3.80161570863705e+000

9.84915530675926e+004,-2.15102397393592e+001,-3.85461724275826e+000

9.98664439121282e+004,-2.15104550572494e+001,-3.90835584164611e+000

1.01260527517622e+005,-2.15106763755232e+001,-3.96284167772669e+000

1.02674071805032e+005,-2.15109038599166e+001,-4.01808506066241e+000

1.04107348435354e+005,-2.15111376806617e+001,-4.07409643907900e+000

1.05560632861831e+005,-2.15113780126049e+001,-4.13088640230834e+000

1.07034204382888e+005,-2.15116250353267e+001,-4.18846568214836e+000

1.08528346195813e+005,-2.15118789332657e+001,-4.24684515464044e+000

1.10043345451179e+005,-2.15121398958439e+001,-4.30603584186320e+000

1.11579493308032e+005,-2.15124081175972e+001,-4.36604891374339e+000

1.13137084989847e+005,-2.15126837983066e+001,-4.42689568988342e+000

1.14716419841265e+005,-2.15129671431345e+001,-4.48858764140559e+000

1.16317801385624e+005,-2.15132583627630e+001,-4.55113639281366e+000

1.17941537383287e+005,-2.15135576735360e+001,-4.61455372386978e+000

1.19587939890794e+005,-2.15138652976041e+001,-4.67885157148985e+000

1.21257325320831e+005,-2.15141814630736e+001,-4.74404203165312e+000

1.22950014503040e+005,-2.15145064041583e+001,-4.81013736133029e+000

1.24666332745679e+005,-2.15148403613350e+001,-4.87714998042688e+000

1.26406609898139e+005,-2.15151835815026e+001,-4.94509247374273e+000

1.28171180414339e+005,-2.15155363181450e+001,-5.01397759294805e+000

1.29960383416997e+005,-2.15158988314968e+001,-5.08381825857585e+000

1.31774562762811e+005,-2.15162713887140e+001,-5.15462756202840e+000

1.33614067108538e+005,-2.15166542640476e+001,-5.22641876760200e+000

1.35479249978003e+005,-2.15170477390213e+001,-5.29920531452539e+000

1.37370469830040e+005,-2.15174521026131e+001,-5.37300081901447e+000

1.39288090127379e+005,-2.15178676514408e+001,-5.44781907634215e+000

1.41232479406504e+005,-2.15182946899521e+001,-5.52367406292331e+000

1.43204011348474e+005,-2.15187335306176e+001,-5.60057993841441e+000

1.45203064850745e+005,-2.15191844941293e+001,-5.67855104782863e+000

1.47230024099979e+005,-2.15196479096021e+001,-5.75760192366447e+000

1.49285278645888e+005,-2.15201241147807e+001,-5.83774728805025e+000

1.51369223476094e+005,-2.15206134562501e+001,-5.91900205490099e+000

1.53482259092041e+005,-2.15211162896504e+001,-6.00138133209088e+000

1.55624791585964e+005,-2.15216329798969e+001,-6.08490042363853e+000

1.57797232718936e+005,-2.15221639014035e+001,-6.16957483190623e+000

1.59999999999999e+005,-2.15227094383116e+001,-6.25542025981256e+000

1.62233516766403e+005,-2.15232699847235e+001,-6.34245261305711e+000

1.64498212264969e+005,-2.15238459449398e+001,-6.43068800236027e+000

1.66794521734578e+005,-2.15244377337028e+001,-6.52014274571329e+000

1.69122886489819e+005,-2.15250457764427e+001,-6.61083337064193e+000

1.71483754005805e+005,-2.15256705095313e+001,-6.70277661648246e+000

1.73877578004168e+005,-2.15263123805379e+001,-6.79598943666907e+000

1.76304818540256e+005,-2.15269718484921e+001,-6.89048900103280e+000

1.78765942091554e+005,-2.15276493841506e+001,-6.98629269811314e+000

1.81261421647326e+005,-2.15283454702695e+001,-7.08341813747910e+000

1.83791736799524e+005,-2.15290606018815e+001,-7.18188315206283e+000

1.86357373834951e+005,-2.15297952865781e+001,-7.28170580050305e+000

1.88958825828723e+005,-2.15305500447977e+001,-7.38290436949937e+000

1.91596592739027e+005,-2.15313254101179e+001,-7.48549737617697e+000

1.94271181503206e+005,-2.15321219295541e+001,-7.58950357046132e+000

1.96983106135185e+005,-2.15329401638628e+001,-7.69494193746269e+000

1.99732887824256e+005,-2.15337806878510e+001,-7.80183169987077e+000

2.02521055035243e+005,-2.15346440906900e+001,-7.91019232035798e+000

2.05348143610063e+005,-2.15355309762358e+001,-8.02004350399331e+000

2.08214696870707e+005,-2.15364419633547e+001,-8.13140520066431e+000

2.11121265723661e+005,-2.15373776862542e+001,-8.24429760750863e+000

2.14068408765776e+005,-2.15383387948201e+001,-8.35874117135460e+000

2.17056692391625e+005,-2.15393259549589e+001,-8.47475659116981e+000

2.20086690902357e+005,-2.15403398489465e+001,-8.59236482051923e+000

2.23158986616063e+005,-2.15413811757825e+001,-8.71158707003176e+000

2.26274169979693e+005,-2.15424506515502e+001,-8.83244480987437e+000

2.29432839682530e+005,-2.15435490097833e+001,-8.95495977223623e+000

2.32635602771247e+005,-2.15446770018378e+001,-9.07915395381983e+000

2.35883074766574e+005,-2.15458353972711e+001,-9.20504961834150e+000

2.39175879781588e+005,-2.15470249842265e+001,-9.33266929903938e+000

2.42514650641661e+005,-2.15482465698242e+001,-9.46203580119045e+000

2.45900029006080e+005,-2.15495009805595e+001,-9.59317220463620e+000

2.49332665491357e+005,-2.15507890627064e+001,-9.72610186631557e+000

2.52813219796278e+005,-2.15521116827286e+001,-9.86084842280825e+000

2.56342360828676e+005,-2.15534697276974e+001,-9.99743579288441e+000

2.59920766833993e+005,-2.15548641057160e+001,-1.01358881800651e+001

2.63549125525621e+005,-2.15562957463509e+001,-1.02762300751903e+001

2.67228134217075e+005,-2.15577656010710e+001,-1.04184862589961e+001

2.70958499956006e+005,-2.15592746436939e+001,-1.05626818047005e+001

2.74740939660078e+005,-2.15608238708389e+001,-1.07088420805998e+001

2.78576180254757e+005,-2.15624143023893e+001,-1.08569927526721e+001

2.82464958813007e+005,-2.15640469819612e+001,-1.10071597871915e+001

2.86408022696948e+005,-2.15657229773811e+001,-1.11593694533511e+001

2.90406129701488e+005,-2.15674433811719e+001,-1.13136483258957e+001

2.94460048199957e+005,-2.15692093110475e+001,-1.14700232877636e+001

2.98570557291775e+005,-2.15710219104159e+001,-1.16285215327386e+001

3.02738446952187e+005,-2.15728823488924e+001,-1.17891705681103e+001

3.06964518184081e+005,-2.15747918228209e+001,-1.19519982173443e+001

3.11249583171928e+005,-2.15767515558068e+001,-1.21170326227619e+001

3.15594465437872e+005,-2.15787627992582e+001,-1.22843022482277e+001

3.19999999999997e+005,-2.15808268329395e+001,-1.24538358818465e+001

3.24467033532806e+005,-2.15829449655341e+001,-1.26256626386682e+001

3.28996424529938e+005,-2.15851185352202e+001,-1.27998119634001e+001

3.33589043469155e+005,-2.15873489102570e+001,-1.29763136331256e+001

3.38245772979638e+005,-2.15896374895843e+001,-1.31551977600304e+001

3.42967508011610e+005,-2.15919857034336e+001,-1.33364947941323e+001

3.47755156008335e+005,-2.15943950139539e+001,-1.35202355260157e+001

3.52609637080511e+005,-2.15968669158502e+001,-1.37064510895683e+001

3.57531884183106e+005,-2.15994029370371e+001,-1.38951729647196e+001

3.62522843294651e+005,-2.16020046393063e+001,-1.40864329801773e+001

3.67583473599047e+005,-2.16046736190115e+001,-1.42802633161622e+001

3.72714747669902e+005,-2.16074115077673e+001,-1.44766965071369e+001

3.77917651657445e+005,-2.16102199731668e+001,-1.46757654445271e+001

3.83193185478053e+005,-2.16131007195156e+001,-1.48775033794320e+001

3.88542363006410e+005,-2.16160554885844e+001,-1.50819439253202e+001

3.93966212270369e+005,-2.16190860603803e+001,-1.52891210607088e+001

3.99465775648511e+005,-2.16221942539382e+001,-1.54990691318186e+001

4.05042110070485e+005,-2.16253819281318e+001,-1.57118228552054e+001

4.10696287220124e+005,-2.16286509825062e+001,-1.59274173203574e+001

4.16429393741414e+005,-2.16320033581322e+001,-1.61458879922573e+001

4.22242531447321e+005,-2.16354410384828e+001,-1.63672707139016e+001

4.28136817531551e+005,-2.16389660503337e+001,-1.65916017087697e+001

4.34113384783250e+005,-2.16425804646866e+001,-1.68189175832380e+001

4.40173381804713e+005,-2.16462863977183e+001,-1.70492553289293e+001

4.46317973232124e+005,-2.16500860117549e+001,-1.72826523249918e+001

4.52548339959385e+005,-2.16539815162710e+001,-1.75191463402964e+001

4.58865679365059e+005,-2.16579751689172e+001,-1.77587755355450e+001

4.65271205542494e+005,-2.16620692765734e+001,-1.80015784652791e+001

4.71766149533147e+005,-2.16662661964306e+001,-1.82475940797783e+001

4.78351759563174e+005,-2.16705683371005e+001,-1.84968617268374e+001

4.85029301283321e+005,-2.16749781597544e+001,-1.87494211534113e+001

4.91800058012158e+005,-2.16794981792904e+001,-1.90053125071130e+001

4.98665330982714e+005,-2.16841309655302e+001,-1.92645763375547e+001

5.05626439592555e+005,-2.16888791444452e+001,-1.95272535975149e+001

5.12684721657352e+005,-2.16937453994127e+001,-1.97933856439213e+001

5.19841533667984e+005,-2.16987324725010e+001,-2.00630142386300e+001

5.27098251051240e+005,-2.17038431657843e+001,-2.03361815489891e+001

5.34456268434150e+005,-2.17090803426868e+001,-2.06129301481692e+001

5.41916999912011e+005,-2.17144469293551e+001,-2.08933030152435e+001

