Freq.,VOut,OutRef

1.00000000000000e+004,-2.10269464713760e+001,-2.62467225141469e-001

1.01395947979003e+004,-2.10269475915350e+001,-2.66131090515757e-001

1.02811382665607e+004,-2.10269487431824e+001,-2.69846099822612e-001

1.04246576084112e+004,-2.10269499272029e+001,-2.73612966932757e-001

1.05701804056138e+004,-2.10269511445067e+001,-2.77432415676192e-001

1.07177346253629e+004,-2.10269523960292e+001,-2.81305179987136e-001

1.08673486252606e+004,-2.10269536827320e+001,-2.85232004040569e-001

1.10190511587661e+004,-2.10269550056041e+001,-2.89213642395303e-001

1.11728713807222e+004,-2.10269563656621e+001,-2.93250860140000e-001

1.13288388529580e+004,-2.10269577639509e+001,-2.97344433041484e-001

1.14869835499703e+004,-2.10269592015453e+001,-3.01495147689784e-001

1.16473358646846e+004,-2.10269606795497e+001,-3.05703801652623e-001

1.18099266142953e+004,-2.10269621991000e+001,-3.09971203626181e-001

1.19747870461893e+004,-2.10269637613640e+001,-3.14298173590490e-001

1.21419488439505e+004,-2.10269653675418e+001,-3.18685542970003e-001

1.23114441334492e+004,-2.10269670188678e+001,-3.23134154787792e-001

1.24833054890161e+004,-2.10269687166109e+001,-3.27644863830467e-001

1.26575659397028e+004,-2.10269704620754e+001,-3.32218536813264e-001

1.28342589756290e+004,-2.10269722566026e+001,-3.36856052543236e-001

1.30134185544193e+004,-2.10269741015712e+001,-3.41558302089576e-001

1.31950791077289e+004,-2.10269759983989e+001,-3.46326188954686e-001

1.33792755478611e+004,-2.10269779485430e+001,-3.51160629247247e-001

1.35660432744767e+004,-2.10269799535019e+001,-3.56062551856305e-001

1.37554181813974e+004,-2.10269820148158e+001,-3.61032898634221e-001

1.39474366635040e+004,-2.10269841340687e+001,-3.66072624569942e-001

1.41421356237309e+004,-2.10269863128885e+001,-3.71182697978412e-001

1.43395524801583e+004,-2.10269885529492e+001,-3.76364100684255e-001

1.45397251732031e+004,-2.10269908559717e+001,-3.81617828209088e-001

1.47426921729110e+004,-2.10269932237252e+001,-3.86944889962523e-001

1.49484924863494e+004,-2.10269956580287e+001,-3.92346309437750e-001

1.51571656651040e+004,-2.10269981607523e+001,-3.97823124404493e-001

1.53687518128801e+004,-2.10270007338184e+001,-4.03376387111471e-001

1.55832915932100e+004,-2.10270033792036e+001,-4.09007164484925e-001

1.58008262372675e+004,-2.10270060989400e+001,-4.14716538335317e-001

1.60213975517924e+004,-2.10270088951167e+001,-4.20505605562948e-001

1.62450479271247e+004,-2.10270117698813e+001,-4.26375478370511e-001

1.64718203453514e+004,-2.10270147254421e+001,-4.32327284473108e-001

1.67017583885674e+004,-2.10270177640692e+001,-4.38362167316426e-001

1.69349062472505e+004,-2.10270208880962e+001,-4.44481286296939e-001

1.71713087287550e+004,-2.10270240999227e+001,-4.50685816979636e-001

1.74110112659224e+004,-2.10270274020154e+001,-4.56976951327777e-001

1.76540599258131e+004,-2.10270307969102e+001,-4.63355897929317e-001

1.79005014185594e+004,-2.10270342872143e+001,-4.69823882227582e-001

1.81503831063432e+004,-2.10270378756081e+001,-4.76382146757929e-001

1.84037530124975e+004,-2.10270415648473e+001,-4.83031951383394e-001

1.86606598307361e+004,-2.10270453577647e+001,-4.89774573537913e-001

1.89211529345119e+004,-2.10270492572729e+001,-4.96611308469317e-001

1.91852823865052e+004,-2.10270532663662e+001,-5.03543469487936e-001

1.94530989482457e+004,-2.10270573881227e+001,-5.10572388218911e-001

1.97246540898671e+004,-2.10270616257072e+001,-5.17699414855334e-001

1.99999999999999e+004,-2.10270659823732e+001,-5.24925918416792e-001

2.02791895958005e+004,-2.10270704614656e+001,-5.32253287012964e-001

2.05622765331213e+004,-2.10270750664229e+001,-5.39682928107467e-001

2.08493152168224e+004,-2.10270798007802e+001,-5.47216268787789e-001

2.11403608112276e+004,-2.10270846681722e+001,-5.54854756037659e-001

2.14354692507258e+004,-2.10270896723349e+001,-5.62599857015208e-001

2.17346972505211e+004,-2.10270948171095e+001,-5.70453059331328e-001

2.20381023175322e+004,-2.10271001064450e+001,-5.78415871335853e-001

2.23457427614443e+004,-2.10271055444011e+001,-5.86489822404445e-001

2.26576777059159e+004,-2.10271111351513e+001,-5.94676463233303e-001

2.29739670999406e+004,-2.10271168829863e+001,-6.02977366132481e-001

2.32946717293690e+004,-2.10271227923170e+001,-6.11394125327258e-001

2.36198532285905e+004,-2.10271288676782e+001,-6.19928357264250e-001

2.39495740923785e+004,-2.10271351137317e+001,-6.28581700918145e-001

2.42838976879009e+004,-2.10271415352700e+001,-6.37355818105594e-001

2.46228882668982e+004,-2.10271481372203e+001,-6.46252393802296e-001

2.49666109780322e+004,-2.10271549246474e+001,-6.55273136465449e-001

2.53151318794055e+004,-2.10271619027587e+001,-6.64419778357847e-001

2.56685179512580e+004,-2.10271690769071e+001,-6.73694075880210e-001

2.60268371088386e+004,-2.10271764525959e+001,-6.83097809905358e-001

2.63901582154578e+004,-2.10271840354824e+001,-6.92632786119120e-001

2.67585510957221e+004,-2.10271918313824e+001,-7.02300835363243e-001

2.71320865489533e+004,-2.10271998462752e+001,-7.12103813983789e-001

2.75108363627948e+004,-2.10272080863070e+001,-7.22043604188251e-001

2.78948733270080e+004,-2.10272165577965e+001,-7.32122114401007e-001

2.82842712474618e+004,-2.10272252672395e+001,-7.42341279627524e-001

2.86791049603164e+004,-2.10272342213137e+001,-7.52703061825170e-001

2.90794503464061e+004,-2.10272434268838e+001,-7.63209450273246e-001

2.94853843458219e+004,-2.10272528910068e+001,-7.73862461954769e-001

2.98969849726987e+004,-2.10272626209373e+001,-7.84664141939260e-001

3.03143313302078e+004,-2.10272726241332e+001,-7.95616563770832e-001

3.07375036257601e+004,-2.10272829082610e+001,-8.06721829864785e-001

3.11665831864199e+004,-2.10272934812018e+001,-8.17982071905532e-001

3.16016524745350e+004,-2.10273043510577e+001,-8.29399451252701e-001

3.20427951035848e+004,-2.10273155261571e+001,-8.40976159352572e-001

3.24900958542493e+004,-2.10273270150618e+001,-8.52714418151972e-001

3.29436406907028e+004,-2.10273388265729e+001,-8.64616480524527e-001

3.34035167771346e+004,-2.10273509697380e+001,-8.76684630693928e-001

3.38698124945009e+004,-2.10273634538576e+001,-8.88921184670483e-001

3.43426174575100e+004,-2.10273762884925e+001,-9.01328490689400e-001

3.48220225318448e+004,-2.10273894834708e+001,-9.13908929656612e-001

3.53081198516260e+004,-2.10274030488954e+001,-9.26664915599785e-001

3.58010028371187e+004,-2.10274169951517e+001,-9.39598896127170e-001

3.63007662126863e+004,-2.10274313329154e+001,-9.52713352889038e-001

3.68075060249948e+004,-2.10274460731604e+001,-9.66010802050019e-001

3.73213196614721e+004,-2.10274612271678e+001,-9.79493794763769e-001

3.78423058690237e+004,-2.10274768065332e+001,-9.93164917657126e-001

3.83705647730104e+004,-2.10274928231766e+001,-1.00702679331832e+000

3.89061978964912e+004,-2.10275092893507e+001,-1.02108208079325e+000

3.94493081797342e+004,-2.10275262176506e+001,-1.03533347608800e+000

3.99999999999998e+004,-2.10275436210227e+001,-1.04978371267894e+000

4.05583791916010e+004,-2.10275615127751e+001,-1.06443556202716e+000

4.11245530662425e+004,-2.10275799065871e+001,-1.07929183410270e+000

4.16986304336447e+004,-2.10275988165199e+001,-1.09435537791379e+000

4.22807216224550e+004,-2.10276182570268e+001,-1.10962908204587e+000

4.28709385014515e+004,-2.10276382429644e+001,-1.12511587520313e+000

4.34693945010421e+004,-2.10276587896032e+001,-1.14081872676214e+000

4.40762046350642e+004,-2.10276799126399e+001,-1.15674064732966e+000

4.46914855228886e+004,-2.10277016282084e+001,-1.17288468931001e+000

4.53153554118317e+004,-2.10277239528923e+001,-1.18925394747729e+000

4.59479341998812e+004,-2.10277469037371e+001,-1.20585155955932e+000

4.65893434587380e+004,-2.10277704982631e+001,-1.22268070682369e+000

4.72397064571810e+004,-2.10277947544786e+001,-1.23974461467737e+000

4.78991481847569e+004,-2.10278196908927e+001,-1.25704655327138e+000

4.85677953758016e+004,-2.10278453265303e+001,-1.27458983811096e+000

4.92457765337964e+004,-2.10278716809449e+001,-1.29237783068002e+000

4.99332219560642e+004,-2.10278987742342e+001,-1.31041393906817e+000

5.06302637588109e+004,-2.10279266270548e+001,-1.32870161860776e+000

5.13370359025159e+004,-2.10279552606372e+001,-1.34724437252151e+000

5.20536742176771e+004,-2.10279846968021e+001,-1.36604575257455e+000

5.27803164309155e+004,-2.10280149579761e+001,-1.38510935973843e+000

5.35171021914442e+004,-2.10280460672087e+001,-1.40443884486140e+000

5.42641730979066e+004,-2.10280780481892e+001,-1.42403790934955e+000

5.50216727255895e+004,-2.10281109252644e+001,-1.44391030585526e+000

5.57897466540159e+004,-2.10281447234561e+001,-1.46405983897478e+000

5.65685424949235e+004,-2.10281794684805e+001,-1.48449036595499e+000

5.73582099206328e+004,-2.10282151867661e+001,-1.50520579740951e+000

5.81589006928121e+004,-2.10282519054740e+001,-1.52621009804411e+000

5.89707686916437e+004,-2.10282896525173e+001,-1.54750728739156e+000

5.97939699453972e+004,-2.10283284565821e+001,-1.56910144055413e+000

6.06286626604156e+004,-2.10283683471484e+001,-1.59099668895832e+000

6.14750072515201e+004,-2.10284093545113e+001,-1.61319722111740e+000

6.23331663728396e+004,-2.10284515098039e+001,-1.63570728340399e+000

6.32033049490698e+004,-2.10284948450193e+001,-1.65853118083381e+000

6.40855902071694e+004,-2.10285393930348e+001,-1.68167327785569e+000

6.49801917084985e+004,-2.10285851876351e+001,-1.70513799915723e+000

6.58872813814055e+004,-2.10286322635372e+001,-1.72892983047433e+000

6.68070335542691e+004,-2.10286806564158e+001,-1.75305331941652e+000

6.77396249890018e+004,-2.10287304029290e+001,-1.77751307629827e+000

6.86852349150199e+004,-2.10287815407446e+001,-1.80231377498363e+000

6.96440450636895e+004,-2.10288341085682e+001,-1.82746015373970e+000

7.06162397032520e+004,-2.10288881461700e+001,-1.85295701610148e+000

7.16020056742374e+004,-2.10289436944144e+001,-1.87880923174713e+000

7.26015324253724e+004,-2.10290007952891e+001,-1.90502173738403e+000

7.36150120499896e+004,-2.10290594919350e+001,-1.93159953764604e+000

7.46426393229441e+004,-2.10291198286775e+001,-1.95854770600173e+000

7.56846117380472e+004,-2.10291818510580e+001,-1.98587138567245e+000

7.67411295460207e+004,-2.10292456058666e+001,-2.01357579056403e+000

7.78123957929823e+004,-2.10293111411753e+001,-2.04166620620739e+000

7.88986163594682e+004,-2.10293785063721e+001,-2.07014799071189e+000

7.99999999999995e+004,-2.10294477521964e+001,-2.09902657572977e+000

8.11167583832018e+004,-2.10295189307744e+001,-2.12830746743189e+000

8.22491061324848e+004,-2.10295920956567e+001,-2.15799624749551e+000

8.33972608672892e+004,-2.10296673018551e+001,-2.18809857410442e+000

8.45614432449099e+004,-2.10297446058822e+001,-2.21862018295866e+000

8.57418770029029e+004,-2.10298240657901e+001,-2.24956688829929e+000

8.69387890020841e+004,-2.10299057412119e+001,-2.28094458394227e+000

8.81524092701283e+004,-2.10299896934030e+001,-2.31275924432695e+000

8.93829710457770e+004,-2.10300759852832e+001,-2.34501692557462e+000

9.06307108236633e+004,-2.10301646814814e+001,-2.37772376656033e+000

9.18958683997622e+004,-2.10302558483794e+001,-2.41088598999775e+000

9.31786869174758e+004,-2.10303495541583e+001,-2.44450990353540e+000

9.44794129143618e+004,-2.10304458688451e+001,-2.47860190086479e+000

9.57982963695136e+004,-2.10305448643609e+001,-2.51316846284377e+000

9.71355907516031e+004,-2.10306466145701e+001,-2.54821615863002e+000

9.84915530675926e+004,-2.10307511953306e+001,-2.58375164682759e+000

9.98664439121282e+004,-2.10308586845454e+001,-2.61978167664859e+000

1.01260527517622e+005,-2.10309691622156e+001,-2.65631308908425e+000

1.02674071805032e+005,-2.10310827104942e+001,-2.69335281809177e+000

1.04107348435354e+005,-2.10311994137411e+001,-2.73090789179345e+000

1.05560632861831e+005,-2.10313193585801e+001,-2.76898543368789e+000

1.07034204382888e+005,-2.10314426339565e+001,-2.80759266387607e+000

1.08528346195813e+005,-2.10315693311961e+001,-2.84673690029946e+000

1.10043345451179e+005,-2.10316995440661e+001,-2.88642555999233e+000

1.11579493308032e+005,-2.10318333688366e+001,-2.92666616034603e+000

1.13137084989847e+005,-2.10319709043438e+001,-2.96746632038887e+000

1.14716419841265e+005,-2.10321122520552e+001,-3.00883376207728e+000

1.16317801385624e+005,-2.10322575161351e+001,-3.05077631160265e+000

1.17941537383287e+005,-2.10324068035125e+001,-3.09330190070980e+000

1.19587939890794e+005,-2.10325602239501e+001,-3.13641856803102e+000

1.21257325320831e+005,-2.10327178901145e+001,-3.18013446043227e+000

1.22950014503040e+005,-2.10328799176490e+001,-3.22445783437430e+000

1.24666332745679e+005,-2.10330464252463e+001,-3.26939705728693e+000

1.26406609898139e+005,-2.10332175347242e+001,-3.31496060895801e+000

1.28171180414339e+005,-2.10333933711024e+001,-3.36115708293525e+000

1.29960383416997e+005,-2.10335740626806e+001,-3.40799518794358e+000

1.31774562762811e+005,-2.10337597411185e+001,-3.45548374931521e+000

1.33614067108538e+005,-2.10339505415173e+001,-3.50363171043452e+000

1.35479249978003e+005,-2.10341466025035e+001,-3.55244813419710e+000

1.37370469830040e+005,-2.10343480663131e+001,-3.60194220448273e+000

1.39288090127379e+005,-2.10345550788789e+001,-3.65212322764343e+000

1.41232479406504e+005,-2.10347677899184e+001,-3.70300063400531e+000

1.43204011348474e+005,-2.10349863530242e+001,-3.75458397938477e+000

1.45203064850745e+005,-2.10352109257557e+001,-3.80688294661911e+000

1.47230024099979e+005,-2.10354416697327e+001,-3.85990734711296e+000

1.49285278645888e+005,-2.10356787507308e+001,-3.91366712239750e+000

1.51369223476094e+005,-2.10359223387786e+001,-3.96817234570608e+000

1.53482259092041e+005,-2.10361726082567e+001,-4.02343322356355e+000

1.55624791585964e+005,-2.10364297379986e+001,-4.07946009739045e+000

1.57797232718936e+005,-2.10366939113929e+001,-4.13626344512374e+000

1.59999999999999e+005,-2.10369653164884e+001,-4.19385388285062e+000

1.62233516766403e+005,-2.10372441461002e+001,-4.25224216645840e+000

1.64498212264969e+005,-2.10375305979174e+001,-4.31143919330008e+000

1.66794521734578e+005,-2.10378248746141e+001,-4.37145600387512e+000

1.69122886489819e+005,-2.10381271839607e+001,-4.43230378352510e+000

1.71483754005805e+005,-2.10384377389379e+001,-4.49399386414600e+000

1.73877578004168e+005,-2.10387567578526e+001,-4.55653772591588e+000

1.76304818540256e+005,-2.10390844644555e+001,-4.61994699903893e+000

1.78765942091554e+005,-2.10394210880604e+001,-4.68423346550545e+000

1.81261421647326e+005,-2.10397668636663e+001,-4.74940906086817e+000

1.83791736799524e+005,-2.10401220320803e+001,-4.81548587603544e+000

1.86357373834951e+005,-2.10404868400433e+001,-4.88247615908140e+000

1.88958825828723e+005,-2.10408615403569e+001,-4.95039231707306e+000

1.91596592739027e+005,-2.10412463920131e+001,-5.01924691791440e+000

1.94271181503206e+005,-2.10416416603253e+001,-5.08905269220919e+000

1.96983106135185e+005,-2.10420476170614e+001,-5.15982253514071e+000

1.99732887824256e+005,-2.10424645405791e+001,-5.23156950836996e+000

2.02521055035243e+005,-2.10428927159627e+001,-5.30430684195387e+000

2.05348143610063e+005,-2.10433324351626e+001,-5.37804793628033e+000

2.08214696870707e+005,-2.10437839971358e+001,-5.45280636402471e+000

2.11121265723661e+005,-2.10442477079895e+001,-5.52859587212510e+000

2.14068408765776e+005,-2.10447238811257e+001,-5.60543038377863e+000

2.17056692391625e+005,-2.10452128373887e+001,-5.68332400045831e+000

2.20086690902357e+005,-2.10457149052138e+001,-5.76229100395150e+000

2.23158986616063e+005,-2.10462304207789e+001,-5.84234585842022e+000

2.26274169979693e+005,-2.10467597281575e+001,-5.92350321248459e+000

2.29432839682530e+005,-2.10473031794740e+001,-6.00577790132843e+000

2.32635602771247e+005,-2.10478611350614e+001,-6.08918494883037e+000

2.35883074766574e+005,-2.10484339636210e+001,-6.17373956971804e+000

2.39175879781588e+005,-2.10490220423839e+001,-6.25945717174939e+000

2.42514650641661e+005,-2.10496257572753e+001,-6.34635335791826e+000

2.45900029006080e+005,-2.10502455030813e+001,-6.43444392868851e+000

2.49332665491357e+005,-2.10508816836170e+001,-6.52374488425619e+000

2.52813219796278e+005,-2.10515347118981e+001,-6.61427242683896e+000

2.56342360828676e+005,-2.10522050103143e+001,-6.70604296299698e+000

2.59920766833993e+005,-2.10528930108058e+001,-6.79907310598408e+000

2.63549125525621e+005,-2.10535991550419e+001,-6.89337967813068e+000

2.67228134217075e+005,-2.10543238946029e+001,-6.98897971325944e+000

2.70958499956006e+005,-2.10550676911643e+001,-7.08589045913548e+000

2.74740939660078e+005,-2.10558310166847e+001,-7.18412937995140e+000

2.78576180254757e+005,-2.10566143535957e+001,-7.28371415884892e+000

2.82464958813007e+005,-2.10574181949965e+001,-7.38466270047801e+000

2.86408022696948e+005,-2.10582430448508e+001,-7.48699313359454e+000

2.90406129701488e+005,-2.10590894181879e+001,-7.59072381369862e+000

2.94460048199957e+005,-2.10599578413069e+001,-7.69587332571428e+000

2.98570557291775e+005,-2.10608488519864e+001,-7.80246048671084e+000

3.02738446952187e+005,-2.10617629996962e+001,-7.91050434866982e+000

3.06964518184081e+005,-2.10627008458159e+001,-8.02002420129556e+000

3.11249583171928e+005,-2.10636629638565e+001,-8.13103957487422e+000

3.15594465437872e+005,-2.10646499396875e+001,-8.24357024317872e+000

3.19999999999997e+005,-2.10656623717701e+001,-8.35763622642473e+000

3.24467033532806e+005,-2.10667008713949e+001,-8.47325779427609e+000

3.28996424529938e+005,-2.10677660629269e+001,-8.59045546890191e+000

3.33589043469155e+005,-2.10688585840556e+001,-8.70925002808766e+000

3.38245772979638e+005,-2.10699790860530e+001,-8.82966250839859e+000

3.42967508011610e+005,-2.10711282340386e+001,-8.95171420840023e+000

3.47755156008335e+005,-2.10723067072517e+001,-9.07542669193334e+000

3.52609637080511e+005,-2.10735151993328e+001,-9.20082179144691e+000

3.57531884183106e+005,-2.10747544186124e+001,-9.32792161138829e+000

3.62522843294651e+005,-2.10760250884105e+001,-9.45674853165283e+000

3.67583473599047e+005,-2.10773279473450e+001,-9.58732521109163e+000

3.72714747669902e+005,-2.10786637496510e+001,-9.71967459107900e+000

3.77917651657445e+005,-2.10800332655108e+001,-9.85381989914009e+000

3.83193185478053e+005,-2.10814372813959e+001,-9.98978465263804e+000

3.88542363006410e+005,-2.10828766004210e+001,-1.01275926625206e+001

3.93966212270369e+005,-2.10843520427120e+001,-1.02672680371264e+001

3.99465775648511e+005,-2.10858644457864e+001,-1.04088351860496e+001

4.05042110070485e+005,-2.10874146649496e+001,-1.05523188240635e+001

4.10696287220124e+005,-2.10890035737055e+001,-1.06977439750990e+001

4.16429393741414e+005,-2.10906320641842e+001,-1.08451359762810e+001

4.22242531447321e+005,-2.10923010475858e+001,-1.09945204820162e+001

4.28136817531551e+005,-2.10940114546423e+001,-1.11459234681349e+001

4.34113384783250e+005,-2.10957642360986e+001,-1.12993712360800e+001

4.40173381804713e+005,-2.10975603632119e+001,-1.14548904171450e+001

4.46317973232124e+005,-2.10994008282727e+001,-1.16125079767536e+001

4.52548339959385e+005,-2.11012866451459e+001,-1.17722512187806e+001

4.58865679365059e+005,-2.11032188498352e+001,-1.19341477899101e+001

4.65271205542494e+005,-2.11051985010692e+001,-1.20982256840226e+001

4.71766149533147e+005,-2.11072266809124e+001,-1.22645132466136e+001

4.78351759563174e+005,-2.11093044954005e+001,-1.24330391792308e+001

4.85029301283321e+005,-2.11114330752014e+001,-1.26038325439304e+001

4.91800058012158e+005,-2.11136135763026e+001,-1.27769227677424e+001

4.98665330982714e+005,-2.11158471807258e+001,-1.29523396471406e+001

5.05626439592555e+005,-2.11181350972698e+001,-1.31301133525096e+001

5.12684721657352e+005,-2.11204785622822e+001,-1.33102744326017e+001

5.19841533667984e+005,-2.11228788404600e+001,-1.34928538189742e+001

5.27098251051240e+005,-2.11253372256818e+001,-1.36778828304018e+001

5.34456268434150e+005,-2.11278550418695e+001,-1.38653931772517e+001

5.41916999912011e+005,-2.11304336438824e+001,-1.40554169658150e+001

