Freq.,VOut,OutRef

1.00000000000000e+004,-1.30973799852188e+001,-7.72055225891950e-002

1.01395947979003e+004,-1.30973804663615e+001,-7.82832310851634e-002

1.02811382665607e+004,-1.30973809610263e+001,-7.93759821158612e-002

1.04246576084112e+004,-1.30973814695934e+001,-8.04839855920841e-002

1.05701804056138e+004,-1.30973819924532e+001,-8.16074543556428e-002

1.07177346253629e+004,-1.30973825300074e+001,-8.27466042134471e-002

1.08673486252606e+004,-1.30973830826687e+001,-8.39016539832199e-002

1.10190511587661e+004,-1.30973836508614e+001,-8.50728255345520e-002

1.11728713807222e+004,-1.30973842350219e+001,-8.62603438279987e-002

1.13288388529580e+004,-1.30973848355990e+001,-8.74644369620507e-002

1.14869835499703e+004,-1.30973854530536e+001,-8.86853362157925e-002

1.16473358646846e+004,-1.30973860878599e+001,-8.99232760923624e-002

1.18099266142953e+004,-1.30973867405054e+001,-9.11784943631117e-002

1.19747870461893e+004,-1.30973874114907e+001,-9.24512321173730e-002

1.21419488439505e+004,-1.30973881013314e+001,-9.37417338011470e-002

1.23114441334492e+004,-1.30973888105571e+001,-9.50502472688759e-002

1.24833054890161e+004,-1.30973895397120e+001,-9.63770238329828e-002

1.26575659397028e+004,-1.30973902893560e+001,-9.77223183047398e-002

1.28342589756290e+004,-1.30973910600645e+001,-9.90863890490015e-002

1.30134185544193e+004,-1.30973918524292e+001,-1.00469498030210e-001

1.31950791077289e+004,-1.30973926670581e+001,-1.01871910866389e-001

1.33792755478611e+004,-1.30973935045767e+001,-1.03293896872979e-001

1.35660432744767e+004,-1.30973943656273e+001,-1.04735729123246e-001

1.37554181813974e+004,-1.30973952508713e+001,-1.06197684491030e-001

1.39474366635040e+004,-1.30973961609877e+001,-1.07680043711602e-001

1.41421356237309e+004,-1.30973970966748e+001,-1.09183091430109e-001

1.43395524801583e+004,-1.30973980586510e+001,-1.10707116256856e-001

1.45397251732031e+004,-1.30973990476539e+001,-1.12252410825236e-001

1.47426921729110e+004,-1.30974000644427e+001,-1.13819271842786e-001

1.49484924863494e+004,-1.30974011097975e+001,-1.15408000150566e-001

1.51571656651040e+004,-1.30974021845200e+001,-1.17018900781874e-001

1.53687518128801e+004,-1.30974032894348e+001,-1.18652283017562e-001

1.55832915932100e+004,-1.30974044253893e+001,-1.20308460446438e-001

1.58008262372675e+004,-1.30974055932551e+001,-1.21987751022674e-001

1.60213975517924e+004,-1.30974067939277e+001,-1.23690477130394e-001

1.62450479271247e+004,-1.30974080283279e+001,-1.25416965642436e-001

1.64718203453514e+004,-1.30974092974024e+001,-1.27167547981987e-001

1.67017583885674e+004,-1.30974106021244e+001,-1.28942560186582e-001

1.69349062472505e+004,-1.30974119434943e+001,-1.30742342973084e-001

1.71713087287550e+004,-1.30974133225403e+001,-1.32567241801526e-001

1.74110112659224e+004,-1.30974147403202e+001,-1.34417606937122e-001

1.76540599258131e+004,-1.30974161979204e+001,-1.36293793525966e-001

1.79005014185594e+004,-1.30974176964582e+001,-1.38196161652749e-001

1.81503831063432e+004,-1.30974192370822e+001,-1.40125076414659e-001

1.84037530124975e+004,-1.30974208209735e+001,-1.42080907986581e-001

1.86606598307361e+004,-1.30974224493454e+001,-1.44064031698496e-001

1.89211529345119e+004,-1.30974241234459e+001,-1.46074828099430e-001

1.91852823865052e+004,-1.30974258445577e+001,-1.48113683030867e-001

1.94530989482457e+004,-1.30974276139992e+001,-1.50180987704739e-001

1.97246540898671e+004,-1.30974294331263e+001,-1.52277138769896e-001

1.99999999999999e+004,-1.30974313033319e+001,-1.54402538395801e-001

2.02791895958005e+004,-1.30974332260488e+001,-1.56557594340475e-001

2.05622765331213e+004,-1.30974352027491e+001,-1.58742720034429e-001

2.08493152168224e+004,-1.30974372349466e+001,-1.60958334653582e-001

2.11403608112276e+004,-1.30974393241972e+001,-1.63204863201287e-001

2.14354692507258e+004,-1.30974414721005e+001,-1.65482736586986e-001

2.17346972505211e+004,-1.30974436803004e+001,-1.67792391712582e-001

2.20381023175322e+004,-1.30974459504871e+001,-1.70134271546643e-001

2.23457427614443e+004,-1.30974482843978e+001,-1.72508825214432e-001

2.26576777059159e+004,-1.30974506838186e+001,-1.74916508079690e-001

2.29739670999406e+004,-1.30974531505851e+001,-1.77357781832114e-001

2.32946717293690e+004,-1.30974556865844e+001,-1.79833114571609e-001

2.36198532285905e+004,-1.30974582937559e+001,-1.82342980901447e-001

2.39495740923785e+004,-1.30974609740941e+001,-1.84887862009566e-001

2.42838976879009e+004,-1.30974637296478e+001,-1.87468245769434e-001

2.46228882668982e+004,-1.30974665625241e+001,-1.90084626822120e-001

2.49666109780322e+004,-1.30974694748885e+001,-1.92737506673822e-001

2.53151318794055e+004,-1.30974724689668e+001,-1.95427393790800e-001

2.56685179512580e+004,-1.30974755470468e+001,-1.98154803692546e-001

2.60268371088386e+004,-1.30974787114805e+001,-2.00920259047844e-001

2.63901582154578e+004,-1.30974819646851e+001,-2.03724289775912e-001

2.67585510957221e+004,-1.30974853091454e+001,-2.06567433142425e-001

2.71320865489533e+004,-1.30974887474151e+001,-2.09450233861619e-001

2.75108363627948e+004,-1.30974922821194e+001,-2.12373244197377e-001

2.78948733270080e+004,-1.30974959159564e+001,-2.15337024066652e-001

2.82842712474618e+004,-1.30974996516995e+001,-2.18342141143504e-001

2.86791049603164e+004,-1.30975034921989e+001,-2.21389170966482e-001

2.90794503464061e+004,-1.30975074403844e+001,-2.24478697043748e-001

2.94853843458219e+004,-1.30975114992675e+001,-2.27611310960958e-001

2.98969849726987e+004,-1.30975156719431e+001,-2.30787612495433e-001

3.03143313302078e+004,-1.30975199615920e+001,-2.34008209724563e-001

3.07375036257601e+004,-1.30975243714838e+001,-2.37273719138343e-001

3.11665831864199e+004,-1.30975289049788e+001,-2.40584765752200e-001

3.16016524745350e+004,-1.30975335655306e+001,-2.43941983228685e-001

3.20427951035848e+004,-1.30975383566886e+001,-2.47346013988060e-001

3.24900958542493e+004,-1.30975432821008e+001,-2.50797509331876e-001

3.29436406907028e+004,-1.30975483455164e+001,-2.54297129559027e-001

3.34035167771346e+004,-1.30975535507883e+001,-2.57845544092010e-001

3.38698124945009e+004,-1.30975589018768e+001,-2.61443431594831e-001

3.43426174575100e+004,-1.30975644028513e+001,-2.65091480103956e-001

3.48220225318448e+004,-1.30975700578944e+001,-2.68790387148718e-001

3.53081198516260e+004,-1.30975758713043e+001,-2.72540859884306e-001

3.58010028371187e+004,-1.30975818474979e+001,-2.76343615218684e-001

3.63007662126863e+004,-1.30975879910148e+001,-2.80199379943690e-001

3.68075060249948e+004,-1.30975943065198e+001,-2.84108890867947e-001

3.73213196614721e+004,-1.30976007988066e+001,-2.88072894953655e-001

3.78423058690237e+004,-1.30976074728015e+001,-2.92092149449218e-001

3.83705647730104e+004,-1.30976143335665e+001,-2.96167422029946e-001

3.89061978964912e+004,-1.30976213863038e+001,-3.00299490934743e-001

3.94493081797342e+004,-1.30976286363585e+001,-3.04489145110947e-001

3.99999999999998e+004,-1.30976360892234e+001,-3.08737184352393e-001

4.05583791916010e+004,-1.30976437505427e+001,-3.13044419448153e-001

4.11245530662425e+004,-1.30976516261154e+001,-3.17411672328566e-001

4.16986304336447e+004,-1.30976597219009e+001,-3.21839776208976e-001

4.22807216224550e+004,-1.30976680440221e+001,-3.26329575744441e-001

4.28709385014515e+004,-1.30976765987698e+001,-3.30881927181060e-001

4.34693945010421e+004,-1.30976853926085e+001,-3.35497698503673e-001

4.40762046350642e+004,-1.30976944321791e+001,-3.40177769600058e-001

4.46914855228886e+004,-1.30977037243055e+001,-3.44923032408173e-001

4.53153554118317e+004,-1.30977132759981e+001,-3.49734391084368e-001

4.59479341998812e+004,-1.30977230944595e+001,-3.54612762156659e-001

4.65893434587380e+004,-1.30977331870894e+001,-3.59559074690879e-001

4.72397064571810e+004,-1.30977435614900e+001,-3.64574270453686e-001

4.78991481847569e+004,-1.30977542254710e+001,-3.69659304079638e-001

4.85677953758016e+004,-1.30977651870558e+001,-3.74815143237954e-001

4.92457765337964e+004,-1.30977764544859e+001,-3.80042768805024e-001

4.99332219560642e+004,-1.30977880362281e+001,-3.85343175032242e-001

5.06302637588109e+004,-1.30977999409795e+001,-3.90717369723364e-001

5.13370359025159e+004,-1.30978121776741e+001,-3.96166374407344e-001

5.20536742176771e+004,-1.30978247554883e+001,-4.01691224517948e-001

5.27803164309155e+004,-1.30978376838484e+001,-4.07292969570311e-001

5.35171021914442e+004,-1.30978509724355e+001,-4.12972673347300e-001

5.42641730979066e+004,-1.30978646311939e+001,-4.18731414075924e-001

5.50216727255895e+004,-1.30978786703367e+001,-4.24570284617796e-001

5.57897466540159e+004,-1.30978931003533e+001,-4.30490392654375e-001

5.65685424949235e+004,-1.30979079320166e+001,-4.36492860874361e-001

5.73582099206328e+004,-1.30979231763899e+001,-4.42578827167489e-001

5.81589006928121e+004,-1.30979388448348e+001,-4.48749444814657e-001

5.89707686916437e+004,-1.30979549490189e+001,-4.55005882683190e-001

5.97939699453972e+004,-1.30979715009231e+001,-4.61349325425822e-001

6.06286626604156e+004,-1.30979885128504e+001,-4.67780973674142e-001

6.14750072515201e+004,-1.30980059974332e+001,-4.74302044245158e-001

6.23331663728396e+004,-1.30980239676427e+001,-4.80913770337556e-001

6.32033049490698e+004,-1.30980424367966e+001,-4.87617401739983e-001

6.40855902071694e+004,-1.30980614185682e+001,-4.94414205035630e-001

6.49801917084985e+004,-1.30980809269952e+001,-5.01305463810325e-001

6.58872813814055e+004,-1.30981009764893e+001,-5.08292478860851e-001

6.68070335542691e+004,-1.30981215818450e+001,-5.15376568409693e-001

6.77396249890018e+004,-1.30981427582492e+001,-5.22559068314190e-001

6.86852349150199e+004,-1.30981645212915e+001,-5.29841332285124e-001

6.96440450636895e+004,-1.30981868869732e+001,-5.37224732102626e-001

7.06162397032520e+004,-1.30982098717182e+001,-5.44710657834782e-001

7.16020056742374e+004,-1.30982334923831e+001,-5.52300518057068e-001

7.26015324253724e+004,-1.30982577662677e+001,-5.59995740076632e-001

7.36150120499896e+004,-1.30982827111259e+001,-5.67797770154822e-001

7.46426393229441e+004,-1.30983083451763e+001,-5.75708073733134e-001

7.56846117380472e+004,-1.30983346871141e+001,-5.83728135659640e-001

7.67411295460207e+004,-1.30983617561214e+001,-5.91859460420558e-001

7.78123957929823e+004,-1.30983895718802e+001,-6.00103572365996e-001

7.88986163594682e+004,-1.30984181545831e+001,-6.08462015945992e-001

7.99999999999995e+004,-1.30984475249456e+001,-6.16936355942428e-001

8.11167583832018e+004,-1.30984777042186e+001,-6.25528177703966e-001

8.22491061324848e+004,-1.30985087142007e+001,-6.34239087382662e-001

8.33972608672892e+004,-1.30985405772510e+001,-6.43070712169907e-001

8.45614432449099e+004,-1.30985733163015e+001,-6.52024700539636e-001

8.57418770029029e+004,-1.30986069548707e+001,-6.61102722484407e-001

8.69387890020841e+004,-1.30986415170768e+001,-6.70306469758893e-001

8.81524092701283e+004,-1.30986770276508e+001,-6.79637656123674e-001

8.93829710457770e+004,-1.30987135119508e+001,-6.89098017585721e-001

9.06307108236633e+004,-1.30987509959753e+001,-6.98689312647530e-001

9.18958683997622e+004,-1.30987895063776e+001,-7.08413322551215e-001

9.31786869174758e+004,-1.30988290704798e+001,-7.18271851524998e-001

9.44794129143618e+004,-1.30988697162876e+001,-7.28266727031174e-001

9.57982963695136e+004,-1.30989114725048e+001,-7.38399800015533e-001

9.71355907516031e+004,-1.30989543685476e+001,-7.48672945156860e-001

9.84915530675926e+004,-1.30989984345604e+001,-7.59088061115933e-001

9.98664439121282e+004,-1.30990437014297e+001,-7.69647070787931e-001

1.01260527517622e+005,-1.30990902008009e+001,-7.80351921551107e-001

1.02674071805032e+005,-1.30991379650920e+001,-7.91204585521706e-001

1.04107348435354e+005,-1.30991870275105e+001,-8.02207059802272e-001

1.05560632861831e+005,-1.30992374220679e+001,-8.13361366738478e-001

1.07034204382888e+005,-1.30992891835960e+001,-8.24669554167353e-001

1.08528346195813e+005,-1.30993423477626e+001,-8.36133695671700e-001

1.10043345451179e+005,-1.30993969510872e+001,-8.47755890834507e-001

1.11579493308032e+005,-1.30994530309567e+001,-8.59538265488344e-001

1.13137084989847e+005,-1.30995106256419e+001,-8.71482971969638e-001

1.14716419841265e+005,-1.30995697743128e+001,-8.83592189371264e-001

1.16317801385624e+005,-1.30996305170550e+001,-8.95868123792518e-001

1.17941537383287e+005,-1.30996928948851e+001,-9.08313008592380e-001

1.19587939890794e+005,-1.30997569497669e+001,-9.20929104640050e-001

1.21257325320831e+005,-1.30998227246273e+001,-9.33718700562859e-001

1.22950014503040e+005,-1.30998902633716e+001,-9.46684112999775e-001

1.24666332745679e+005,-1.30999596108988e+001,-9.59827686847278e-001

1.26406609898139e+005,-1.31000308131180e+001,-9.73151795506443e-001

1.28171180414339e+005,-1.31001039169624e+001,-9.86658841131857e-001

1.29960383416997e+005,-1.31001789704047e+001,-1.00035125487611e+000

1.31774562762811e+005,-1.31002560224720e+001,-1.01423149713408e+000

1.33614067108538e+005,-1.31003351232599e+001,-1.02830205778616e+000

1.35479249978003e+005,-1.31004163239466e+001,-1.04256545643917e+000

1.37370469830040e+005,-1.31004996768064e+001,-1.05702424266855e+000

1.39288090127379e+005,-1.31005852352233e+001,-1.07168099625433e+000

1.41232479406504e+005,-1.31006730537032e+001,-1.08653832742019e+000

1.43204011348474e+005,-1.31007631878866e+001,-1.10159887706827e+000

1.45203064850745e+005,-1.31008556945598e+001,-1.11686531701229e+000

1.47230024099979e+005,-1.31009506316664e+001,-1.13234035020994e+000

1.49285278645888e+005,-1.31010480583171e+001,-1.14802671099164e+000

1.51369223476094e+005,-1.31011480347996e+001,-1.16392716529033e+000

1.53482259092041e+005,-1.31012506225872e+001,-1.18004451086609e+000

1.55624791585964e+005,-1.31013558843465e+001,-1.19638157753144e+000

1.57797232718936e+005,-1.31014638839446e+001,-1.21294122737259e+000

1.59999999999999e+005,-1.31015746864550e+001,-1.22972635496962e+000

1.62233516766403e+005,-1.31016883581620e+001,-1.24673988761663e+000

1.64498212264969e+005,-1.31018049665650e+001,-1.26398478553540e+000

1.66794521734578e+005,-1.31019245803799e+001,-1.28146404209284e+000

1.69122886489819e+005,-1.31020472695409e+001,-1.29918068401263e+000

1.71483754005805e+005,-1.31021731052002e+001,-1.31713777158614e+000

1.73877578004168e+005,-1.31023021597252e+001,-1.33533839888290e+000

1.76304818540256e+005,-1.31024345066958e+001,-1.35378569395953e+000

1.78765942091554e+005,-1.31025702208989e+001,-1.37248281906570e+000

1.81261421647326e+005,-1.31027093783213e+001,-1.39143297085101e+000

1.83791736799524e+005,-1.31028520561406e+001,-1.41063938057075e+000

1.86357373834951e+005,-1.31029983327146e+001,-1.43010531429077e+000

1.88958825828723e+005,-1.31031482875680e+001,-1.44983407309022e+000

1.91596592739027e+005,-1.31033020013768e+001,-1.46982899327017e+000

1.94271181503206e+005,-1.31034595559511e+001,-1.49009344655500e+000

1.96983106135185e+005,-1.31036210342148e+001,-1.51063084030025e+000

1.99732887824256e+005,-1.31037865201824e+001,-1.53144461770098e+000

2.02521055035243e+005,-1.31039560989342e+001,-1.55253825799805e+000

2.05348143610063e+005,-1.31041298565874e+001,-1.57391527669267e+000

2.08214696870707e+005,-1.31043078802655e+001,-1.59557922575943e+000

2.11121265723661e+005,-1.31044902580633e+001,-1.61753369386372e+000

2.14068408765776e+005,-1.31046770790097e+001,-1.63978230658539e+000

2.17056692391625e+005,-1.31048684330267e+001,-1.66232872664543e+000

2.20086690902357e+005,-1.31050644108851e+001,-1.68517665413872e+000

2.23158986616063e+005,-1.31052651041564e+001,-1.70832982677434e+000

2.26274169979693e+005,-1.31054706051611e+001,-1.73179202012325e+000

2.29432839682530e+005,-1.31056810069131e+001,-1.75556704787309e+000

2.32635602771247e+005,-1.31058964030603e+001,-1.77965876209617e+000

2.35883074766574e+005,-1.31061168878205e+001,-1.80407105352388e+000

2.39175879781588e+005,-1.31063425559139e+001,-1.82880785183740e+000

2.42514650641661e+005,-1.31065735024903e+001,-1.85387312596769e+000

2.45900029006080e+005,-1.31068098230529e+001,-1.87927088441501e+000

2.49332665491357e+005,-1.31070516133765e+001,-1.90500517557892e+000

2.52813219796278e+005,-1.31072989694214e+001,-1.93108008811214e+000

2.56342360828676e+005,-1.31075519872427e+001,-1.95749975128786e+000

2.59920766833993e+005,-1.31078107628947e+001,-1.98426833539296e+000

2.63549125525621e+005,-1.31080753923296e+001,-2.01139005214011e+000

2.67228134217075e+005,-1.31083459712920e+001,-2.03886915510807e+000

2.70958499956006e+005,-1.31086225952080e+001,-2.06670994020527e+000

2.74740939660078e+005,-1.31089053590693e+001,-2.09491674616377e+000

2.78576180254757e+005,-1.31091943573109e+001,-2.12349395506471e+000

2.82464958813007e+005,-1.31094896836857e+001,-2.15244599289429e+000

2.86408022696948e+005,-1.31097914311317e+001,-2.18177733013694e+000

2.90406129701488e+005,-1.31100996916350e+001,-2.21149248240458e+000

2.94460048199957e+005,-1.31104145560877e+001,-2.24159601110749e+000

2.98570557291775e+005,-1.31107361141396e+001,-2.27209252416490e+000

3.02738446952187e+005,-1.31110644540459e+001,-2.30298667676300e+000

3.06964518184081e+005,-1.31113996625086e+001,-2.33428317215978e+000

3.11249583171928e+005,-1.31117418245138e+001,-2.36598676253878e+000

3.15594465437872e+005,-1.31120910231633e+001,-2.39810224991762e+000

3.19999999999997e+005,-1.31124473395026e+001,-2.43063448710971e+000

3.24467033532806e+005,-1.31128108523425e+001,-2.46358837874710e+000

3.28996424529938e+005,-1.31131816380778e+001,-2.49696888236349e+000

3.33589043469155e+005,-1.31135597705012e+001,-2.53078100953909e+000

3.38245772979638e+005,-1.31139453206130e+001,-2.56502982711602e+000

3.42967508011610e+005,-1.31143383564274e+001,-2.59972045847989e+000

3.47755156008335e+005,-1.31147389427754e+001,-2.63485808491691e+000

3.52609637080511e+005,-1.31151471411042e+001,-2.67044794704313e+000

3.57531884183106e+005,-1.31155630092742e+001,-2.70649534631332e+000

3.62522843294651e+005,-1.31159866013539e+001,-2.74300564661115e+000

3.67583473599047e+005,-1.31164179674120e+001,-2.77998427591976e+000

3.72714747669902e+005,-1.31168571533092e+001,-2.81743672808052e+000

3.77917651657445e+005,-1.31173042004882e+001,-2.85536856463848e+000

3.83193185478053e+005,-1.31177591457630e+001,-2.89378541677819e+000

3.88542363006410e+005,-1.31182220211094e+001,-2.93269298735266e+000

3.93966212270369e+005,-1.31186928534554e+001,-2.97209705300407e+000

3.99465775648511e+005,-1.31191716644724e+001,-3.01200346638475e+000

4.05042110070485e+005,-1.31196584703697e+001,-3.05241815847101e+000

4.10696287220124e+005,-1.31201532816903e+001,-3.09334714098018e+000

4.16429393741414e+005,-1.31206561031105e+001,-3.13479650888378e+000

4.22242531447321e+005,-1.31211669332437e+001,-3.17677244302571e+000

4.28136817531551e+005,-1.31216857644485e+001,-3.21928121283788e+000

4.34113384783250e+005,-1.31222125826425e+001,-3.26232917916114e+000

4.40173381804713e+005,-1.31227473671227e+001,-3.30592279716560e+000

4.46317973232124e+005,-1.31232900903923e+001,-3.35006861937350e+000

4.52548339959385e+005,-1.31238407179961e+001,-3.39477329878343e+000

4.58865679365059e+005,-1.31243992083638e+001,-3.44004359209304e+000

4.65271205542494e+005,-1.31249655126641e+001,-3.48588636302083e+000

4.71766149533147e+005,-1.31255395746675e+001,-3.53230858572534e+000

4.78351759563174e+005,-1.31261213306217e+001,-3.57931734831732e+000

4.85029301283321e+005,-1.31267107091379e+001,-3.62691985646605e+000

4.91800058012158e+005,-1.31273076310909e+001,-3.67512343709198e+000

4.98665330982714e+005,-1.31279120095318e+001,-3.72393554214793e+000

5.05626439592555e+005,-1.31285237496157e+001,-3.77336375248062e+000

5.12684721657352e+005,-1.31291427485438e+001,-3.82341578177076e+000

5.19841533667984e+005,-1.31297688955223e+001,-3.87409948054611e+000

5.27098251051240e+005,-1.31304020717364e+001,-3.92542284026319e+000

5.34456268434150e+005,-1.31310421503425e+001,-3.97739399745358e+000

5.41916999912011e+005,-1.31316889964772e+001,-4.03002123792499e+000

