Freq.,VOut,OutRef

1.00000000000000e+004,-1.58329842612350e+001,-1.94777238626560e-001

1.01395947979003e+004,-1.58329847866171e+001,-1.97496197923603e-001

1.02811382665607e+004,-1.58329853267667e+001,-2.00253111219184e-001

1.04246576084112e+004,-1.58329858820987e+001,-2.03048508279096e-001

1.05701804056138e+004,-1.58329864530396e+001,-2.05882926261083e-001

1.07177346253629e+004,-1.58329870400281e+001,-2.08756909818478e-001

1.08673486252606e+004,-1.58329876435152e+001,-2.11671011205143e-001

1.10190511587661e+004,-1.58329882639646e+001,-2.14625790382590e-001

1.11728713807222e+004,-1.58329889018527e+001,-2.17621815126298e-001

1.13288388529580e+004,-1.58329895576697e+001,-2.20659661133804e-001

1.14869835499703e+004,-1.58329902319193e+001,-2.23739912137279e-001

1.16473358646846e+004,-1.58329909251195e+001,-2.26863160013339e-001

1.18099266142953e+004,-1.58329916378027e+001,-2.30030004898597e-001

1.19747870461893e+004,-1.58329923705164e+001,-2.33241055303592e-001

1.21419488439505e+004,-1.58329931238234e+001,-2.36496928230267e-001

1.23114441334492e+004,-1.58329938983023e+001,-2.39798249289130e-001

1.24833054890161e+004,-1.58329946945479e+001,-2.43145652821901e-001

1.26575659397028e+004,-1.58329955131718e+001,-2.46539782019202e-001

1.28342589756290e+004,-1.58329963548028e+001,-2.49981289048265e-001

1.30134185544193e+004,-1.58329972200871e+001,-2.53470835175470e-001

1.31950791077289e+004,-1.58329981096894e+001,-2.57009090892069e-001

1.33792755478611e+004,-1.58329990242927e+001,-2.60596736047437e-001

1.35660432744767e+004,-1.58329999645997e+001,-2.64234459972481e-001

1.37554181813974e+004,-1.58330009313321e+001,-2.67922961620738e-001

1.39474366635040e+004,-1.58330019252325e+001,-2.71662949693118e-001

1.41421356237309e+004,-1.58330029470640e+001,-2.75455142781099e-001

1.43395524801583e+004,-1.58330039976111e+001,-2.79300269500736e-001

1.45397251732031e+004,-1.58330050776808e+001,-2.83199068631906e-001

1.47426921729110e+004,-1.58330061881019e+001,-2.87152289264396e-001

1.49484924863494e+004,-1.58330073297272e+001,-2.91160690936015e-001

1.51571656651040e+004,-1.58330085034332e+001,-2.95225043780842e-001

1.53687518128801e+004,-1.58330097101209e+001,-2.99346128677735e-001

1.55832915932100e+004,-1.58330109507166e+001,-3.03524737398267e-001

1.58008262372675e+004,-1.58330122261727e+001,-3.07761672760065e-001

1.60213975517924e+004,-1.58330135374682e+001,-3.12057748778237e-001

1.62450479271247e+004,-1.58330148856097e+001,-3.16413790823764e-001

1.64718203453514e+004,-1.58330162716320e+001,-3.20830635781161e-001

1.67017583885674e+004,-1.58330176965988e+001,-3.25309132207669e-001

1.69349062472505e+004,-1.58330191616038e+001,-3.29850140498036e-001

1.71713087287550e+004,-1.58330206677713e+001,-3.34454533045434e-001

1.74110112659224e+004,-1.58330222162571e+001,-3.39123194414716e-001

1.76540599258131e+004,-1.58330238082495e+001,-3.43857021505241e-001

1.79005014185594e+004,-1.58330254449700e+001,-3.48656923726825e-001

1.81503831063432e+004,-1.58330271276746e+001,-3.53523823172045e-001

1.84037530124975e+004,-1.58330288576542e+001,-3.58458654794780e-001

1.86606598307361e+004,-1.58330306362362e+001,-3.63462366586241e-001

1.89211529345119e+004,-1.58330324647848e+001,-3.68535919760682e-001

1.91852823865052e+004,-1.58330343447030e+001,-3.73680288933764e-001

1.94530989482457e+004,-1.58330362774326e+001,-3.78896462314134e-001

1.97246540898671e+004,-1.58330382644562e+001,-3.84185441890674e-001

1.99999999999999e+004,-1.58330403072977e+001,-3.89548243623561e-001

2.02791895958005e+004,-1.58330424075240e+001,-3.94985897638840e-001

2.05622765331213e+004,-1.58330445667453e+001,-4.00499448428533e-001

2.08493152168224e+004,-1.58330467866177e+001,-4.06089955043568e-001

2.11403608112276e+004,-1.58330490688431e+001,-4.11758491305248e-001

2.14354692507258e+004,-1.58330514151714e+001,-4.17506146002229e-001

2.17346972505211e+004,-1.58330538274013e+001,-4.23334023105570e-001

2.20381023175322e+004,-1.58330563073821e+001,-4.29243241974510e-001

2.23457427614443e+004,-1.58330588570146e+001,-4.35234937573762e-001

2.26576777059159e+004,-1.58330614782532e+001,-4.41310260688544e-001

2.29739670999406e+004,-1.58330641731068e+001,-4.47470378146175e-001

2.32946717293690e+004,-1.58330669436403e+001,-4.53716473038292e-001

2.36198532285905e+004,-1.58330697919768e+001,-4.60049744945744e-001

2.39495740923785e+004,-1.58330727202988e+001,-4.66471410169062e-001

2.42838976879009e+004,-1.58330757308495e+001,-4.72982701961124e-001

2.46228882668982e+004,-1.58330788259353e+001,-4.79584870760894e-001

2.49666109780322e+004,-1.58330820079268e+001,-4.86279184433850e-001

2.53151318794055e+004,-1.58330852792613e+001,-4.93066928512276e-001

2.56685179512580e+004,-1.58330886424436e+001,-4.99949406443636e-001

2.60268371088386e+004,-1.58330921000494e+001,-5.06927939834842e-001

2.63901582154578e+004,-1.58330956547257e+001,-5.14003868708370e-001

2.67585510957221e+004,-1.58330993091939e+001,-5.21178551755608e-001

2.71320865489533e+004,-1.58331030662514e+001,-5.28453366596657e-001

2.75108363627948e+004,-1.58331069287735e+001,-5.35829710043872e-001

2.78948733270080e+004,-1.58331108997164e+001,-5.43308998364927e-001

2.82842712474618e+004,-1.58331149821184e+001,-5.50892667556182e-001

2.86791049603164e+004,-1.58331191791028e+001,-5.58582173615618e-001

2.90794503464061e+004,-1.58331234938803e+001,-5.66378992817640e-001

2.94853843458219e+004,-1.58331279297509e+001,-5.74284621997865e-001

2.98969849726987e+004,-1.58331324901072e+001,-5.82300578834702e-001

3.03143313302078e+004,-1.58331371784360e+001,-5.90428402140513e-001

3.07375036257601e+004,-1.58331419983219e+001,-5.98669652153289e-001

3.11665831864199e+004,-1.58331469534490e+001,-6.07025910833706e-001

3.16016524745350e+004,-1.58331520476047e+001,-6.15498782165415e-001

3.20427951035848e+004,-1.58331572846815e+001,-6.24089892462051e-001

3.24900958542493e+004,-1.58331626686808e+001,-6.32800890673219e-001

3.29436406907028e+004,-1.58331682037154e+001,-6.41633448699359e-001

3.34035167771346e+004,-1.58331738940128e+001,-6.50589261710059e-001

3.38698124945009e+004,-1.58331797439181e+001,-6.59670048464700e-001

3.43426174575100e+004,-1.58331857578977e+001,-6.68877551638743e-001

3.48220225318448e+004,-1.58331919405421e+001,-6.78213538154689e-001

3.53081198516260e+004,-1.58331982965698e+001,-6.87679799517950e-001

3.58010028371187e+004,-1.58332048308306e+001,-6.97278152153563e-001

3.63007662126863e+004,-1.58332115483092e+001,-7.07010437755764e-001

3.68075060249948e+004,-1.58332184541290e+001,-7.16878523630871e-001

3.73213196614721e+004,-1.58332255535557e+001,-7.26884303055354e-001

3.78423058690237e+004,-1.58332328520017e+001,-7.37029695632434e-001

3.83705647730104e+004,-1.58332403550297e+001,-7.47316647654563e-001

3.89061978964912e+004,-1.58332480683566e+001,-7.57747132474328e-001

3.94493081797342e+004,-1.58332559978585e+001,-7.68323150874389e-001

3.99999999999998e+004,-1.58332641495747e+001,-7.79046731446602e-001

4.05583791916010e+004,-1.58332725297117e+001,-7.89919930976292e-001

4.11245530662425e+004,-1.58332811446484e+001,-8.00944834829559e-001

4.16986304336447e+004,-1.58332900009406e+001,-8.12123557347006e-001

4.22807216224550e+004,-1.58332991053259e+001,-8.23458242241913e-001

4.28709385014515e+004,-1.58333084647286e+001,-8.34951063005464e-001

4.34693945010421e+004,-1.58333180862647e+001,-8.46604223315863e-001

4.40762046350642e+004,-1.58333279772472e+001,-8.58419957452903e-001

4.46914855228886e+004,-1.58333381451917e+001,-8.70400530718583e-001

4.53153554118317e+004,-1.58333485978216e+001,-8.82548239863029e-001

4.59479341998812e+004,-1.58333593430737e+001,-8.94865413517908e-001

4.65893434587380e+004,-1.58333703891045e+001,-9.07354412630660e-001

4.72397064571810e+004,-1.58333817442956e+001,-9.20017630910561e-001

4.78991481847569e+004,-1.58333934172600e+001,-9.32857495277673e-001

4.85677953758016e+004,-1.58334054168486e+001,-9.45876466316159e-001

4.92457765337964e+004,-1.58334177521562e+001,-9.59077038736411e-001

4.99332219560642e+004,-1.58334304325285e+001,-9.72461741843788e-001

5.06302637588109e+004,-1.58334434675687e+001,-9.86033140008025e-001

5.13370359025159e+004,-1.58334568671443e+001,-9.99793833146461e-001

5.20536742176771e+004,-1.58334706413945e+001,-1.01374645720876e+000

5.27803164309155e+004,-1.58334848007374e+001,-1.02789368466781e+000

5.35171021914442e+004,-1.58334993558774e+001,-1.04223822501957e+000

5.42641730979066e+004,-1.58335143178130e+001,-1.05678282528849e+000

5.50216727255895e+004,-1.58335296978444e+001,-1.07153027053812e+000

5.57897466540159e+004,-1.58335455075823e+001,-1.08648338438940e+000

5.65685424949235e+004,-1.58335617589553e+001,-1.10164502954724e+000

5.73582099206328e+004,-1.58335784642190e+001,-1.11701810832991e+000

5.81589006928121e+004,-1.58335956359643e+001,-1.13260556321079e+000

5.89707686916437e+004,-1.58336132871268e+001,-1.14841037736096e+000

5.97939699453972e+004,-1.58336314309954e+001,-1.16443557520409e+000

6.06286626604156e+004,-1.58336500812222e+001,-1.18068422297457e+000

6.14750072515201e+004,-1.58336692518316e+001,-1.19715942928645e+000

6.23331663728396e+004,-1.58336889572307e+001,-1.21386434570535e+000

6.32033049490698e+004,-1.58337092122190e+001,-1.23080216733148e+000

6.40855902071694e+004,-1.58337300319986e+001,-1.24797613338797e+000

6.49801917084985e+004,-1.58337514321853e+001,-1.26538952781774e+000

6.58872813814055e+004,-1.58337734288190e+001,-1.28304567988688e+000

6.68070335542691e+004,-1.58337960383751e+001,-1.30094796479581e+000

6.77396249890018e+004,-1.58338192777756e+001,-1.31909980429943e+000

6.86852349150199e+004,-1.58338431644009e+001,-1.33750466733435e+000

6.96440450636895e+004,-1.58338677161018e+001,-1.35616607065223e+000

7.06162397032520e+004,-1.58338929512115e+001,-1.37508757946388e+000

7.16020056742374e+004,-1.58339188885584e+001,-1.39427280808969e+000

7.26015324253724e+004,-1.58339455474783e+001,-1.41372542061888e+000

7.36150120499896e+004,-1.58339729478281e+001,-1.43344913157589e+000

7.46426393229441e+004,-1.58340011099991e+001,-1.45344770659582e+000

7.56846117380472e+004,-1.58340300549302e+001,-1.47372496310834e+000

7.67411295460207e+004,-1.58340598041225e+001,-1.49428477102952e+000

7.78123957929823e+004,-1.58340903796531e+001,-1.51513105346259e+000

7.88986163594682e+004,-1.58341218041902e+001,-1.53626778740562e+000

7.99999999999995e+004,-1.58341541010080e+001,-1.55769900447080e+000

8.11167583832018e+004,-1.58341872940015e+001,-1.57942879160958e+000

8.22491061324848e+004,-1.58342214077027e+001,-1.60146129184900e+000

8.33972608672892e+004,-1.58342564672965e+001,-1.62380070503311e+000

8.45614432449099e+004,-1.58342924986368e+001,-1.64645128857874e+000

8.57418770029029e+004,-1.58343295282632e+001,-1.66941735823460e+000

8.69387890020841e+004,-1.58343675834183e+001,-1.69270328885449e+000

8.81524092701283e+004,-1.58344066920649e+001,-1.71631351517539e+000

8.93829710457770e+004,-1.58344468829035e+001,-1.74025253260737e+000

9.06307108236633e+004,-1.58344881853910e+001,-1.76452489803254e+000

9.18958683997622e+004,-1.58345306297586e+001,-1.78913523061193e+000

9.31786869174758e+004,-1.58345742470312e+001,-1.81408821260270e+000

9.44794129143618e+004,-1.58346190690459e+001,-1.83938859018662e+000

9.57982963695136e+004,-1.58346651284725e+001,-1.86504117430355e+000

9.71355907516031e+004,-1.58347124588328e+001,-1.89105084149937e+000

9.84915530675926e+004,-1.58347610945211e+001,-1.91742253478145e+000

9.98664439121282e+004,-1.58348110708253e+001,-1.94416126448354e+000

1.01260527517622e+005,-1.58348624239477e+001,-1.97127210914080e+000

1.02674071805032e+005,-1.58349151910266e+001,-1.99876021637569e+000

1.04107348435354e+005,-1.58349694101582e+001,-2.02663080379284e+000

1.05560632861831e+005,-1.58350251204188e+001,-2.05488915988488e+000

1.07034204382888e+005,-1.58350823618880e+001,-2.08354064494596e+000

1.08528346195813e+005,-1.58351411756709e+001,-2.11259069200001e+000

1.10043345451179e+005,-1.58352016039224e+001,-2.14204480773439e+000

1.11579493308032e+005,-1.58352636898703e+001,-2.17190857344765e+000

1.13137084989847e+005,-1.58353274778402e+001,-2.20218764600500e+000

1.14716419841265e+005,-1.58353930132794e+001,-2.23288775880631e+000

1.16317801385624e+005,-1.58354603427826e+001,-2.26401472276321e+000

1.17941537383287e+005,-1.58355295141163e+001,-2.29557442728798e+000

1.19587939890794e+005,-1.58356005762454e+001,-2.32757284129194e+000

1.21257325320831e+005,-1.58356735793586e+001,-2.36001601419633e+000

1.22950014503040e+005,-1.58357485748951e+001,-2.39291007695161e+000

1.24666332745679e+005,-1.58358256155712e+001,-2.42626124307064e+000

1.26406609898139e+005,-1.58359047554074e+001,-2.46007580967026e+000

1.28171180414339e+005,-1.58359860497556e+001,-2.49436015852598e+000

1.29960383416997e+005,-1.58360695553271e+001,-2.52912075713614e+000

1.31774562762811e+005,-1.58361553302201e+001,-2.56436415979912e+000

1.33614067108538e+005,-1.58362434339486e+001,-2.60009700870025e+000

1.35479249978003e+005,-1.58363339274700e+001,-2.63632603501211e+000

1.37370469830040e+005,-1.58364268732151e+001,-2.67305806000363e+000

1.39288090127379e+005,-1.58365223351157e+001,-2.71029999616478e+000

1.41232479406504e+005,-1.58366203786352e+001,-2.74805884833864e+000

1.43204011348474e+005,-1.58367210707969e+001,-2.78634171486900e+000

1.45203064850745e+005,-1.58368244802143e+001,-2.82515578875857e+000

1.47230024099979e+005,-1.58369306771205e+001,-2.86450835883843e+000

1.49285278645888e+005,-1.58370397333983e+001,-2.90440681095196e+000

1.51369223476094e+005,-1.58371517226101e+001,-2.94485862914892e+000

1.53482259092041e+005,-1.58372667200279e+001,-2.98587139689384e+000

1.55624791585964e+005,-1.58373848026635e+001,-3.02745279828663e+000

1.57797232718936e+005,-1.58375060492986e+001,-3.06961061929509e+000

1.59999999999999e+005,-1.58376305405151e+001,-3.11235274900300e+000

1.62233516766403e+005,-1.58377583587250e+001,-3.15568718086823e+000

1.64498212264969e+005,-1.58378895882003e+001,-3.19962201399773e+000

1.66794521734578e+005,-1.58380243151032e+001,-3.24416545443375e+000

1.69122886489819e+005,-1.58381626275158e+001,-3.28932581645477e+000

1.71483754005805e+005,-1.58383046154693e+001,-3.33511152389137e+000

1.73877578004168e+005,-1.58384503709738e+001,-3.38153111145569e+000

1.76304818540256e+005,-1.58385999880469e+001,-3.42859322608615e+000

1.78765942091554e+005,-1.58387535627429e+001,-3.47630662830747e+000

1.81261421647326e+005,-1.58389111931807e+001,-3.52468019360423e+000

1.83791736799524e+005,-1.58390729795719e+001,-3.57372291381370e+000

1.86357373834951e+005,-1.58392390242485e+001,-3.62344389853167e+000

1.88958825828723e+005,-1.58394094316896e+001,-3.67385237653543e+000

1.91596592739027e+005,-1.58395843085477e+001,-3.72495769722603e+000

1.94271181503206e+005,-1.58397637636749e+001,-3.77676933208383e+000

1.96983106135185e+005,-1.58399479081476e+001,-3.82929687614549e+000

1.99732887824256e+005,-1.58401368552913e+001,-3.88255004949787e+000

2.02521055035243e+005,-1.58403307207035e+001,-3.93653869879115e+000

2.05348143610063e+005,-1.58405296222774e+001,-3.99127279877059e+000

2.08214696870707e+005,-1.58407336802230e+001,-4.04676245382960e+000

2.11121265723661e+005,-1.58409430170882e+001,-4.10301789958369e+000

2.14068408765776e+005,-1.58411577577791e+001,-4.16004950446382e+000

2.17056692391625e+005,-1.58413780295783e+001,-4.21786777133465e+000

2.20086690902357e+005,-1.58416039621629e+001,-4.27648333913387e+000

2.23158986616063e+005,-1.58418356876209e+001,-4.33590698453595e+000

2.26274169979693e+005,-1.58420733404666e+001,-4.39614962364027e+000

2.29432839682530e+005,-1.58423170576546e+001,-4.45722231368513e+000

2.32635602771247e+005,-1.58425669785924e+001,-4.51913625478788e+000

2.35883074766574e+005,-1.58428232451517e+001,-4.58190279171235e+000

2.39175879781588e+005,-1.58430860016783e+001,-4.64553341566628e+000

2.42514650641661e+005,-1.58433553950005e+001,-4.71003976612517e+000

2.45900029006080e+005,-1.58436315744358e+001,-4.77543363269096e+000

2.49332665491357e+005,-1.58439146917964e+001,-4.84172695697919e+000

2.52813219796278e+005,-1.58442049013927e+001,-4.90893183454221e+000

2.56342360828676e+005,-1.58445023600356e+001,-4.97706051682481e+000

2.59920766833993e+005,-1.58448072270371e+001,-5.04612541315716e+000

2.63549125525621e+005,-1.58451196642086e+001,-5.11613909278455e+000

2.67228134217075e+005,-1.58454398358588e+001,-5.18711428693688e+000

2.70958499956006e+005,-1.58457679087888e+001,-5.25906389093735e+000

2.74740939660078e+005,-1.58461040522862e+001,-5.33200096635401e+000

2.78576180254757e+005,-1.58464484381174e+001,-5.40593874319544e+000

2.82464958813007e+005,-1.58468012405182e+001,-5.48089062215061e+000

2.86408022696948e+005,-1.58471626361835e+001,-5.55687017687742e+000

2.90406129701488e+005,-1.58475328042542e+001,-5.63389115633936e+000

2.94460048199957e+005,-1.58479119263043e+001,-5.71196748719361e+000

2.98570557291775e+005,-1.58483001863255e+001,-5.79111327623103e+000

3.02738446952187e+005,-1.58486977707109e+001,-5.87134281287238e+000

3.06964518184081e+005,-1.58491048682378e+001,-5.95267057171991e+000

3.11249583171928e+005,-1.58495216700493e+001,-6.03511121516904e+000

3.15594465437872e+005,-1.58499483696350e+001,-6.11867959608001e+000

3.19999999999997e+005,-1.58503851628111e+001,-6.20339076051225e+000

3.24467033532806e+005,-1.58508322476998e+001,-6.28925995052493e+000

3.28996424529938e+005,-1.58512898247090e+001,-6.37630260704385e+000

3.33589043469155e+005,-1.58517580965108e+001,-6.46453437279761e+000

3.38245772979638e+005,-1.58522372680218e+001,-6.55397109532507e+000

3.42967508011610e+005,-1.58527275463818e+001,-6.64462883005742e+000

3.47755156008335e+005,-1.58532291409350e+001,-6.73652384347356e+000

3.52609637080511e+005,-1.58537422632111e+001,-6.82967261633565e+000

3.57531884183106e+005,-1.58542671269082e+001,-6.92409184700261e+000

3.62522843294651e+005,-1.58548039478777e+001,-7.01979845482551e+000

3.67583473599047e+005,-1.58553529441104e+001,-7.11680958362706e+000

3.72714747669902e+005,-1.58559143357260e+001,-7.21514260526509e+000

3.77917651657445e+005,-1.58564883449650e+001,-7.31481512328528e+000

3.83193185478053e+005,-1.58570751961841e+001,-7.41584497665978e+000

3.88542363006410e+005,-1.58576751158561e+001,-7.51825024361838e+000

3.93966212270369e+005,-1.58582883325727e+001,-7.62204924557026e+000

3.99465775648511e+005,-1.58589150770535e+001,-7.72726055111875e+000

4.05042110070485e+005,-1.58595555821602e+001,-7.83390298016991e+000

4.10696287220124e+005,-1.58602100829167e+001,-7.94199560813668e+000

4.16429393741414e+005,-1.58608788165351e+001,-8.05155777023799e+000

4.22242531447321e+005,-1.58615620224504e+001,-8.16260906589496e+000

4.28136817531551e+005,-1.58622599423617e+001,-8.27516936322287e+000

4.34113384783250e+005,-1.58629728202824e+001,-8.38925880362143e+000

4.40173381804713e+005,-1.58637009026002e+001,-8.50489780645925e+000

4.46317973232124e+005,-1.58644444381455e+001,-8.62210707385830e+000

4.52548339959385e+005,-1.58652036782716e+001,-8.74090759557075e+000

4.58865679365059e+005,-1.58659788769456e+001,-8.86132065395307e+000

4.65271205542494e+005,-1.58667702908514e+001,-8.98336782903302e+000

4.71766149533147e+005,-1.58675781795046e+001,-9.10707100366960e+000

4.78351759563174e+005,-1.58684028053819e+001,-9.23245236880320e+000

4.85029301283321e+005,-1.58692444340637e+001,-9.35953442879503e+000

4.91800058012158e+005,-1.58701033343917e+001,-9.48834000685274e+000

4.98665330982714e+005,-1.58709797786415e+001,-9.61889225054023e+000

5.05626439592555e+005,-1.58718740427122e+001,-9.75121463736725e+000

5.12684721657352e+005,-1.58727864063313e+001,-9.88533098045836e+000

5.19841533667984e+005,-1.58737171532788e+001,-1.00212654342947e+001

5.27098251051240e+005,-1.58746665716273e+001,-1.01590425005264e+001

5.34456268434150e+005,-1.58756349540023e+001,-1.02986870338512e+001

5.41916999912011e+005,-1.58766225978606e+001,-1.04402242479550e+001

