Freq.,VOut,OutRef

1.00000000000000e+004,-2.37847600561823e+001,-2.67095893063313e-001

1.01395947979003e+004,-2.37847614587139e+001,-2.70824356183305e-001

1.02811382665607e+004,-2.37847629006706e+001,-2.74604864305807e-001

1.04246576084112e+004,-2.37847643831606e+001,-2.78438143849408e-001

1.05701804056138e+004,-2.37847659073230e+001,-2.82324931369963e-001

1.07177346253629e+004,-2.37847674743290e+001,-2.86265973700575e-001

1.08673486252606e+004,-2.37847690853830e+001,-2.90262028093395e-001

1.10190511587661e+004,-2.37847707417227e+001,-2.94313862368748e-001

1.11728713807222e+004,-2.37847724446211e+001,-2.98422255057828e-001

1.13288388529580e+004,-2.37847741953864e+001,-3.02587995557555e-001

1.14869835499703e+004,-2.37847759953641e+001,-3.06811884275627e-001

1.16473358646846e+004,-2.37847778459373e+001,-3.11094732789158e-001

1.18099266142953e+004,-2.37847797485277e+001,-3.15437363998383e-001

1.19747870461893e+004,-2.37847817045973e+001,-3.19840612283909e-001

1.21419488439505e+004,-2.37847837156492e+001,-3.24305323666454e-001

1.23114441334492e+004,-2.37847857832283e+001,-3.28832355971802e-001

1.24833054890161e+004,-2.37847879089233e+001,-3.33422578992456e-001

1.26575659397028e+004,-2.37847900943674e+001,-3.38076874655324e-001

1.28342589756290e+004,-2.37847923412397e+001,-3.42796137190071e-001

1.30134185544193e+004,-2.37847946512663e+001,-3.47581273303180e-001

1.31950791077289e+004,-2.37847970262221e+001,-3.52433202347956e-001

1.33792755478611e+004,-2.37847994679314e+001,-3.57352856504414e-001

1.35660432744767e+004,-2.37848019782705e+001,-3.62341180953599e-001

1.37554181813974e+004,-2.37848045591674e+001,-3.67399134064219e-001

1.39474366635040e+004,-2.37848072126051e+001,-3.72527687571700e-001

1.41421356237309e+004,-2.37848099406218e+001,-3.77727826765399e-001

1.43395524801583e+004,-2.37848127453133e+001,-3.83000550679863e-001

1.45397251732031e+004,-2.37848156288338e+001,-3.88346872283519e-001

1.47426921729110e+004,-2.37848185933984e+001,-3.93767818672392e-001

1.49484924863494e+004,-2.37848216412842e+001,-3.99264431270979e-001

1.51571656651040e+004,-2.37848247748325e+001,-4.04837766025098e-001

1.53687518128801e+004,-2.37848279964499e+001,-4.10488893610113e-001

1.55832915932100e+004,-2.37848313086111e+001,-4.16218899632945e-001

1.58008262372675e+004,-2.37848347138597e+001,-4.22028884841107e-001

1.60213975517924e+004,-2.37848382148113e+001,-4.27919965332039e-001

1.62450479271247e+004,-2.37848418141545e+001,-4.33893272768169e-001

1.64718203453514e+004,-2.37848455146537e+001,-4.39949954592895e-001

1.67017583885674e+004,-2.37848493191508e+001,-4.46091174250068e-001

1.69349062472505e+004,-2.37848532305672e+001,-4.52318111407424e-001

1.71713087287550e+004,-2.37848572519068e+001,-4.58631962180832e-001

1.74110112659224e+004,-2.37848613862573e+001,-4.65033939365451e-001

1.76540599258131e+004,-2.37848656367938e+001,-4.71525272663999e-001

1.79005014185594e+004,-2.37848700067797e+001,-4.78107208926523e-001

1.81503831063432e+004,-2.37848744995705e+001,-4.84781012385687e-001

1.84037530124975e+004,-2.37848791186157e+001,-4.91547964898909e-001

1.86606598307361e+004,-2.37848838674616e+001,-4.98409366194836e-001

1.89211529345119e+004,-2.37848887497542e+001,-5.05366534119832e-001

1.91852823865052e+004,-2.37848937692418e+001,-5.12420804891570e-001

1.94530989482457e+004,-2.37848989297775e+001,-5.19573533353993e-001

1.97246540898671e+004,-2.37849042353229e+001,-5.26826093235164e-001

1.99999999999999e+004,-2.37849096899507e+001,-5.34179877411178e-001

2.02791895958005e+004,-2.37849152978477e+001,-5.41636298170668e-001

2.05622765331213e+004,-2.37849210633183e+001,-5.49196787486252e-001

2.08493152168224e+004,-2.37849269907877e+001,-5.56862797285814e-001

2.11403608112276e+004,-2.37849330848049e+001,-5.64635799732703e-001

2.14354692507258e+004,-2.37849393500469e+001,-5.72517287503040e-001

2.17346972505211e+004,-2.37849457913217e+001,-5.80508774073900e-001

2.20381023175322e+004,-2.37849524135721e+001,-5.88611794009497e-001

2.23457427614443e+004,-2.37849592218797e+001,-5.96827903255513e-001

2.26576777059159e+004,-2.37849662214683e+001,-6.05158679436059e-001

2.29739670999406e+004,-2.37849734177084e+001,-6.13605722152234e-001

2.32946717293690e+004,-2.37849808161211e+001,-6.22170653290272e-001

2.36198532285905e+004,-2.37849884223820e+001,-6.30855117328366e-001

2.39495740923785e+004,-2.37849962423261e+001,-6.39660781650386e-001

2.42838976879009e+004,-2.37850042819520e+001,-6.48589336863559e-001

2.46228882668982e+004,-2.37850125474260e+001,-6.57642497122084e-001

2.49666109780322e+004,-2.37850210450878e+001,-6.66822000450259e-001

2.53151318794055e+004,-2.37850297814544e+001,-6.76129609076947e-001

2.56685179512580e+004,-2.37850387632253e+001,-6.85567109768227e-001

2.60268371088386e+004,-2.37850479972881e+001,-6.95136314168413e-001

2.63901582154578e+004,-2.37850574907232e+001,-7.04839059144223e-001

2.67585510957221e+004,-2.37850672508091e+001,-7.14677207135043e-001

2.71320865489533e+004,-2.37850772850285e+001,-7.24652646506039e-001

2.75108363627948e+004,-2.37850876010735e+001,-7.34767291906229e-001

2.78948733270080e+004,-2.37850982068518e+001,-7.45023084634367e-001

2.82842712474618e+004,-2.37851091104923e+001,-7.55421993006298e-001

2.86791049603164e+004,-2.37851203203514e+001,-7.65966012728644e-001

2.90794503464061e+004,-2.37851318450200e+001,-7.76657167276283e-001

2.94853843458219e+004,-2.37851436933287e+001,-7.87497508280381e-001

2.98969849726987e+004,-2.37851558743559e+001,-7.98489115912467e-001

3.03143313302078e+004,-2.37851683974338e+001,-8.09634099281339e-001

3.07375036257601e+004,-2.37851812721557e+001,-8.20934596832723e-001

3.11665831864199e+004,-2.37851945083832e+001,-8.32392776755030e-001

3.16016524745350e+004,-2.37852081162540e+001,-8.44010837387099e-001

3.20427951035848e+004,-2.37852221061893e+001,-8.55791007637490e-001

3.24900958542493e+004,-2.37852364889017e+001,-8.67735547403421e-001

3.29436406907028e+004,-2.37852512754031e+001,-8.79846748001699e-001

3.34035167771346e+004,-2.37852664770136e+001,-8.92126932597489e-001

3.38698124945009e+004,-2.37852821053697e+001,-9.04578456645891e-001

3.43426174575100e+004,-2.37852981724329e+001,-9.17203708337652e-001

3.48220225318448e+004,-2.37853146904991e+001,-9.30005109046302e-001

3.53081198516260e+004,-2.37853316722079e+001,-9.42985113789115e-001

3.58010028371187e+004,-2.37853491305515e+001,-9.56146211687648e-001

3.63007662126863e+004,-2.37853670788855e+001,-9.69490926436824e-001

3.68075060249948e+004,-2.37853855309380e+001,-9.83021816781635e-001

3.73213196614721e+004,-2.37854045008207e+001,-9.96741476997083e-001

3.78423058690237e+004,-2.37854240030391e+001,-1.01065253737792e+000

3.83705647730104e+004,-2.37854440525034e+001,-1.02475766473305e+000

3.89061978964912e+004,-2.37854646645398e+001,-1.03905956288520e+000

3.94493081797342e+004,-2.37854858549024e+001,-1.05356097318012e+000

3.99999999999998e+004,-2.37855076397842e+001,-1.06826467500048e+000

4.05583791916010e+004,-2.37855300358300e+001,-1.08317348628850e+000

4.11245530662425e+004,-2.37855530601487e+001,-1.09829026407131e+000

4.16986304336447e+004,-2.37855767303257e+001,-1.11361790499940e+000

4.22807216224550e+004,-2.37856010644367e+001,-1.12915934588665e+000

4.28709385014515e+004,-2.37856260810608e+001,-1.14491756425920e+000

4.34693945010421e+004,-2.37856517992945e+001,-1.16089557891503e+000

4.40762046350642e+004,-2.37856782387660e+001,-1.17709645048358e+000

4.46914855228886e+004,-2.37857054196500e+001,-1.19352328200066e+000

4.53153554118317e+004,-2.37857333626825e+001,-1.21017921948354e+000

4.59479341998812e+004,-2.37857620891761e+001,-1.22706745252059e+000

4.65893434587380e+004,-2.37857916210367e+001,-1.24419121486179e+000

4.72397064571810e+004,-2.37858219807787e+001,-1.26155378502247e+000

4.78991481847569e+004,-2.37858531915425e+001,-1.27915848689072e+000

4.85677953758016e+004,-2.37858852771114e+001,-1.29700869034603e+000

4.92457765337964e+004,-2.37859182619293e+001,-1.31510781188279e+000

4.99332219560642e+004,-2.37859521711190e+001,-1.33345931524391e+000

5.06302637588109e+004,-2.37859870305003e+001,-1.35206671206292e+000

5.13370359025159e+004,-2.37860228666097e+001,-1.37093356251070e+000

5.20536742176771e+004,-2.37860597067194e+001,-1.39006347595575e+000

5.27803164309155e+004,-2.37860975788583e+001,-1.40946011162839e+000

5.35171021914442e+004,-2.37861365118314e+001,-1.42912717929611e+000

5.42641730979066e+004,-2.37861765352426e+001,-1.44906843994527e+000

5.50216727255895e+004,-2.37862176795149e+001,-1.46928770647396e+000

5.57897466540159e+004,-2.37862599759136e+001,-1.48978884439172e+000

5.65685424949235e+004,-2.37863034565695e+001,-1.51057577252796e+000

5.73582099206328e+004,-2.37863481545016e+001,-1.53165246375003e+000

5.81589006928121e+004,-2.37863941036418e+001,-1.55302294569073e+000

5.89707686916437e+004,-2.37864413388598e+001,-1.57469130148315e+000

5.97939699453972e+004,-2.37864898959881e+001,-1.59666167050628e+000

6.06286626604156e+004,-2.37865398118484e+001,-1.61893824913910e+000

6.14750072515201e+004,-2.37865911242785e+001,-1.64152529152268e+000

6.23331663728396e+004,-2.37866438721595e+001,-1.66442711033459e+000

6.32033049490698e+004,-2.37866980954440e+001,-1.68764807757105e+000

6.40855902071694e+004,-2.37867538351853e+001,-1.71119262533725e+000

6.49801917084985e+004,-2.37868111335669e+001,-1.73506524664883e+000

6.58872813814055e+004,-2.37868700339330e+001,-1.75927049624485e+000

6.68070335542691e+004,-2.37869305808195e+001,-1.78381299140557e+000

6.77396249890018e+004,-2.37869928199864e+001,-1.80869741278557e+000

6.86852349150199e+004,-2.37870567984504e+001,-1.83392850525176e+000

6.96440450636895e+004,-2.37871225645185e+001,-1.85951107873627e+000

7.06162397032520e+004,-2.37871901678228e+001,-1.88545000909441e+000

7.16020056742374e+004,-2.37872596593556e+001,-1.91175023897738e+000

7.26015324253724e+004,-2.37873310915060e+001,-1.93841677871161e+000

7.36150120499896e+004,-2.37874045180970e+001,-1.96545470719000e+000

7.46426393229441e+004,-2.37874799944235e+001,-1.99286917277350e+000

7.56846117380472e+004,-2.37875575772917e+001,-2.02066539420266e+000

7.67411295460207e+004,-2.37876373250588e+001,-2.04884866152019e+000

7.78123957929823e+004,-2.37877192976744e+001,-2.07742433700278e+000

7.88986163594682e+004,-2.37878035567225e+001,-2.10639785610467e+000

7.99999999999995e+004,-2.37878901654647e+001,-2.13577472841220e+000

8.11167583832018e+004,-2.37879791888841e+001,-2.16556053860709e+000

8.22491061324848e+004,-2.37880706937310e+001,-2.19576094744308e+000

8.33972608672892e+004,-2.37881647485688e+001,-2.22638169273095e+000

8.45614432449099e+004,-2.37882614238221e+001,-2.25742859033608e+000

8.57418770029029e+004,-2.37883607918248e+001,-2.28890753518604e+000

8.69387890020841e+004,-2.37884629268700e+001,-2.32082450228938e+000

8.81524092701283e+004,-2.37885679052616e+001,-2.35318554776531e+000

8.93829710457770e+004,-2.37886758053655e+001,-2.38599680988474e+000

9.06307108236633e+004,-2.37887867076641e+001,-2.41926451012204e+000

9.18958683997622e+004,-2.37889006948104e+001,-2.45299495421751e+000

9.31786869174758e+004,-2.37890178516842e+001,-2.48719453325273e+000

9.44794129143618e+004,-2.37891382654494e+001,-2.52186972473367e+000

9.57982963695136e+004,-2.37892620256128e+001,-2.55702709368929e+000

9.71355907516031e+004,-2.37893892240837e+001,-2.59267329377775e+000

9.84915530675926e+004,-2.37895199552358e+001,-2.62881506840595e+000

9.98664439121282e+004,-2.37896543159698e+001,-2.66545925185948e+000

1.01260527517622e+005,-2.37897924057772e+001,-2.70261277044368e+000

1.02674071805032e+005,-2.37899343268068e+001,-2.74028264363672e+000

1.04107348435354e+005,-2.37900801839311e+001,-2.77847598525339e+000

1.05560632861831e+005,-2.37902300848149e+001,-2.81720000462033e+000

1.07034204382888e+005,-2.37903841399863e+001,-2.85646200776238e+000

1.08528346195813e+005,-2.37905424629070e+001,-2.89626939860124e+000

1.10043345451179e+005,-2.37907051700469e+001,-2.93662968016332e+000

1.11579493308032e+005,-2.37908723809580e+001,-2.97755045580090e+000

1.13137084989847e+005,-2.37910442183511e+001,-3.01903943042433e+000

1.14716419841265e+005,-2.37912208081738e+001,-3.06110441174405e+000

1.16317801385624e+005,-2.37914022796900e+001,-3.10375331152534e+000

1.17941537383287e+005,-2.37915887655617e+001,-3.14699414685407e+000

1.19587939890794e+005,-2.37917804019313e+001,-3.19083504141265e+000

1.21257325320831e+005,-2.37919773285071e+001,-3.23528422676890e+000

1.22950014503040e+005,-2.37921796886489e+001,-3.28035004367476e+000

1.24666332745679e+005,-2.37923876294567e+001,-3.32604094337614e+000

1.26406609898139e+005,-2.37926013018605e+001,-3.37236548893535e+000

1.28171180414339e+005,-2.37928208607117e+001,-3.41933235656277e+000

1.29960383416997e+005,-2.37930464648769e+001,-3.46695033696139e+000

1.31774562762811e+005,-2.37932782773328e+001,-3.51522833668025e+000

1.33614067108538e+005,-2.37935164652636e+001,-3.56417537948160e+000

1.35479249978003e+005,-2.37937612001594e+001,-3.61380060771709e+000

1.37370469830040e+005,-2.37940126579173e+001,-3.66411328371516e+000

1.39288090127379e+005,-2.37942710189436e+001,-3.71512279118047e+000

1.41232479406504e+005,-2.37945364682585e+001,-3.76683863660307e+000

1.43204011348474e+005,-2.37948091956019e+001,-3.81927045067923e+000

1.45203064850745e+005,-2.37950893955416e+001,-3.87242798974340e+000

1.47230024099979e+005,-2.37953772675838e+001,-3.92632113720933e+000

1.49285278645888e+005,-2.37956730162838e+001,-3.98095990502518e+000

1.51369223476094e+005,-2.37959768513606e+001,-4.03635443513657e+000

1.53482259092041e+005,-2.37962889878122e+001,-4.09251500096164e+000

1.55624791585964e+005,-2.37966096460326e+001,-4.14945200887834e+000

1.57797232718936e+005,-2.37969390519315e+001,-4.20717599971979e+000

1.59999999999999e+005,-2.37972774370553e+001,-4.26569765028360e+000

1.62233516766403e+005,-2.37976250387100e+001,-4.32502777485021e+000

1.64498212264969e+005,-2.37979821000859e+001,-4.38517732671297e+000

1.66794521734578e+005,-2.37983488703847e+001,-4.44615739972004e+000

1.69122886489819e+005,-2.37987256049473e+001,-4.50797922982579e+000

1.71483754005805e+005,-2.37991125653847e+001,-4.57065419665547e+000

1.73877578004168e+005,-2.37995100197096e+001,-4.63419382508021e+000

1.76304818540256e+005,-2.37999182424706e+001,-4.69860978680344e+000

1.78765942091554e+005,-2.38003375148877e+001,-4.76391390196026e+000

1.81261421647326e+005,-2.38007681249895e+001,-4.83011814072706e+000

1.83791736799524e+005,-2.38012103677529e+001,-4.89723462494486e+000

1.86357373834951e+005,-2.38016645452429e+001,-4.96527562975370e+000

1.88958825828723e+005,-2.38021309667563e+001,-5.03425358524051e+000

1.91596592739027e+005,-2.38026099489648e+001,-5.10418107809981e+000

1.94271181503206e+005,-2.38031018160618e+001,-5.17507085330672e+000

1.96983106135185e+005,-2.38036068999088e+001,-5.24693581580520e+000

1.99732887824256e+005,-2.38041255401853e+001,-5.31978903220841e+000

2.02521055035243e+005,-2.38046580845393e+001,-5.39364373251444e+000

2.05348143610063e+005,-2.38052048887390e+001,-5.46851331183761e+000

2.08214696870707e+005,-2.38057663168269e+001,-5.54441133215307e+000

2.11121265723661e+005,-2.38063427412749e+001,-5.62135152405971e+000

2.14068408765776e+005,-2.38069345431411e+001,-5.69934778855749e+000

2.17056692391625e+005,-2.38075421122280e+001,-5.77841419884320e+000

2.20086690902357e+005,-2.38081658472421e+001,-5.85856500212420e+000

2.23158986616063e+005,-2.38088061559550e+001,-5.93981462144922e+000

2.26274169979693e+005,-2.38094634553661e+001,-6.02217765756071e+000

2.29432839682530e+005,-2.38101381718662e+001,-6.10566889076589e+000

2.32635602771247e+005,-2.38108307414037e+001,-6.19030328282906e+000

2.35883074766574e+005,-2.38115416096504e+001,-6.27609597888769e+000

2.39175879781588e+005,-2.38122712321710e+001,-6.36306230938938e+000

2.42514650641661e+005,-2.38130200745919e+001,-6.45121779205445e+000

2.45900029006080e+005,-2.38137886127732e+001,-6.54057813386417e+000

2.49332665491357e+005,-2.38145773329812e+001,-6.63115923307497e+000

2.52813219796278e+005,-2.38153867320630e+001,-6.72297718126104e+000

2.56342360828676e+005,-2.38162173176222e+001,-6.81604826538595e+000

2.59920766833993e+005,-2.38170696081973e+001,-6.91038896990543e+000

2.63549125525621e+005,-2.38179441334404e+001,-7.00601597890181e+000

2.67228134217075e+005,-2.38188414342995e+001,-7.10294617825282e+000

2.70958499956006e+005,-2.38197620632011e+001,-7.20119665783491e+000

2.74740939660078e+005,-2.38207065842361e+001,-7.30078471376476e+000

2.78576180254757e+005,-2.38216755733474e+001,-7.40172785067798e+000

2.82464958813007e+005,-2.38226696185201e+001,-7.50404378405011e+000

2.86408022696948e+005,-2.38236893199740e+001,-7.60775044255787e+000

2.90406129701488e+005,-2.38247352903593e+001,-7.71286597048670e+000

2.94460048199957e+005,-2.38258081549547e+001,-7.81940873018192e+000

2.98570557291775e+005,-2.38269085518695e+001,-7.92739730455056e+000

3.02738446952187e+005,-2.38280371322486e+001,-8.03685049961089e+000

3.06964518184081e+005,-2.38291945604814e+001,-8.14778734709459e+000

3.11249583171928e+005,-2.38303815144155e+001,-8.26022710710330e+000

3.15594465437872e+005,-2.38315986855734e+001,-8.37418927082051e+000

3.19999999999997e+005,-2.38328467793759e+001,-8.48969356328065e+000

3.24467033532806e+005,-2.38341265153693e+001,-8.60675994619951e+000

3.28996424529938e+005,-2.38354386274595e+001,-8.72540862086469e+000

3.33589043469155e+005,-2.38367838641509e+001,-8.84566003109033e+000

3.38245772979638e+005,-2.38381629887939e+001,-8.96753486623711e+000

3.42967508011610e+005,-2.38395767798379e+001,-9.09105406429935e+000

3.47755156008335e+005,-2.38410260310933e+001,-9.21623881506027e+000

3.52609637080511e+005,-2.38425115520016e+001,-9.34311056331777e+000

3.57531884183106e+005,-2.38440341679147e+001,-9.47169101218179e+000

3.62522843294651e+005,-2.38455947203843e+001,-9.60200212644384e+000

3.67583473599047e+005,-2.38471940674615e+001,-9.73406613602133e+000

3.72714747669902e+005,-2.38488330840083e+001,-9.86790553947513e+000

3.77917651657445e+005,-2.38505126620208e+001,-1.00035431076041e+001

3.83193185478053e+005,-2.38522337109660e+001,-1.01410018871136e+001

3.88542363006410e+005,-2.38539971581324e+001,-1.02803052043608e+001

3.93966212270369e+005,-2.38558039489953e+001,-1.04214766691756e+001

3.99465775648511e+005,-2.38576550475980e+001,-1.05645401787566e+001

4.05042110070485e+005,-2.38595514369505e+001,-1.07095199216410e+001

4.10696287220124e+005,-2.38614941194451e+001,-1.08564403817488e+001

4.16429393741414e+005,-2.38634841172921e+001,-1.10053263424974e+001

4.22242531447321e+005,-2.38655224729745e+001,-1.11562028909873e+001

4.28136817531551e+005,-2.38676102497245e+001,-1.13090954222537e+001

4.34113384783250e+005,-2.38697485320225e+001,-1.14640296435841e+001

4.40173381804713e+005,-2.38719384261188e+001,-1.16210315788956e+001

4.46317973232124e+005,-2.38741810605809e+001,-1.17801275731701e+001

4.52548339959385e+005,-2.38764775868657e+001,-1.19413442969432e+001

4.58865679365059e+005,-2.38788291799194e+001,-1.21047087508395e+001

4.65271205542494e+005,-2.38812370388051e+001,-1.22702482701519e+001

4.71766149533147e+005,-2.38837023873602e+001,-1.24379905294561e+001

4.78351759563174e+005,-2.38862264748840e+001,-1.26079635472561e+001

4.85029301283321e+005,-2.38888105768569e+001,-1.27801956906512e+001

4.91800058012158e+005,-2.38914559956927e+001,-1.29547156800178e+001

4.98665330982714e+005,-2.38941640615247e+001,-1.31315525936979e+001

5.05626439592555e+005,-2.38969361330265e+001,-1.33107358726837e+001

5.12684721657352e+005,-2.38997735982691e+001,-1.34922953252901e+001

5.19841533667984e+005,-2.39026778756148e+001,-1.36762611318030e+001

5.27098251051240e+005,-2.39056504146491e+001,-1.38626638490948e+001

5.34456268434150e+005,-2.39086926971508e+001,-1.40515344151924e+001

5.41916999912011e+005,-2.39118062381022e+001,-1.42429041537878e+001

