Freq.,VOut,OutRef

1.00000000000000e+004,-4.43119627269231e+000,-4.63764047796345e-002

1.01395947979003e+004,-4.43119635605320e+000,-4.70237867856801e-002

1.02811382665607e+004,-4.43119644175644e+000,-4.76802055496838e-002

1.04246576084112e+004,-4.43119652986865e+000,-4.83457871994151e-002

1.05701804056138e+004,-4.43119662045662e+000,-4.90206596339008e-002

1.07177346253629e+004,-4.43119671359023e+000,-4.97049525289981e-002

1.08673486252606e+004,-4.43119680934122e+000,-5.03987973703983e-002

1.10190511587661e+004,-4.43119690778296e+000,-5.11023274812521e-002

1.11728713807222e+004,-4.43119700899070e+000,-5.18156780464066e-002

1.13288388529580e+004,-4.43119711304241e+000,-5.25389861324416e-002

1.14869835499703e+004,-4.43119722001824e+000,-5.32723907193051e-002

1.16473358646846e+004,-4.43119732999991e+000,-5.40160327298965e-002

1.18099266142953e+004,-4.43119744307164e+000,-5.47700550526627e-002

1.19747870461893e+004,-4.43119755932087e+000,-5.55346025640396e-002

1.21419488439505e+004,-4.43119767883623e+000,-5.63098221695175e-002

1.23114441334492e+004,-4.43119780171002e+000,-5.70958628172326e-002

1.24833054890161e+004,-4.43119792803591e+000,-5.78928755415370e-002

1.26575659397028e+004,-4.43119805791147e+000,-5.87010134749479e-002

1.28342589756290e+004,-4.43119819143579e+000,-5.95204318952391e-002

1.30134185544193e+004,-4.43119832871155e+000,-6.03512882409134e-002

1.31950791077289e+004,-4.43119846984432e+000,-6.11937421466908e-002

1.33792755478611e+004,-4.43119861494204e+000,-6.20479554785398e-002

1.35660432744767e+004,-4.43119876411626e+000,-6.29140923568690e-002

1.37554181813974e+004,-4.43119891748111e+000,-6.37923191952552e-002

1.39474366635040e+004,-4.43119907515463e+000,-6.46828047237383e-002

1.41421356237309e+004,-4.43119923725779e+000,-6.55857200293929e-002

1.43395524801583e+004,-4.43119940391430e+000,-6.65012385894500e-002

1.45397251732031e+004,-4.43119957525261e+000,-6.74295362936222e-002

1.47426921729110e+004,-4.43119975140402e+000,-6.83707914890502e-002

1.49484924863494e+004,-4.43119993250348e+000,-6.93251850120338e-002

1.51571656651040e+004,-4.43120011868988e+000,-7.02929002194788e-002

1.53687518128801e+004,-4.43120031010603e+000,-7.12741230258832e-002

1.55832915932100e+004,-4.43120050689849e+000,-7.22690419408249e-002

1.58008262372675e+004,-4.43120070921855e+000,-7.32778480988535e-002

1.60213975517924e+004,-4.43120091722093e+000,-7.43007353056084e-002

1.62450479271247e+004,-4.43120113106528e+000,-7.53379000663253e-002

1.64718203453514e+004,-4.43120135091536e+000,-7.63895416286267e-002

1.67017583885674e+004,-4.43120157693960e+000,-7.74558620191786e-002

1.69349062472505e+004,-4.43120180931165e+000,-7.85370660782744e-002

1.71713087287550e+004,-4.43120204820900e+000,-7.96333615097261e-002

1.74110112659224e+004,-4.43120229381510e+000,-8.07449589076653e-002

1.76540599258131e+004,-4.43120254631798e+000,-8.18720718062218e-002

1.79005014185594e+004,-4.43120280591093e+000,-8.30149167173186e-002

1.81503831063432e+004,-4.43120307279299e+000,-8.41737131700398e-002

1.84037530124975e+004,-4.43120334716857e+000,-8.53486837555750e-002

1.86606598307361e+004,-4.43120362924768e+000,-8.65400541696793e-002

1.89211529345119e+004,-4.43120391924620e+000,-8.77480532547504e-002

1.91852823865052e+004,-4.43120421738656e+000,-8.89729130412064e-002

1.94530989482457e+004,-4.43120452389661e+000,-9.02148687989448e-002

1.97246540898671e+004,-4.43120483901111e+000,-9.14741590748098e-002

1.99999999999999e+004,-4.43120516297130e+000,-9.27510257413469e-002

2.02791895958005e+004,-4.43120549602513e+000,-9.40457140436037e-002

2.05622765331213e+004,-4.43120583842733e+000,-9.53584726461124e-002

2.08493152168224e+004,-4.43120619043987e+000,-9.66895536789945e-002

2.11403608112276e+004,-4.43120655233199e+000,-9.80392127868999e-002

2.14354692507258e+004,-4.43120692438054e+000,-9.94077091773841e-002

2.17346972505211e+004,-4.43120730687022e+000,-1.00795305669914e-001

2.20381023175322e+004,-4.43120770009335e+000,-1.02202268749162e-001

2.23457427614443e+004,-4.43120810435066e+000,-1.03628868611471e-001

2.26576777059159e+004,-4.43120851995089e+000,-1.05075379222087e-001

2.29739670999406e+004,-4.43120894721194e+000,-1.06542078360007e-001

2.32946717293690e+004,-4.43120938646013e+000,-1.08029247677398e-001

2.36198532285905e+004,-4.43120983803118e+000,-1.09537172749936e-001

2.39495740923785e+004,-4.43121030227005e+000,-1.11066143132214e-001

2.42838976879009e+004,-4.43121077953129e+000,-1.12616452413929e-001

2.46228882668982e+004,-4.43121127017948e+000,-1.14188398273238e-001

2.49666109780322e+004,-4.43121177458884e+000,-1.15782282539034e-001

2.53151318794055e+004,-4.43121229314491e+000,-1.17398411239305e-001

2.56685179512580e+004,-4.43121282624295e+000,-1.19037094670308e-001

2.60268371088386e+004,-4.43121337429009e+000,-1.20698647445884e-001

2.63901582154578e+004,-4.43121393770412e+000,-1.22383388564884e-001

2.67585510957221e+004,-4.43121451691503e+000,-1.24091641465954e-001

2.71320865489533e+004,-4.43121511236438e+000,-1.25823734093753e-001

2.75108363627948e+004,-4.43121572450606e+000,-1.27579998959747e-001

2.78948733270080e+004,-4.43121635380656e+000,-1.29360773204868e-001

2.82842712474618e+004,-4.43121700074549e+000,-1.31166398663314e-001

2.86791049603164e+004,-4.43121766581573e+000,-1.32997221928589e-001

2.90794503464061e+004,-4.43121834952363e+000,-1.34853594420315e-001

2.94853843458219e+004,-4.43121905239001e+000,-1.36735872447218e-001

2.98969849726987e+004,-4.43121977494974e+000,-1.38644417279805e-001

3.03143313302078e+004,-4.43122051775254e+000,-1.40579595216866e-001

3.07375036257601e+004,-4.43122128136381e+000,-1.42541777651745e-001

3.11665831864199e+004,-4.43122206636382e+000,-1.44531341150785e-001

3.16016524745350e+004,-4.43122287334993e+000,-1.46548667513596e-001

3.20427951035848e+004,-4.43122370293524e+000,-1.48594143856492e-001

3.24900958542493e+004,-4.43122455575003e+000,-1.50668162679961e-001

3.29436406907028e+004,-4.43122543244231e+000,-1.52771121942440e-001

3.34035167771346e+004,-4.43122633367757e+000,-1.54903425140084e-001

3.38698124945009e+004,-4.43122726013981e+000,-1.57065481379809e-001

3.43426174575100e+004,-4.43122821253200e+000,-1.59257705457379e-001

3.48220225318448e+004,-4.43122919157674e+000,-1.61480517934347e-001

3.53081198516260e+004,-4.43123019801627e+000,-1.63734345221210e-001

3.58010028371187e+004,-4.43123123261329e+000,-1.66019619656419e-001

3.63007662126863e+004,-4.43123229615159e+000,-1.68336779587103e-001

3.68075060249948e+004,-4.43123338943657e+000,-1.70686269452506e-001

3.73213196614721e+004,-4.43123451329600e+000,-1.73068539867328e-001

3.78423058690237e+004,-4.43123566857996e+000,-1.75484047709364e-001

3.83705647730104e+004,-4.43123685616245e+000,-1.77933256201016e-001

3.89061978964912e+004,-4.43123807694095e+000,-1.80416635002389e-001

3.94493081797342e+004,-4.43123933183802e+000,-1.82934660294337e-001

3.99999999999998e+004,-4.43124062180125e+000,-1.85487814872153e-001

4.05583791916010e+004,-4.43124194780457e+000,-1.88076588232670e-001

4.11245530662425e+004,-4.43124331084817e+000,-1.90701476671121e-001

4.16986304336447e+004,-4.43124471195988e+000,-1.93362983370317e-001

4.22807216224550e+004,-4.43124615219571e+000,-1.96061618496514e-001

4.28709385014515e+004,-4.43124763264027e+000,-1.98797899296979e-001

4.34693945010421e+004,-4.43124915440825e+000,-2.01572350192983e-001

4.40762046350642e+004,-4.43125071864441e+000,-2.04385502882233e-001

4.46914855228886e+004,-4.43125232652473e+000,-2.07237896437537e-001

4.53153554118317e+004,-4.43125397925746e+000,-2.10130077405608e-001

4.59479341998812e+004,-4.43125567808358e+000,-2.13062599911976e-001

4.65893434587380e+004,-4.43125742427790e+000,-2.16036025762858e-001

4.72397064571810e+004,-4.43125921914989e+000,-2.19050924550949e-001

4.78991481847569e+004,-4.43126106404452e+000,-2.22107873762004e-001

4.85677953758016e+004,-4.43126296034340e+000,-2.25207458881320e-001

4.92457765337964e+004,-4.43126490946541e+000,-2.28350273503993e-001

4.99332219560642e+004,-4.43126691286784e+000,-2.31536919446492e-001

5.06302637588109e+004,-4.43126897204729e+000,-2.34768006857312e-001

5.13370359025159e+004,-4.43127108854114e+000,-2.38044154328194e-001

5.20536742176771e+004,-4.43127326392806e+000,-2.41365989013142e-001

5.27803164309155e+004,-4.43127549982904e+000,-2.44734146743860e-001

5.35171021914442e+004,-4.43127779790882e+000,-2.48149272146550e-001

5.42641730979066e+004,-4.43128015987718e+000,-2.51612018759810e-001

5.50216727255895e+004,-4.43128258748930e+000,-2.55123049160415e-001

5.57897466540159e+004,-4.43128508254779e+000,-2.58683035080269e-001

5.65685424949235e+004,-4.43128764690331e+000,-2.62292657535210e-001

5.73582099206328e+004,-4.43129028245604e+000,-2.65952606947592e-001

5.81589006928121e+004,-4.43129299115704e+000,-2.69663583273471e-001

5.89707686916437e+004,-4.43129577500903e+000,-2.73426296134727e-001

5.97939699453972e+004,-4.43129863606819e+000,-2.77241464946374e-001

6.06286626604156e+004,-4.43130157644551e+000,-2.81109819048265e-001

6.14750072515201e+004,-4.43130459830758e+000,-2.85032097842769e-001

6.23331663728396e+004,-4.43130770387875e+000,-2.89009050925212e-001

6.32033049490698e+004,-4.43131089544184e+000,-2.93041438225504e-001

6.40855902071694e+004,-4.43131417533987e+000,-2.97130030145408e-001

6.49801917084985e+004,-4.43131754597793e+000,-3.01275607696141e-001

6.58872813814055e+004,-4.43132100982401e+000,-3.05478962645692e-001

6.68070335542691e+004,-4.43132456941081e+000,-3.09740897660240e-001

6.77396249890018e+004,-4.43132822733736e+000,-3.14062226450679e-001

6.86852349150199e+004,-4.43133198627075e+000,-3.18443773918535e-001

6.96440450636895e+004,-4.43133584894725e+000,-3.22886376308933e-001

7.06162397032520e+004,-4.43133981817445e+000,-3.27390881358903e-001

7.16020056742374e+004,-4.43134389683279e+000,-3.31958148451702e-001

7.26015324253724e+004,-4.43134808787729e+000,-3.36589048770671e-001

7.36150120499896e+004,-4.43135239433897e+000,-3.41284465459099e-001

7.46426393229441e+004,-4.43135681932732e+000,-3.46045293774415e-001

7.56846117380472e+004,-4.43136136603116e+000,-3.50872441253978e-001

7.67411295460207e+004,-4.43136603772127e+000,-3.55766827873258e-001

7.78123957929823e+004,-4.43137083775191e+000,-3.60729386212653e-001

7.88986163594682e+004,-4.43137576956293e+000,-3.65761061621937e-001

7.99999999999995e+004,-4.43138083668094e+000,-3.70862812392874e-001

8.11167583832018e+004,-4.43138604272229e+000,-3.76035609924528e-001

8.22491061324848e+004,-4.43139139139448e+000,-3.81280438897399e-001

8.33972608672892e+004,-4.43139688649785e+000,-3.86598297451241e-001

8.45614432449099e+004,-4.43140253192846e+000,-3.91990197354628e-001

8.57418770029029e+004,-4.43140833167919e+000,-3.97457164189958e-001

8.69387890020841e+004,-4.43141428984228e+000,-4.03000237531116e-001

8.81524092701283e+004,-4.43142041061172e+000,-4.08620471123321e-001

8.93829710457770e+004,-4.43142669828458e+000,-4.14318933073441e-001

9.06307108236633e+004,-4.43143315726365e+000,-4.20096706032627e-001

9.18958683997622e+004,-4.43143979205967e+000,-4.25954887385248e-001

9.31786869174758e+004,-4.43144660729307e+000,-4.31894589441846e-001

9.44794129143618e+004,-4.43145360769642e+000,-4.37916939630763e-001

9.57982963695136e+004,-4.43146079811645e+000,-4.44023080694341e-001

9.71355907516031e+004,-4.43146818351673e+000,-4.50214170882732e-001

9.84915530675926e+004,-4.43147576897893e+000,-4.56491384159796e-001

9.98664439121282e+004,-4.43148355970590e+000,-4.62855910399469e-001

1.01260527517622e+005,-4.43149156102378e+000,-4.69308955589321e-001

1.02674071805032e+005,-4.43149977838342e+000,-4.75851742042681e-001

1.04107348435354e+005,-4.43150821736360e+000,-4.82485508599630e-001

1.05560632861831e+005,-4.43151688367261e+000,-4.89211510842010e-001

1.07034204382888e+005,-4.43152578315059e+000,-4.96031021305143e-001

1.08528346195813e+005,-4.43153492177190e+000,-5.02945329691344e-001

1.10043345451179e+005,-4.43154430564679e+000,-5.09955743090368e-001

1.11579493308032e+005,-4.43155394102406e+000,-5.17063586195739e-001

1.13137084989847e+005,-4.43156383429301e+000,-5.24270201527767e-001

1.14716419841265e+005,-4.43157399198519e+000,-5.31576949659170e-001

1.16317801385624e+005,-4.43158442077681e+000,-5.38985209439694e-001

1.17941537383287e+005,-4.43159512749069e+000,-5.46496378225285e-001

1.19587939890794e+005,-4.43160611909802e+000,-5.54111872109668e-001

1.21257325320831e+005,-4.43161740272041e+000,-5.61833126157538e-001

1.22950014503040e+005,-4.43162898563175e+000,-5.69661594640551e-001

1.24666332745679e+005,-4.43164087525959e+000,-5.77598751276665e-001

1.26406609898139e+005,-4.43165307918749e+000,-5.85646089467775e-001

1.28171180414339e+005,-4.43166560515579e+000,-5.93805122547699e-001

1.29960383416997e+005,-4.43167846106396e+000,-6.02077384022040e-001

1.31774562762811e+005,-4.43169165497149e+000,-6.10464427819920e-001

1.33614067108538e+005,-4.43170519509898e+000,-6.18967828545359e-001

1.35479249978003e+005,-4.43171908982998e+000,-6.27589181725994e-001

1.37370469830040e+005,-4.43173334771153e+000,-6.36330104072121e-001

1.39288090127379e+005,-4.43174797745502e+000,-6.45192233733949e-001

1.41232479406504e+005,-4.43176298793743e+000,-6.54177230560687e-001

1.43204011348474e+005,-4.43177838820119e+000,-6.63286776366369e-001

1.45203064850745e+005,-4.43179418745524e+000,-6.72522575192961e-001

1.47230024099979e+005,-4.43181039507465e+000,-6.81886353581689e-001

1.49285278645888e+005,-4.43182702060122e+000,-6.91379860840508e-001

1.51369223476094e+005,-4.43184407374278e+000,-7.01004869321292e-001

1.53482259092041e+005,-4.43186156437294e+000,-7.10763174695126e-001

1.55624791585964e+005,-4.43187950253030e+000,-7.20656596231754e-001

1.57797232718936e+005,-4.43189789841772e+000,-7.30686977080866e-001

1.59999999999999e+005,-4.43191676240067e+000,-7.40856184559598e-001

1.62233516766403e+005,-4.43193610500598e+000,-7.51166110438592e-001

1.64498212264969e+005,-4.43195593691987e+000,-7.61618671233830e-001

1.66794521734578e+005,-4.43197626898582e+000,-7.72215808499956e-001

1.69122886489819e+005,-4.43199711220170e+000,-7.82959489129391e-001

1.71483754005805e+005,-4.43201847771727e+000,-7.93851705650947e-001

1.73877578004168e+005,-4.43204037683057e+000,-8.04894476533731e-001

1.76304818540256e+005,-4.43206282098393e+000,-8.16089846495826e-001

1.78765942091554e+005,-4.43208582176030e+000,-8.27439886812602e-001

1.81261421647326e+005,-4.43210939087803e+000,-8.38946695632245e-001

1.83791736799524e+005,-4.43213354018598e+000,-8.50612398292897e-001

1.86357373834951e+005,-4.43215828165781e+000,-8.62439147643374e-001

1.88958825828723e+005,-4.43218362738562e+000,-8.74429124369410e-001

1.91596592739027e+005,-4.43220958957311e+000,-8.86584537322803e-001

1.94271181503206e+005,-4.43223618052835e+000,-8.98907623853990e-001

1.96983106135185e+005,-4.43226341265573e+000,-9.11400650148970e-001

1.99732887824256e+005,-4.43229129844688e+000,-9.24065911574282e-001

2.02521055035243e+005,-4.43231985047193e+000,-9.36905733019338e-001

2.05348143610063e+005,-4.43234908136877e+000,-9.49922469251490e-001

2.08214696870707e+005,-4.43237900383287e+000,-9.63118505268757e-001

2.11121265723661e+005,-4.43240963060516e+000,-9.76496256663831e-001

2.14068408765776e+005,-4.43244097445984e+000,-9.90058169989500e-001

2.17056692391625e+005,-4.43247304819117e+000,-1.00380672313095e+000

2.20086690902357e+005,-4.43250586459950e+000,-1.01774442568248e+000

2.23158986616063e+005,-4.43253943647581e+000,-1.03187381933449e+000

2.26274169979693e+005,-4.43257377658636e+000,-1.04619747826006e+000

2.29432839682530e+005,-4.43260889765553e+000,-1.06071800951406e+000

2.32635602771247e+005,-4.43264481234796e+000,-1.07543805343623e+000

2.35883074766574e+005,-4.43268153324963e+000,-1.09036028406239e+000

2.39175879781588e+005,-4.43271907284812e+000,-1.10548740954155e+000

2.42514650641661e+005,-4.43275744351140e+000,-1.12082217256354e+000

2.45900029006080e+005,-4.43279665746588e+000,-1.13636735079198e+000

2.49332665491357e+005,-4.43283672677280e+000,-1.15212575730953e+000

2.52813219796278e+005,-4.43287766330433e+000,-1.16810024106647e+000

2.56342360828676e+005,-4.43291947871754e+000,-1.18429368734499e+000

2.59920766833993e+005,-4.43296218442765e+000,-1.20070901822906e+000

2.63549125525621e+005,-4.43300579158000e+000,-1.21734919308640e+000

2.67228134217075e+005,-4.43305031102067e+000,-1.23421720905975e+000

2.70958499956006e+005,-4.43309575326596e+000,-1.25131610157144e+000

2.74740939660078e+005,-4.43314212847020e+000,-1.26864894483815e+000

2.78576180254757e+005,-4.43318944639293e+000,-1.28621885239723e+000

2.82464958813007e+005,-4.43323771636376e+000,-1.30402897764964e+000

2.86408022696948e+005,-4.43328694724690e+000,-1.32208251441109e+000

2.90406129701488e+005,-4.43333714740373e+000,-1.34038269748118e+000

2.94460048199957e+005,-4.43338832465407e+000,-1.35893280322494e+000

2.98570557291775e+005,-4.43344048623647e+000,-1.37773615017027e+000

3.02738446952187e+005,-4.43349363876660e+000,-1.39679609962134e+000

3.06964518184081e+005,-4.43354778819472e+000,-1.41611605628834e+000

3.11249583171928e+005,-4.43360293976158e+000,-1.43569946893463e+000

3.15594465437872e+005,-4.43365909795327e+000,-1.45554983103965e+000

3.19999999999997e+005,-4.43371626645436e+000,-1.47567068148396e+000

3.24467033532806e+005,-4.43377444810020e+000,-1.49606560525041e+000

3.28996424529938e+005,-4.43383364482768e+000,-1.51673823414580e+000

3.33589043469155e+005,-4.43389385762488e+000,-1.53769224754444e+000

3.38245772979638e+005,-4.43395508647963e+000,-1.55893137315089e+000

3.42967508011610e+005,-4.43401733032689e+000,-1.58045938778635e+000

3.47755156008335e+005,-4.43408058699490e+000,-1.60228011819717e+000

3.52609637080511e+005,-4.43414485315074e+000,-1.62439744188581e+000

3.57531884183106e+005,-4.43421012424455e+000,-1.64681528796709e+000

3.62522843294651e+005,-4.43427639445302e+000,-1.66953763804919e+000

3.67583473599047e+005,-4.43434365662222e+000,-1.69256852713808e+000

3.72714747669902e+005,-4.43441190220952e+000,-1.71591204457103e+000

3.77917651657445e+005,-4.43448112122503e+000,-1.73957233497443e+000

3.83193185478053e+005,-4.43455130217257e+000,-1.76355359924883e+000

3.88542363006410e+005,-4.43462243199000e+000,-1.78786009558436e+000

3.93966212270369e+005,-4.43469449598948e+000,-1.81249614050152e+000

3.99465775648511e+005,-4.43476747779766e+000,-1.83746610992156e+000

4.05042110070485e+005,-4.43484135929535e+000,-1.86277444026873e+000

4.10696287220124e+005,-4.43491612055771e+000,-1.88842562959864e+000

4.16429393741414e+005,-4.43499173979453e+000,-1.91442423875869e+000

4.22242531447321e+005,-4.43506819329052e+000,-1.94077489258052e+000

4.28136817531551e+005,-4.43514545534686e+000,-1.96748228109900e+000

4.34113384783250e+005,-4.43522349822240e+000,-1.99455116080691e+000

4.40173381804713e+005,-4.43530229207646e+000,-2.02198635593735e+000

4.46317973232124e+005,-4.43538180491219e+000,-2.04979275977946e+000

4.52548339959385e+005,-4.43546200252096e+000,-2.07797533602444e+000

4.58865679365059e+005,-4.43554284842821e+000,-2.10653912014298e+000

4.65271205542494e+005,-4.43562430384076e+000,-2.13548922079366e+000

4.71766149533147e+005,-4.43570632759537e+000,-2.16483082126228e+000

4.78351759563174e+005,-4.43578887610927e+000,-2.19456918093289e+000

4.85029301283321e+005,-4.43587190333253e+000,-2.22470963678677e+000

4.91800058012158e+005,-4.43595536070239e+000,-2.25525760493428e+000

4.98665330982714e+005,-4.43603919710007e+000,-2.28621858217209e+000

5.05626439592555e+005,-4.43612335880924e+000,-2.31759814757365e+000

5.12684721657352e+005,-4.43620778947781e+000,-2.34940196410406e+000

5.19841533667984e+005,-4.43629243008155e+000,-2.38163578026424e+000

5.27098251051240e+005,-4.43637721889105e+000,-2.41430543176015e+000

5.34456268434150e+005,-4.43646209144085e+000,-2.44741684319945e+000

5.41916999912011e+005,-4.43654698050227e+000,-2.48097602981035e+000

