Freq.,VOut,OutRef

1.00000000000000e+004,-1.62735987618033e+001,-2.40201571087714e-001

1.01395947979003e+004,-1.62735993686595e+001,-2.43554634045036e-001

1.02811382665607e+004,-1.62735999925743e+001,-2.46954502911276e-001

1.04246576084112e+004,-1.62736006340269e+001,-2.50401831027503e-001

1.05701804056138e+004,-1.62736012935105e+001,-2.53897280849394e-001

1.07177346253629e+004,-1.62736019715313e+001,-2.57441524082406e-001

1.08673486252606e+004,-1.62736026686109e+001,-2.61035241801242e-001

1.10190511587661e+004,-1.62736033852846e+001,-2.64679124590516e-001

1.11728713807222e+004,-1.62736041221031e+001,-2.68373872670265e-001

1.13288388529580e+004,-1.62736048796327e+001,-2.72120196032762e-001

1.14869835499703e+004,-1.62736056584553e+001,-2.75918814580244e-001

1.16473358646846e+004,-1.62736064591693e+001,-2.79770458260227e-001

1.18099266142953e+004,-1.62736072823899e+001,-2.83675867208404e-001

1.19747870461893e+004,-1.62736081287497e+001,-2.87635791888312e-001

1.21419488439505e+004,-1.62736089988988e+001,-2.91650993237541e-001

1.23114441334492e+004,-1.62736098935058e+001,-2.95722242812770e-001

1.24833054890161e+004,-1.62736108132582e+001,-2.99850322935954e-001

1.26575659397028e+004,-1.62736117588622e+001,-3.04036026850388e-001

1.28342589756290e+004,-1.62736127310446e+001,-3.08280158864586e-001

1.30134185544193e+004,-1.62736137305522e+001,-3.12583534514300e-001

1.31950791077289e+004,-1.62736147581527e+001,-3.16946980714893e-001

1.33792755478611e+004,-1.62736158146356e+001,-3.21371335920537e-001

1.35660432744767e+004,-1.62736169008124e+001,-3.25857450286236e-001

1.37554181813974e+004,-1.62736180175176e+001,-3.30406185829950e-001

1.39474366635040e+004,-1.62736191656088e+001,-3.35018416598444e-001

1.41421356237309e+004,-1.62736203459681e+001,-3.39695028834881e-001

1.43395524801583e+004,-1.62736215595019e+001,-3.44436921149942e-001

1.45397251732031e+004,-1.62736228071426e+001,-3.49245004691016e-001

1.47426921729110e+004,-1.62736240898483e+001,-3.54120203321731e-001

1.49484924863494e+004,-1.62736254086042e+001,-3.59063453795507e-001

1.51571656651040e+004,-1.62736267644233e+001,-3.64075705935920e-001

1.53687518128801e+004,-1.62736281583467e+001,-3.69157922820885e-001

1.55832915932100e+004,-1.62736295914449e+001,-3.74311080965478e-001

1.58008262372675e+004,-1.62736310648187e+001,-3.79536170508785e-001

1.60213975517924e+004,-1.62736325795994e+001,-3.84834195406831e-001

1.62450479271247e+004,-1.62736341369503e+001,-3.90206173621502e-001

1.64718203453514e+004,-1.62736357380673e+001,-3.95653137317156e-001

1.67017583885674e+004,-1.62736373841799e+001,-4.01176133060004e-001

1.69349062472505e+004,-1.62736390765520e+001,-4.06776222017162e-001

1.71713087287550e+004,-1.62736408164831e+001,-4.12454480160790e-001

1.74110112659224e+004,-1.62736426053091e+001,-4.18211998472942e-001

1.76540599258131e+004,-1.62736444444033e+001,-4.24049883158150e-001

1.79005014185594e+004,-1.62736463351779e+001,-4.29969255851057e-001

1.81503831063432e+004,-1.62736482790843e+001,-4.35971253835228e-001

1.84037530124975e+004,-1.62736502776149e+001,-4.42057030259014e-001

1.86606598307361e+004,-1.62736523323038e+001,-4.48227754357345e-001

1.89211529345119e+004,-1.62736544447283e+001,-4.54484611675511e-001

1.91852823865052e+004,-1.62736566165099e+001,-4.60828804296984e-001

1.94530989482457e+004,-1.62736588493155e+001,-4.67261551073191e-001

1.97246540898671e+004,-1.62736611448588e+001,-4.73784087856599e-001

1.99999999999999e+004,-1.62736635049017e+001,-4.80397667739149e-001

2.02791895958005e+004,-1.62736659312555e+001,-4.87103561289387e-001

2.05622765331213e+004,-1.62736684257820e+001,-4.93903056800793e-001

2.08493152168224e+004,-1.62736709903957e+001,-5.00797460532185e-001

2.11403608112276e+004,-1.62736736270643e+001,-5.07788096963759e-001

2.14354692507258e+004,-1.62736763378111e+001,-5.14876309047311e-001

2.17346972505211e+004,-1.62736791247158e+001,-5.22063458463821e-001

2.20381023175322e+004,-1.62736819899167e+001,-5.29350925885148e-001

2.23457427614443e+004,-1.62736849356118e+001,-5.36740111238899e-001

2.26576777059159e+004,-1.62736879640609e+001,-5.44232433972713e-001

2.29739670999406e+004,-1.62736910775870e+001,-5.51829333331942e-001

2.32946717293690e+004,-1.62736942785783e+001,-5.59532268629426e-001

2.36198532285905e+004,-1.62736975694899e+001,-5.67342719528286e-001

2.39495740923785e+004,-1.62737009528458e+001,-5.75262186323461e-001

2.42838976879009e+004,-1.62737044312406e+001,-5.83292190229759e-001

2.46228882668982e+004,-1.62737080073415e+001,-5.91434273672133e-001

2.49666109780322e+004,-1.62737116838908e+001,-5.99690000580326e-001

2.53151318794055e+004,-1.62737154637072e+001,-6.08060956689814e-001

2.56685179512580e+004,-1.62737193496887e+001,-6.16548749842191e-001

2.60268371088386e+004,-1.62737233448142e+001,-6.25155010295723e-001

2.63901582154578e+004,-1.62737274521462e+001,-6.33881391034739e-001

2.67585510957221e+004,-1.62737316748328e+001,-6.42729568086122e-001

2.71320865489533e+004,-1.62737360161103e+001,-6.51701240840380e-001

2.75108363627948e+004,-1.62737404793059e+001,-6.60798132374984e-001

2.78948733270080e+004,-1.62737450678394e+001,-6.70021989785255e-001

2.82842712474618e+004,-1.62737497852266e+001,-6.79374584517338e-001

2.86791049603164e+004,-1.62737546350819e+001,-6.88857712705078e-001

2.90794503464061e+004,-1.62737596211203e+001,-6.98473195516271e-001

2.94853843458219e+004,-1.62737647471614e+001,-7.08222879496446e-001

2.98969849726987e+004,-1.62737700171310e+001,-7.18108636924975e-001

3.03143313302078e+004,-1.62737754350652e+001,-7.28132366170229e-001

3.07375036257601e+004,-1.62737810051128e+001,-7.38295992052035e-001

3.11665831864199e+004,-1.62737867315385e+001,-7.48601466209535e-001

3.16016524745350e+004,-1.62737926187263e+001,-7.59050767473374e-001

3.20427951035848e+004,-1.62737986711829e+001,-7.69645902241765e-001

3.24900958542493e+004,-1.62738048935408e+001,-7.80388904865517e-001

3.29436406907028e+004,-1.62738112905618e+001,-7.91281838034058e-001

3.34035167771346e+004,-1.62738178671413e+001,-8.02326793167456e-001

3.38698124945009e+004,-1.62738246283108e+001,-8.13525890817636e-001

3.43426174575100e+004,-1.62738315792427e+001,-8.24881281070977e-001

3.48220225318448e+004,-1.62738387252538e+001,-8.36395143957277e-001

3.53081198516260e+004,-1.62738460718092e+001,-8.48069689864656e-001

3.58010028371187e+004,-1.62738536245268e+001,-8.59907159962356e-001

3.63007662126863e+004,-1.62738613891810e+001,-8.71909826624563e-001

3.68075060249948e+004,-1.62738693717076e+001,-8.84079993864218e-001

3.73213196614721e+004,-1.62738775782076e+001,-8.96419997771570e-001

3.78423058690237e+004,-1.62738860149527e+001,-9.08932206955874e-001

3.83705647730104e+004,-1.62738946883891e+001,-9.21619022998840e-001

3.89061978964912e+004,-1.62739036051427e+001,-9.34482880909093e-001

3.94493081797342e+004,-1.62739127720244e+001,-9.47526249584489e-001

3.99999999999998e+004,-1.62739221960344e+001,-9.60751632282995e-001

4.05583791916010e+004,-1.62739318843684e+001,-9.74161567094200e-001

4.11245530662425e+004,-1.62739418444222e+001,-9.87758627424780e-001

4.16986304336447e+004,-1.62739520837977e+001,-1.00154542248455e+000

4.22807216224550e+004,-1.62739626103081e+001,-1.01552459778216e+000

4.28709385014515e+004,-1.62739734319844e+001,-1.02969883562570e+000

4.34693945010421e+004,-1.62739845570809e+001,-1.04407085563113e+000

4.40762046350642e+004,-1.62739959940813e+001,-1.05864341523918e+000

4.46914855228886e+004,-1.62740077517054e+001,-1.07341931023382e+000

4.53153554118317e+004,-1.62740198389153e+001,-1.08840137527598e+000

4.59479341998812e+004,-1.62740322649221e+001,-1.10359248443585e+000

4.65893434587380e+004,-1.62740450391928e+001,-1.11899555173812e+000

4.72397064571810e+004,-1.62740581714571e+001,-1.13461353171352e+000

4.78991481847569e+004,-1.62740716717151e+001,-1.15044941995562e+000

4.85677953758016e+004,-1.62740855502440e+001,-1.16650625368713e+000

4.92457765337964e+004,-1.62740998176064e+001,-1.18278711233276e+000

4.99332219560642e+004,-1.62741144846576e+001,-1.19929511810216e+000

5.06302637588109e+004,-1.62741295625539e+001,-1.21603343657512e+000

5.13370359025159e+004,-1.62741450627605e+001,-1.23300527730202e+000

5.20536742176771e+004,-1.62741609970603e+001,-1.25021389440550e+000

5.27803164309155e+004,-1.62741773775623e+001,-1.26766258719455e+000

5.35171021914442e+004,-1.62741942167106e+001,-1.28535470078537e+000

5.42641730979066e+004,-1.62742115272935e+001,-1.30329362673055e+000

5.50216727255895e+004,-1.62742293224527e+001,-1.32148280365516e+000

5.57897466540159e+004,-1.62742476156932e+001,-1.33992571790463e+000

5.65685424949235e+004,-1.62742664208931e+001,-1.35862590419721e+000

5.73582099206328e+004,-1.62742857523133e+001,-1.37758694628961e+000

5.81589006928121e+004,-1.62743056246084e+001,-1.39681247764648e+000

5.89707686916437e+004,-1.62743260528373e+001,-1.41630618212186e+000

5.97939699453972e+004,-1.62743470524735e+001,-1.43607179465053e+000

6.06286626604156e+004,-1.62743686394172e+001,-1.45611310194407e+000

6.14750072515201e+004,-1.62743908300061e+001,-1.47643394320194e+000

6.23331663728396e+004,-1.62744136410276e+001,-1.49703821082547e+000

6.32033049490698e+004,-1.62744370897306e+001,-1.51792985114827e+000

6.40855902071694e+004,-1.62744611938382e+001,-1.53911286516865e+000

6.49801917084985e+004,-1.62744859715600e+001,-1.56059130929820e+000

6.58872813814055e+004,-1.62745114416057e+001,-1.58236929611624e+000

6.68070335542691e+004,-1.62745376231980e+001,-1.60445099513495e+000

6.77396249890018e+004,-1.62745645360866e+001,-1.62684063357544e+000

6.86852349150199e+004,-1.62745922005621e+001,-1.64954249715231e+000

6.96440450636895e+004,-1.62746206374704e+001,-1.67256093087020e+000

7.06162397032520e+004,-1.62746498682275e+001,-1.69590033982833e+000

7.16020056742374e+004,-1.62746799148350e+001,-1.71956519003710e+000

7.26015324253724e+004,-1.62747107998949e+001,-1.74356000924562e+000

7.36150120499896e+004,-1.62747425466262e+001,-1.76788938777749e+000

7.46426393229441e+004,-1.62747751788808e+001,-1.79255797938056e+000

7.56846117380472e+004,-1.62748087211603e+001,-1.81757050208363e+000

7.67411295460207e+004,-1.62748431986332e+001,-1.84293173906879e+000

7.78123957929823e+004,-1.62748786371521e+001,-1.86864653955021e+000

7.88986163594682e+004,-1.62749150632725e+001,-1.89471981966679e+000

7.99999999999995e+004,-1.62749525042700e+001,-1.92115656338637e+000

8.11167583832018e+004,-1.62749909881600e+001,-1.94796182341947e+000

8.22491061324848e+004,-1.62750305437168e+001,-1.97514072214580e+000

8.33972608672892e+004,-1.62750712004931e+001,-2.00269845255298e+000

8.45614432449099e+004,-1.62751129888406e+001,-2.03064027918500e+000

8.57418770029029e+004,-1.62751559399304e+001,-2.05897153910565e+000

8.69387890020841e+004,-1.62752000857743e+001,-2.08769764286995e+000

8.81524092701283e+004,-1.62752454592464e+001,-2.11682407551219e+000

8.93829710457770e+004,-1.62752920941056e+001,-2.14635639754197e+000

9.06307108236633e+004,-1.62753400250177e+001,-2.17630024595584e+000

9.18958683997622e+004,-1.62753892875792e+001,-2.20666133526020e+000

9.31786869174758e+004,-1.62754399183408e+001,-2.23744545850594e+000

9.44794129143618e+004,-1.62754919548318e+001,-2.26865848833714e+000

9.57982963695136e+004,-1.62755454355847e+001,-2.30030637805211e+000

9.71355907516031e+004,-1.62756004001610e+001,-2.33239516267735e+000

9.84915530675926e+004,-1.62756568891766e+001,-2.36493096005500e+000

9.98664439121282e+004,-1.62757149443290e+001,-2.39791997194253e+000

1.01260527517622e+005,-1.62757746084240e+001,-2.43136848512705e+000

1.02674071805032e+005,-1.62758359254033e+001,-2.46528287255188e+000

1.04107348435354e+005,-1.62758989403733e+001,-2.49966959445764e+000

1.05560632861831e+005,-1.62759636996337e+001,-2.53453519953622e+000

1.07034204382888e+005,-1.62760302507068e+001,-2.56988632610008e+000

1.08528346195813e+005,-1.62760986423681e+001,-2.60572970326271e+000

1.10043345451179e+005,-1.62761689246771e+001,-2.64207215213640e+000

1.11579493308032e+005,-1.62762411490082e+001,-2.67892058704210e+000

1.13137084989847e+005,-1.62763153680831e+001,-2.71628201673443e+000

1.14716419841265e+005,-1.62763916360036e+001,-2.75416354564041e+000

1.16317801385624e+005,-1.62764700082849e+001,-2.79257237511423e+000

1.17941537383287e+005,-1.62765505418894e+001,-2.83151580470512e+000

1.19587939890794e+005,-1.62766332952616e+001,-2.87100123344137e+000

1.21257325320831e+005,-1.62767183283635e+001,-2.91103616112775e+000

1.22950014503040e+005,-1.62768057027105e+001,-2.95162818966056e+000

1.24666332745679e+005,-1.62768954814081e+001,-2.99278502435519e+000

1.26406609898139e+005,-1.62769877291895e+001,-3.03451447529083e+000

1.28171180414339e+005,-1.62770825124534e+001,-3.07682445867053e+000

1.29960383416997e+005,-1.62771798993032e+001,-3.11972299819555e+000

1.31774562762811e+005,-1.62772799595859e+001,-3.16321822645840e+000

1.33614067108538e+005,-1.62773827649326e+001,-3.20731838634847e+000

1.35479249978003e+005,-1.62774883887996e+001,-3.25203183247586e+000

1.37370469830040e+005,-1.62775969065094e+001,-3.29736703261188e+000

1.39288090127379e+005,-1.62777083952932e+001,-3.34333256914386e+000

1.41232479406504e+005,-1.62778229343340e+001,-3.38993714054893e+000

1.43204011348474e+005,-1.62779406048100e+001,-3.43718956288280e+000

1.45203064850745e+005,-1.62780614899389e+001,-3.48509877128656e+000

1.47230024099979e+005,-1.62781856750230e+001,-3.53367382151032e+000

1.49285278645888e+005,-1.62783132474949e+001,-3.58292389145406e+000

1.51369223476094e+005,-1.62784442969640e+001,-3.63285828272563e+000

1.53482259092041e+005,-1.62785789152631e+001,-3.68348642221700e+000

1.55624791585964e+005,-1.62787171964963e+001,-3.73481786369894e+000

1.57797232718936e+005,-1.62788592370876e+001,-3.78686228943219e+000

1.59999999999999e+005,-1.62790051358294e+001,-3.83962951179845e+000

1.62233516766403e+005,-1.62791549939328e+001,-3.89312947494889e+000

1.64498212264969e+005,-1.62793089150770e+001,-3.94737225647271e+000

1.66794521734578e+005,-1.62794670054611e+001,-4.00236806908356e+000

1.69122886489819e+005,-1.62796293738548e+001,-4.05812726232565e+000

1.71483754005805e+005,-1.62797961316509e+001,-4.11466032429971e+000

1.73877578004168e+005,-1.62799673929179e+001,-4.17197788340919e+000

1.76304818540256e+005,-1.62801432744532e+001,-4.23009071012476e+000

1.78765942091554e+005,-1.62803238958370e+001,-4.28900971877230e+000

1.81261421647326e+005,-1.62805093794860e+001,-4.34874596933922e+000

1.83791736799524e+005,-1.62806998507094e+001,-4.40931066930264e+000

1.86357373834951e+005,-1.62808954377629e+001,-4.47071517548053e+000

1.88958825828723e+005,-1.62810962719054e+001,-4.53297099590181e+000

1.91596592739027e+005,-1.62813024874551e+001,-4.59608979170241e+000

1.94271181503206e+005,-1.62815142218460e+001,-4.66008337904121e+000

1.96983106135185e+005,-1.62817316156852e+001,-4.72496373104032e+000

1.99732887824256e+005,-1.62819548128104e+001,-4.79074297974949e+000

2.02521055035243e+005,-1.62821839603480e+001,-4.85743341813362e+000

2.05348143610063e+005,-1.62824192087712e+001,-4.92504750208620e+000

2.08214696870707e+005,-1.62826607119590e+001,-4.99359785246661e+000

2.11121265723661e+005,-1.62829086272546e+001,-5.06309725716500e+000

2.14068408765776e+005,-1.62831631155253e+001,-5.13355867319204e+000

2.17056692391625e+005,-1.62834243412221e+001,-5.20499522879597e+000

2.20086690902357e+005,-1.62836924724392e+001,-5.27742022560867e+000

2.23158986616063e+005,-1.62839676809743e+001,-5.35084714081890e+000

2.26274169979693e+005,-1.62842501423894e+001,-5.42528962937490e+000

2.29432839682530e+005,-1.62845400360711e+001,-5.50076152621743e+000

2.32635602771247e+005,-1.62848375452914e+001,-5.57727684854318e+000

2.35883074766574e+005,-1.62851428572695e+001,-5.65484979809955e+000

2.39175879781588e+005,-1.62854561632323e+001,-5.73349476351310e+000

2.42514650641661e+005,-1.62857776584767e+001,-5.81322632264972e+000

2.45900029006080e+005,-1.62861075424311e+001,-5.89405924501035e+000

2.49332665491357e+005,-1.62864460187175e+001,-5.97600849416171e+000

2.52813219796278e+005,-1.62867932952141e+001,-6.05908923020319e+000

2.56342360828676e+005,-1.62871495841174e+001,-6.14331681227169e+000

2.59920766833993e+005,-1.62875151020058e+001,-6.22870680108437e+000

2.63549125525621e+005,-1.62878900699021e+001,-6.31527496152211e+000

2.67228134217075e+005,-1.62882747133377e+001,-6.40303726525298e+000

2.70958499956006e+005,-1.62886692624164e+001,-6.49200989339832e+000

2.74740939660078e+005,-1.62890739518786e+001,-6.58220923924273e+000

2.78576180254757e+005,-1.62894890211668e+001,-6.67365191098740e+000

2.82464958813007e+005,-1.62899147144910e+001,-6.76635473455183e+000

2.86408022696948e+005,-1.62903512808946e+001,-6.86033475642074e+000

2.90406129701488e+005,-1.62907989743222e+001,-6.95560924654179e+000

2.94460048199957e+005,-1.62912580536868e+001,-7.05219570127228e+000

2.98570557291775e+005,-1.62917287829392e+001,-7.15011184637887e+000

3.02738446952187e+005,-1.62922114311376e+001,-7.24937564009013e+000

3.06964518184081e+005,-1.62927062725191e+001,-7.35000527620420e+000

3.11249583171928e+005,-1.62932135865725e+001,-7.45201918725232e+000

3.15594465437872e+005,-1.62937336581123e+001,-7.55543604772163e+000

3.19999999999997e+005,-1.62942667773548e+001,-7.66027477733641e+000

3.24467033532806e+005,-1.62948132399960e+001,-7.76655454440108e+000

3.28996424529938e+005,-1.62953733472920e+001,-7.87429476920600e+000

3.33589043469155e+005,-1.62959474061415e+001,-7.98351512749645e+000

3.38245772979638e+005,-1.62965357291710e+001,-8.09423555401012e+000

3.42967508011610e+005,-1.62971386348230e+001,-8.20647624607830e+000

3.47755156008335e+005,-1.62977564474477e+001,-8.32025766729945e+000

3.52609637080511e+005,-1.62983894973978e+001,-8.43560055128068e+000

3.57531884183106e+005,-1.62990381211276e+001,-8.55252590545198e+000

3.62522843294651e+005,-1.62997026612961e+001,-8.67105501495330e+000

3.67583473599047e+005,-1.63003834668745e+001,-8.79120944659651e+000

3.72714747669902e+005,-1.63010808932597e+001,-8.91301105290136e+000

3.77917651657445e+005,-1.63017953023920e+001,-9.03648197621061e+000

3.83193185478053e+005,-1.63025270628791e+001,-9.16164465287987e+000

3.88542363006410e+005,-1.63032765501268e+001,-9.28852181754921e+000

3.93966212270369e+005,-1.63040441464764e+001,-9.41713650749101e+000

3.99465775648511e+005,-1.63048302413486e+001,-9.54751206704071e+000

4.05042110070485e+005,-1.63056352313962e+001,-9.67967215210543e+000

4.10696287220124e+005,-1.63064595206648e+001,-9.81364073475630e+000

4.16429393741414e+005,-1.63073035207620e+001,-9.94944210789899e+000

4.22242531447321e+005,-1.63081676510368e+001,-1.00871008900278e+001

4.28136817531551e+005,-1.63090523387682e+001,-1.02266420300584e+001

4.34113384783250e+005,-1.63099580193653e+001,-1.03680908122432e+001

4.40173381804713e+005,-1.63108851365778e+001,-1.05114728611645e+001

4.46317973232124e+005,-1.63118341427192e+001,-1.06568141468085e+001

4.52548339959385e+005,-1.63128054989014e+001,-1.08041409897155e+001

4.58865679365059e+005,-1.63137996752839e+001,-1.09534800662082e+001

4.65271205542494e+005,-1.63148171513353e+001,-1.11048584136932e+001

4.71766149533147e+005,-1.63158584161102e+001,-1.12583034360377e+001

4.78351759563174e+005,-1.63169239685407e+001,-1.14138429090155e+001

4.85029301283321e+005,-1.63180143177437e+001,-1.15715049858218e+001

4.91800058012158e+005,-1.63191299833443e+001,-1.17313182026545e+001

4.98665330982714e+005,-1.63202714958167e+001,-1.18933114843578e+001

5.05626439592555e+005,-1.63214393968421e+001,-1.20575141501255e+001

5.12684721657352e+005,-1.63226342396850e+001,-1.22239559192601e+001

5.19841533667984e+005,-1.63238565895879e+001,-1.23926669169840e+001

5.27098251051240e+005,-1.63251070241861e+001,-1.25636776802989e+001

5.34456268434150e+005,-1.63263861339415e+001,-1.27370191638885e+001

5.41916999912011e+005,-1.63276945225970e+001,-1.29127227460592e+001

