Freq.,VOut,OutRef

1.00000000000000e+004,-1.17808128538605e+001,-7.85205585666429e-002

1.01395947979003e+004,-1.17808129168554e+001,-7.96166583057455e-002

1.02811382665607e+004,-1.17808129816210e+001,-8.07280587533727e-002

1.04246576084112e+004,-1.17808130482063e+001,-8.18549734906887e-002

1.05701804056138e+004,-1.17808131166632e+001,-8.29976190733474e-002

1.07177346253629e+004,-1.17808131870435e+001,-8.41562150874983e-002

1.08673486252606e+004,-1.17808132594016e+001,-8.53309841777883e-002

1.10190511587661e+004,-1.17808133337930e+001,-8.65221520981407e-002

1.11728713807222e+004,-1.17808134102750e+001,-8.77299477526121e-002

1.13288388529580e+004,-1.17808134889059e+001,-8.89546032436268e-002

1.14869835499703e+004,-1.17808135697466e+001,-9.01963539065076e-002

1.16473358646846e+004,-1.17808136528586e+001,-9.14554383686213e-002

1.18099266142953e+004,-1.17808137383061e+001,-9.27320985816956e-002

1.19747870461893e+004,-1.17808138261546e+001,-9.40265798767539e-002

1.21419488439505e+004,-1.17808139164713e+001,-9.53391310095188e-002

1.23114441334492e+004,-1.17808140093258e+001,-9.66700042053186e-002

1.24833054890161e+004,-1.17808141047890e+001,-9.80194552127175e-002

1.26575659397028e+004,-1.17808142029346e+001,-9.93877433458106e-002

1.28342589756290e+004,-1.17808143038377e+001,-1.00775131539273e-001

1.30134185544193e+004,-1.17808144075758e+001,-1.02181886398535e-001

1.31950791077289e+004,-1.17808145142283e+001,-1.03608278248802e-001

1.33792755478611e+004,-1.17808146238772e+001,-1.05054581188120e-001

1.35660432744767e+004,-1.17808147366067e+001,-1.06521073137226e-001

1.37554181813974e+004,-1.17808148525030e+001,-1.08008035900641e-001

1.39474366635040e+004,-1.17808149716552e+001,-1.09515755211900e-001

1.41421356237309e+004,-1.17808150941548e+001,-1.11044520790857e-001

1.43395524801583e+004,-1.17808152200954e+001,-1.12594626404577e-001

1.45397251732031e+004,-1.17808153495741e+001,-1.14166369915917e-001

1.47426921729110e+004,-1.17808154826898e+001,-1.15760053346842e-001

1.49484924863494e+004,-1.17808156195446e+001,-1.17375982934321e-001

1.51571656651040e+004,-1.17808157602436e+001,-1.19014469185618e-001

1.53687518128801e+004,-1.17808159048945e+001,-1.20675826944333e-001

1.55832915932100e+004,-1.17808160536084e+001,-1.22360375445888e-001

1.58008262372675e+004,-1.17808162064994e+001,-1.24068438379336e-001

1.60213975517924e+004,-1.17808163636843e+001,-1.25800343955130e-001

1.62450479271247e+004,-1.17808165252839e+001,-1.27556424958007e-001

1.64718203453514e+004,-1.17808166914220e+001,-1.29337018819858e-001

1.67017583885674e+004,-1.17808168622259e+001,-1.31142467679462e-001

1.69349062472505e+004,-1.17808170378265e+001,-1.32973118450009e-001

1.71713087287550e+004,-1.17808172183584e+001,-1.34829322885483e-001

1.74110112659224e+004,-1.17808174039599e+001,-1.36711437649040e-001

1.76540599258131e+004,-1.17808175947729e+001,-1.38619824379552e-001

1.79005014185594e+004,-1.17808177909441e+001,-1.40554849759827e-001

1.81503831063432e+004,-1.17808179926233e+001,-1.42516885591835e-001

1.84037530124975e+004,-1.17808181999652e+001,-1.44506308864131e-001

1.86606598307361e+004,-1.17808184131285e+001,-1.46523501824513e-001

1.89211529345119e+004,-1.17808186322763e+001,-1.48568852055035e-001

1.91852823865052e+004,-1.17808188575768e+001,-1.50642752543260e-001

1.94530989482457e+004,-1.17808190892021e+001,-1.52745601761998e-001

1.97246540898671e+004,-1.17808193273295e+001,-1.54877803742887e-001

1.99999999999999e+004,-1.17808195721415e+001,-1.57039768152544e-001

2.02791895958005e+004,-1.17808198238252e+001,-1.59231910375623e-001

2.05622765331213e+004,-1.17808200825732e+001,-1.61454651589513e-001

2.08493152168224e+004,-1.17808203485838e+001,-1.63708418846708e-001

2.11403608112276e+004,-1.17808206220599e+001,-1.65993645161322e-001

2.14354692507258e+004,-1.17808209032110e+001,-1.68310769583555e-001

2.17346972505211e+004,-1.17808211922522e+001,-1.70660237289017e-001

2.20381023175322e+004,-1.17808214894043e+001,-1.73042499666245e-001

2.23457427614443e+004,-1.17808217948946e+001,-1.75458014397379e-001

2.26576777059159e+004,-1.17808221089566e+001,-1.77907245549555e-001

2.29739670999406e+004,-1.17808224318302e+001,-1.80390663664526e-001

2.32946717293690e+004,-1.17808227637623e+001,-1.82908745844142e-001

2.36198532285905e+004,-1.17808231050063e+001,-1.85461975848388e-001

2.39495740923785e+004,-1.17808234558230e+001,-1.88050844182115e-001

2.42838976879009e+004,-1.17808238164804e+001,-1.90675848191922e-001

2.46228882668982e+004,-1.17808241872537e+001,-1.93337492162912e-001

2.49666109780322e+004,-1.17808245684259e+001,-1.96036287411855e-001

2.53151318794055e+004,-1.17808249602883e+001,-1.98772752384738e-001

2.56685179512580e+004,-1.17808253631396e+001,-2.01547412760912e-001

2.60268371088386e+004,-1.17808257772875e+001,-2.04360801548369e-001

2.63901582154578e+004,-1.17808262030476e+001,-2.07213459190405e-001

2.67585510957221e+004,-1.17808266407446e+001,-2.10105933664822e-001

2.71320865489533e+004,-1.17808270907126e+001,-2.13038780590267e-001

2.75108363627948e+004,-1.17808275532942e+001,-2.16012563335532e-001

2.78948733270080e+004,-1.17808280288421e+001,-2.19027853122351e-001

2.82842712474618e+004,-1.17808285177186e+001,-2.22085229138515e-001

2.86791049603164e+004,-1.17808290202962e+001,-2.25185278645409e-001

2.90794503464061e+004,-1.17808295369576e+001,-2.28328597094722e-001

2.94853843458219e+004,-1.17808300680960e+001,-2.31515788238545e-001

2.98969849726987e+004,-1.17808306141160e+001,-2.34747464245082e-001

3.03143313302078e+004,-1.17808311754327e+001,-2.38024245818894e-001

3.07375036257601e+004,-1.17808317524731e+001,-2.41346762316276e-001

3.11665831864199e+004,-1.17808323456764e+001,-2.44715651864560e-001

3.16016524745350e+004,-1.17808329554933e+001,-2.48131561489697e-001

3.20427951035848e+004,-1.17808335823872e+001,-2.51595147234117e-001

3.24900958542493e+004,-1.17808342268346e+001,-2.55107074283673e-001

3.29436406907028e+004,-1.17808348893247e+001,-2.58668017097500e-001

3.34035167771346e+004,-1.17808355703608e+001,-2.62278659531916e-001

3.38698124945009e+004,-1.17808362704595e+001,-2.65939694976235e-001

3.43426174575100e+004,-1.17808369901520e+001,-2.69651826480537e-001

3.48220225318448e+004,-1.17808377299843e+001,-2.73415766892646e-001

3.53081198516260e+004,-1.17808384905171e+001,-2.77232238993106e-001

3.58010028371187e+004,-1.17808392723267e+001,-2.81101975634119e-001

3.63007662126863e+004,-1.17808400760056e+001,-2.85025719877313e-001

3.68075060249948e+004,-1.17808409021622e+001,-2.89004225137367e-001

3.73213196614721e+004,-1.17808417514217e+001,-2.93038255325965e-001

3.78423058690237e+004,-1.17808426244267e+001,-2.97128584994768e-001

3.83705647730104e+004,-1.17808435218372e+001,-3.01275999486895e-001

3.89061978964912e+004,-1.17808444443318e+001,-3.05481295081421e-001

3.94493081797342e+004,-1.17808453926071e+001,-3.09745279151212e-001

3.99999999999998e+004,-1.17808463673796e+001,-3.14068770310971e-001

4.05583791916010e+004,-1.17808473693844e+001,-3.18452598578859e-001

4.11245530662425e+004,-1.17808483993779e+001,-3.22897605527730e-001

4.16986304336447e+004,-1.17808494581362e+001,-3.27404644452071e-001

4.22807216224550e+004,-1.17808505464574e+001,-3.31974580525462e-001

4.28709385014515e+004,-1.17808516651609e+001,-3.36608290966945e-001

4.34693945010421e+004,-1.17808528150888e+001,-3.41306665209172e-001

4.40762046350642e+004,-1.17808539971061e+001,-3.46070605064476e-001

4.46914855228886e+004,-1.17808552121012e+001,-3.50901024898792e-001

4.53153554118317e+004,-1.17808564609871e+001,-3.55798851804552e-001

4.59479341998812e+004,-1.17808577447012e+001,-3.60765025777427e-001

4.65893434587380e+004,-1.17808590642066e+001,-3.65800499892983e-001

4.72397064571810e+004,-1.17808604204929e+001,-3.70906240488182e-001

4.78991481847569e+004,-1.17808618145761e+001,-3.76083227346220e-001

4.85677953758016e+004,-1.17808632474997e+001,-3.81332453882696e-001

4.92457765337964e+004,-1.17808647203358e+001,-3.86654927331076e-001

4.99332219560642e+004,-1.17808662341855e+001,-3.92051668935454e-001

5.06302637588109e+004,-1.17808677901794e+001,-3.97523714143988e-001

5.13370359025159e+004,-1.17808693894788e+001,-4.03072112805879e-001

5.20536742176771e+004,-1.17808710332763e+001,-4.08697929367574e-001

5.27803164309155e+004,-1.17808727227967e+001,-4.14402243076836e-001

5.35171021914442e+004,-1.17808744592975e+001,-4.20186148186571e-001

5.42641730979066e+004,-1.17808762440703e+001,-4.26050754158814e-001

5.50216727255895e+004,-1.17808780784409e+001,-4.31997185880219e-001

5.57897466540159e+004,-1.17808799637714e+001,-4.38026583867335e-001

5.65685424949235e+004,-1.17808819014594e+001,-4.44140104488743e-001

5.73582099206328e+004,-1.17808838929405e+001,-4.50338920179466e-001

5.81589006928121e+004,-1.17808859396885e+001,-4.56624219661918e-001

5.89707686916437e+004,-1.17808880432163e+001,-4.62997208171936e-001

5.97939699453972e+004,-1.17808902050770e+001,-4.69459107687179e-001

6.06286626604156e+004,-1.17808924268652e+001,-4.76011157152454e-001

6.14750072515201e+004,-1.17808947102176e+001,-4.82654612717225e-001

6.23331663728396e+004,-1.17808970568141e+001,-4.89390747971517e-001

6.32033049490698e+004,-1.17808994683791e+001,-4.96220854184170e-001

6.40855902071694e+004,-1.17809019466825e+001,-5.03146240546043e-001

6.49801917084985e+004,-1.17809044935408e+001,-5.10168234415396e-001

6.58872813814055e+004,-1.17809071108180e+001,-5.17288181569199e-001

6.68070335542691e+004,-1.17809098004272e+001,-5.24507446453271e-001

6.77396249890018e+004,-1.17809125643315e+001,-5.31827412439695e-001

6.86852349150199e+004,-1.17809154045449e+001,-5.39249482086233e-001

6.96440450636895e+004,-1.17809183231344e+001,-5.46775077396237e-001

7.06162397032520e+004,-1.17809213222203e+001,-5.54405640089314e-001

7.16020056742374e+004,-1.17809244039780e+001,-5.62142631867686e-001

7.26015324253724e+004,-1.17809275706391e+001,-5.69987534690291e-001

7.36150120499896e+004,-1.17809308244929e+001,-5.77941851049905e-001

7.46426393229441e+004,-1.17809341678872e+001,-5.86007104253877e-001

7.56846117380472e+004,-1.17809376032306e+001,-5.94184838706764e-001

7.67411295460207e+004,-1.17809411329929e+001,-6.02476620200280e-001

7.78123957929823e+004,-1.17809447597072e+001,-6.10884036202626e-001

7.88986163594682e+004,-1.17809484859707e+001,-6.19408696156851e-001

7.99999999999995e+004,-1.17809523144468e+001,-6.28052231777004e-001

8.11167583832018e+004,-1.17809562478660e+001,-6.36816297353223e-001

8.22491061324848e+004,-1.17809602890275e+001,-6.45702570058557e-001

8.33972608672892e+004,-1.17809644408013e+001,-6.54712750259315e-001

8.45614432449099e+004,-1.17809687061288e+001,-6.63848561830633e-001

8.57418770029029e+004,-1.17809730880246e+001,-6.73111752476912e-001

8.69387890020841e+004,-1.17809775895787e+001,-6.82504094052082e-001

8.81524092701283e+004,-1.17809822139571e+001,-6.92027382890833e-001

8.93829710457770e+004,-1.17809869644042e+001,-7.01683440136727e-001

9.06307108236633e+004,-1.17809918442437e+001,-7.11474112081778e-001

9.18958683997622e+004,-1.17809968568808e+001,-7.21401270502763e-001

9.31786869174758e+004,-1.17810020058035e+001,-7.31466813009482e-001

9.44794129143618e+004,-1.17810072945841e+001,-7.41672663391473e-001

9.57982963695136e+004,-1.17810127268813e+001,-7.52020771972005e-001

9.71355907516031e+004,-1.17810183064415e+001,-7.62513115967163e-001

9.84915530675926e+004,-1.17810240371004e+001,-7.73151699847344e-001

9.98664439121282e+004,-1.17810299227849e+001,-7.83938555703180e-001

1.01260527517622e+005,-1.17810359675146e+001,-7.94875743620819e-001

1.02674071805032e+005,-1.17810421754033e+001,-8.05965352055481e-001

1.04107348435354e+005,-1.17810485506613e+001,-8.17209498212929e-001

1.05560632861831e+005,-1.17810550975962e+001,-8.28610328437559e-001

1.07034204382888e+005,-1.17810618206148e+001,-8.40170018601670e-001

1.08528346195813e+005,-1.17810687242254e+001,-8.51890774500673e-001

1.10043345451179e+005,-1.17810758130382e+001,-8.63774832256749e-001

1.11579493308032e+005,-1.17810830917679e+001,-8.75824458722054e-001

1.13137084989847e+005,-1.17810905652350e+001,-8.88041951889930e-001

1.14716419841265e+005,-1.17810982383670e+001,-9.00429641313076e-001

1.16317801385624e+005,-1.17811061162001e+001,-9.12989888522610e-001

1.17941537383287e+005,-1.17811142038812e+001,-9.25725087455356e-001

1.19587939890794e+005,-1.17811225066686e+001,-9.38637664885766e-001

1.21257325320831e+005,-1.17811310299335e+001,-9.51730080864331e-001

1.22950014503040e+005,-1.17811397791618e+001,-9.65004829157585e-001

1.24666332745679e+005,-1.17811487599553e+001,-9.78464437698728e-001

1.26406609898139e+005,-1.17811579780322e+001,-9.92111469040997e-001

1.28171180414339e+005,-1.17811674392295e+001,-1.00594852081495e+000

1.29960383416997e+005,-1.17811771495030e+001,-1.01997822619697e+000

1.31774562762811e+005,-1.17811871149289e+001,-1.03420325437694e+000

1.33614067108538e+005,-1.17811973417048e+001,-1.04862631103693e+000

1.35479249978003e+005,-1.17812078361499e+001,-1.06325013883324e+000

1.37370469830040e+005,-1.17812186047066e+001,-1.07807751788429e+000

1.39288090127379e+005,-1.17812296539405e+001,-1.09311126626604e+000

1.41232479406504e+005,-1.17812409905412e+001,-1.10835424051276e+000

1.43204011348474e+005,-1.17812526213225e+001,-1.12380933612292e+000

1.45203064850745e+005,-1.17812645532229e+001,-1.13947948807415e+000

1.47230024099979e+005,-1.17812767933055e+001,-1.15536767134130e+000

1.49285278645888e+005,-1.17812893487579e+001,-1.17147690142300e+000

1.51369223476094e+005,-1.17813022268923e+001,-1.18781023487404e+000

1.53482259092041e+005,-1.17813154351444e+001,-1.20437076984644e+000

1.55624791585964e+005,-1.17813289810739e+001,-1.22116164663225e+000

1.57797232718936e+005,-1.17813428723625e+001,-1.23818604821891e+000

1.59999999999999e+005,-1.17813571168137e+001,-1.25544720084808e+000

1.62233516766403e+005,-1.17813717223514e+001,-1.27294837458206e+000

1.64498212264969e+005,-1.17813866970179e+001,-1.29069288387887e+000

1.66794521734578e+005,-1.17814020489729e+001,-1.30868408817250e+000

1.69122886489819e+005,-1.17814177864909e+001,-1.32692539246217e+000

1.71483754005805e+005,-1.17814339179592e+001,-1.34542024790730e+000

1.73877578004168e+005,-1.17814504518750e+001,-1.36417215243298e+000

1.76304818540256e+005,-1.17814673968426e+001,-1.38318465134062e+000

1.78765942091554e+005,-1.17814847615702e+001,-1.40246133792644e+000

1.81261421647326e+005,-1.17815025548660e+001,-1.42200585411101e+000

1.83791736799524e+005,-1.17815207856345e+001,-1.44182189107323e+000

1.86357373834951e+005,-1.17815394628716e+001,-1.46191318989576e+000

1.88958825828723e+005,-1.17815585956601e+001,-1.48228354221633e+000

1.91596592739027e+005,-1.17815781931645e+001,-1.50293679089013e+000

1.94271181503206e+005,-1.17815982646250e+001,-1.52387683065935e+000

1.96983106135185e+005,-1.17816188193511e+001,-1.54510760883387e+000

1.99732887824256e+005,-1.17816398667156e+001,-1.56663312597747e+000

2.02521055035243e+005,-1.17816614161466e+001,-1.58845743660845e+000

2.05348143610063e+005,-1.17816834771202e+001,-1.61058464990533e+000

2.08214696870707e+005,-1.17817060591517e+001,-1.63301893042646e+000

2.11121265723661e+005,-1.17817291717872e+001,-1.65576449883686e+000

2.14068408765776e+005,-1.17817528245937e+001,-1.67882563264674e+000

2.17056692391625e+005,-1.17817770271487e+001,-1.70220666696071e+000

2.20086690902357e+005,-1.17818017890301e+001,-1.72591199523731e+000

2.23158986616063e+005,-1.17818271198036e+001,-1.74994607006162e+000

2.26274169979693e+005,-1.17818530290114e+001,-1.77431340392579e+000

2.29432839682530e+005,-1.17818795261587e+001,-1.79901857002555e+000

2.32635602771247e+005,-1.17819066207001e+001,-1.82406620306662e+000

2.35883074766574e+005,-1.17819343220250e+001,-1.84946100008335e+000

2.39175879781588e+005,-1.17819626394424e+001,-1.87520772127082e+000

2.42514650641661e+005,-1.17819915821647e+001,-1.90131119083135e+000

2.45900029006080e+005,-1.17820211592906e+001,-1.92777629783227e+000

2.49332665491357e+005,-1.17820513797874e+001,-1.95460799707942e+000

2.52813219796278e+005,-1.17820822524720e+001,-1.98181131000356e+000

2.56342360828676e+005,-1.17821137859916e+001,-2.00939132556479e+000

2.59920766833993e+005,-1.17821459888026e+001,-2.03735320116703e+000

2.63549125525621e+005,-1.17821788691496e+001,-2.06570216359326e+000

2.67228134217075e+005,-1.17822124350422e+001,-2.09444350995427e+000

2.70958499956006e+005,-1.17822466942321e+001,-2.12358260865448e+000

2.74740939660078e+005,-1.17822816541884e+001,-2.15312490037503e+000

2.78576180254757e+005,-1.17823173220720e+001,-2.18307589907516e+000

2.82464958813007e+005,-1.17823537047091e+001,-2.21344119301141e+000

2.86408022696948e+005,-1.17823908085636e+001,-2.24422644577520e+000

2.90406129701488e+005,-1.17824286397088e+001,-2.27543739735037e+000

2.94460048199957e+005,-1.17824672037973e+001,-2.30707986519020e+000

2.98570557291775e+005,-1.17825065060306e+001,-2.33915974531646e+000

3.02738446952187e+005,-1.17825465511277e+001,-2.37168301343634e+000

3.06964518184081e+005,-1.17825873432918e+001,-2.40465572608539e+000

3.11249583171928e+005,-1.17826288861769e+001,-2.43808402178919e+000

3.15594465437872e+005,-1.17826711828529e+001,-2.47197412225066e+000

3.19999999999997e+005,-1.17827142357702e+001,-2.50633233355933e+000

3.24467033532806e+005,-1.17827580467224e+001,-2.54116504742611e+000

3.28996424529938e+005,-1.17828026168092e+001,-2.57647874244350e+000

3.33589043469155e+005,-1.17828479463974e+001,-2.61227998536895e+000

3.38245772979638e+005,-1.17828940350816e+001,-2.64857543243837e+000

3.42967508011610e+005,-1.17829408816439e+001,-2.68537183070431e+000

3.47755156008335e+005,-1.17829884840127e+001,-2.72267601940235e+000

3.52609637080511e+005,-1.17830368392209e+001,-2.76049493134576e+000

3.57531884183106e+005,-1.17830859433627e+001,-2.79883559435166e+000

3.62522843294651e+005,-1.17831357915513e+001,-2.83770513269255e+000

3.67583473599047e+005,-1.17831863778740e+001,-2.87711076858317e+000

3.72714747669902e+005,-1.17832376953485e+001,-2.91705982369545e+000

3.77917651657445e+005,-1.17832897358775e+001,-2.95755972070620e+000

3.83193185478053e+005,-1.17833424902036e+001,-2.99861798487775e+000

3.88542363006410e+005,-1.17833959478638e+001,-3.04024224567079e+000

3.93966212270369e+005,-1.17834500971434e+001,-3.08244023839200e+000

3.99465775648511e+005,-1.17835049250301e+001,-3.12521980587482e+000

4.05042110070485e+005,-1.17835604171684e+001,-3.16858890019527e+000

4.10696287220124e+005,-1.17836165578126e+001,-3.21255558442482e+000

4.16429393741414e+005,-1.17836733297823e+001,-3.25712803441567e+000

4.22242531447321e+005,-1.17837307144156e+001,-3.30231454062549e+000

4.28136817531551e+005,-1.17837886915249e+001,-3.34812350997780e+000

4.34113384783250e+005,-1.17838472393516e+001,-3.39456346775790e+000

4.40173381804713e+005,-1.17839063345223e+001,-3.44164305954871e+000

4.46317973232124e+005,-1.17839659520051e+001,-3.48937105320194e+000

4.52548339959385e+005,-1.17840260650674e+001,-3.53775634084929e+000

4.58865679365059e+005,-1.17840866452343e+001,-3.58680794094932e+000

4.65271205542494e+005,-1.17841476622476e+001,-3.63653500037456e+000

4.71766149533147e+005,-1.17842090840273e+001,-3.68694679653561e+000

4.78351759563174e+005,-1.17842708766329e+001,-3.73805273954452e+000

4.85029301283321e+005,-1.17843330042271e+001,-3.78986237441517e+000

4.91800058012158e+005,-1.17843954290410e+001,-3.84238538330287e+000

4.98665330982714e+005,-1.17844581113407e+001,-3.89563158778107e+000

5.05626439592555e+005,-1.17845210093954e+001,-3.94961095115671e+000

5.12684721657352e+005,-1.17845840794483e+001,-4.00433358082276e+000

5.19841533667984e+005,-1.17846472756888e+001,-4.05980973064708e+000

5.27098251051240e+005,-1.17847105502267e+001,-4.11604980339960e+000

5.34456268434150e+005,-1.17847738530691e+001,-4.17306435321443e+000

5.41916999912011e+005,-1.17848371320991e+001,-4.23086408808894e+000

