Freq.,VOut,OutRef

1.00000000000000e+004,-2.35774540665409e+001,-4.19593311201939e-001

1.01395947979003e+004,-2.35774567535855e+001,-4.25450530431358e-001

1.02811382665607e+004,-2.35774595161670e+001,-4.31389509779839e-001

1.04246576084112e+004,-2.35774623564085e+001,-4.37411390423070e-001

1.05701804056138e+004,-2.35774652764932e+001,-4.43517329459967e-001

1.07177346253629e+004,-2.35774682786654e+001,-4.49708500134329e-001

1.08673486252606e+004,-2.35774713652321e+001,-4.55986092063300e-001

1.10190511587661e+004,-2.35774745385659e+001,-4.62351311460422e-001

1.11728713807222e+004,-2.35774778011055e+001,-4.68805381371370e-001

1.13288388529580e+004,-2.35774811553584e+001,-4.75349541904759e-001

1.14869835499703e+004,-2.35774846039024e+001,-4.81985050474691e-001

1.16473358646846e+004,-2.35774881493879e+001,-4.88713182038619e-001

1.18099266142953e+004,-2.35774917945397e+001,-4.95535229341242e-001

1.19747870461893e+004,-2.35774955421592e+001,-5.02452503164930e-001

1.21419488439505e+004,-2.35774993951266e+001,-5.09466332580423e-001

1.23114441334492e+004,-2.35775033564026e+001,-5.16578065201331e-001

1.24833054890161e+004,-2.35775074290318e+001,-5.23789067441130e-001

1.26575659397028e+004,-2.35775116161438e+001,-5.31100724777568e-001

1.28342589756290e+004,-2.35775159209564e+001,-5.38514442017704e-001

1.30134185544193e+004,-2.35775203467776e+001,-5.46031643566555e-001

1.31950791077289e+004,-2.35775248970087e+001,-5.53653773699182e-001

1.33792755478611e+004,-2.35775295751464e+001,-5.61382296839803e-001

1.35660432744767e+004,-2.35775343847854e+001,-5.69218697842470e-001

1.37554181813974e+004,-2.35775393296219e+001,-5.77164482272386e-001

1.39474366635040e+004,-2.35775444134554e+001,-5.85221176699319e-001

1.41421356237309e+004,-2.35775496401926e+001,-5.93390328985083e-001

1.43395524801583e+004,-2.35775550138498e+001,-6.01673508584083e-001

1.45397251732031e+004,-2.35775605385561e+001,-6.10072306841672e-001

1.47426921729110e+004,-2.35775662185565e+001,-6.18588337301945e-001

1.49484924863494e+004,-2.35775720582158e+001,-6.27223236011146e-001

1.51571656651040e+004,-2.35775780620206e+001,-6.35978661839104e-001

1.53687518128801e+004,-2.35775842345842e+001,-6.44856296788305e-001

1.55832915932100e+004,-2.35775905806493e+001,-6.53857846323196e-001

1.58008262372675e+004,-2.35775971050917e+001,-6.62985039693484e-001

1.60213975517924e+004,-2.35776038129243e+001,-6.72239630264105e-001

1.62450479271247e+004,-2.35776107093009e+001,-6.81623395854466e-001

1.64718203453514e+004,-2.35776177995199e+001,-6.91138139074666e-001

1.67017583885674e+004,-2.35776250890287e+001,-7.00785687674924e-001

1.69349062472505e+004,-2.35776325834274e+001,-7.10567894891624e-001

1.71713087287550e+004,-2.35776402884739e+001,-7.20486639803219e-001

1.74110112659224e+004,-2.35776482100874e+001,-7.30543827691518e-001

1.76540599258131e+004,-2.35776563543534e+001,-7.40741390403975e-001

1.79005014185594e+004,-2.35776647275287e+001,-7.51081286723450e-001

1.81503831063432e+004,-2.35776733360453e+001,-7.61565502744178e-001

1.84037530124975e+004,-2.35776821865162e+001,-7.72196052251590e-001

1.86606598307361e+004,-2.35776912857400e+001,-7.82974977104692e-001

1.89211529345119e+004,-2.35777006407062e+001,-7.93904347630911e-001

1.91852823865052e+004,-2.35777102586007e+001,-8.04986263017616e-001

1.94530989482457e+004,-2.35777201468111e+001,-8.16222851716032e-001

1.97246540898671e+004,-2.35777303129324e+001,-8.27616271847547e-001

1.99999999999999e+004,-2.35777407647729e+001,-8.39168711615041e-001

2.02791895958005e+004,-2.35777515103602e+001,-8.50882389722088e-001

2.05622765331213e+004,-2.35777625579473e+001,-8.62759555796640e-001

2.08493152168224e+004,-2.35777739160189e+001,-8.74802490819375e-001

2.11403608112276e+004,-2.35777855932980e+001,-8.87013507561286e-001

2.14354692507258e+004,-2.35777975987521e+001,-8.99394951024651e-001

2.17346972505211e+004,-2.35778099416009e+001,-9.11949198888897e-001

2.20381023175322e+004,-2.35778226313228e+001,-9.24678661967040e-001

2.23457427614443e+004,-2.35778356776622e+001,-9.37585784663810e-001

2.26576777059159e+004,-2.35778490906371e+001,-9.50673045442755e-001

2.29739670999406e+004,-2.35778628805466e+001,-9.63942957298377e-001

2.32946717293690e+004,-2.35778770579789e+001,-9.77398068237051e-001

2.36198532285905e+004,-2.35778916338194e+001,-9.91040961760350e-001

2.39495740923785e+004,-2.35779066192590e+001,-1.00487425735870e+000

2.42838976879009e+004,-2.35779220258027e+001,-1.01890061101170e+000

2.46228882668982e+004,-2.35779378652782e+001,-1.03312271569205e+000

2.49666109780322e+004,-2.35779541498453e+001,-1.04754330187981e+000

2.53151318794055e+004,-2.35779708920048e+001,-1.06216513808204e+000

2.56685179512580e+004,-2.35779881046083e+001,-1.07699103135961e+000

2.60268371088386e+004,-2.35780058008681e+001,-1.09202382786215e+000

2.63901582154578e+004,-2.35780239943671e+001,-1.10726641336814e+000

2.67585510957221e+004,-2.35780426990690e+001,-1.12272171383671e+000

2.71320865489533e+004,-2.35780619293296e+001,-1.13839269596038e+000

2.75108363627948e+004,-2.35780816999070e+001,-1.15428236773210e+000

2.78948733270080e+004,-2.35781020259735e+001,-1.17039377901541e+000

2.82842712474618e+004,-2.35781229231267e+001,-1.18673002212380e+000

2.86791049603164e+004,-2.35781444074019e+001,-1.20329423240963e+000

2.90794503464061e+004,-2.35781664952838e+001,-1.22008958885679e+000

2.94853843458219e+004,-2.35781892037192e+001,-1.23711931468737e+000

2.98969849726987e+004,-2.35782125501307e+001,-1.25438667796958e+000

3.03143313302078e+004,-2.35782365524285e+001,-1.27189499224137e+000

3.07375036257601e+004,-2.35782612290256e+001,-1.28964761713564e+000

3.11665831864199e+004,-2.35782865988506e+001,-1.30764795901862e+000

3.16016524745350e+004,-2.35783126813630e+001,-1.32589947163496e+000

3.20427951035848e+004,-2.35783394965676e+001,-1.34440565676137e+000

3.24900958542493e+004,-2.35783670650297e+001,-1.36317006486995e+000

3.29436406907028e+004,-2.35783954078910e+001,-1.38219629580012e+000

3.34035167771346e+004,-2.35784245468854e+001,-1.40148799943868e+000

3.38698124945009e+004,-2.35784545043560e+001,-1.42104887641147e+000

3.43426174575100e+004,-2.35784853032715e+001,-1.44088267878036e+000

3.48220225318448e+004,-2.35785169672442e+001,-1.46099321075463e+000

3.53081198516260e+004,-2.35785495205475e+001,-1.48138432940665e+000

3.58010028371187e+004,-2.35785829881347e+001,-1.50205994540183e+000

3.63007662126863e+004,-2.35786173956581e+001,-1.52302402373393e+000

3.68075060249948e+004,-2.35786527694877e+001,-1.54428058447470e+000

3.73213196614721e+004,-2.35786891367321e+001,-1.56583370353019e+000

3.78423058690237e+004,-2.35787265252587e+001,-1.58768751340753e+000

3.83705647730104e+004,-2.35787649637147e+001,-1.60984620399447e+000

3.89061978964912e+004,-2.35788044815493e+001,-1.63231402334536e+000

3.94493081797342e+004,-2.35788451090355e+001,-1.65509527848044e+000

3.99999999999998e+004,-2.35788868772933e+001,-1.67819433619599e+000

4.05583791916010e+004,-2.35789298183134e+001,-1.70161562388194e+000

4.11245530662425e+004,-2.35789739649811e+001,-1.72536363035418e+000

4.16986304336447e+004,-2.35790193511017e+001,-1.74944290669527e+000

4.22807216224550e+004,-2.35790660114253e+001,-1.77385806710761e+000

4.28709385014515e+004,-2.35791139816741e+001,-1.79861378977646e+000

4.34693945010421e+004,-2.35791632985684e+001,-1.82371481774591e+000

4.40762046350642e+004,-2.35792139998550e+001,-1.84916595980529e+000

4.46914855228886e+004,-2.35792661243356e+001,-1.87497209138634e+000

4.53153554118317e+004,-2.35793197118959e+001,-1.90113815547520e+000

4.59479341998812e+004,-2.35793748035360e+001,-1.92766916353277e+000

4.65893434587380e+004,-2.35794314414009e+001,-1.95457019642858e+000

4.72397064571810e+004,-2.35794896688126e+001,-1.98184640538707e+000

4.78991481847569e+004,-2.35795495303028e+001,-2.00950301294584e+000

4.85677953758016e+004,-2.35796110716460e+001,-2.03754531392557e+000

4.92457765337964e+004,-2.35796743398946e+001,-2.06597867641351e+000

4.99332219560642e+004,-2.35797393834135e+001,-2.09480854275928e+000

5.06302637588109e+004,-2.35798062519173e+001,-2.12404043058267e+000

5.13370359025159e+004,-2.35798749965067e+001,-2.15367993379643e+000

5.20536742176771e+004,-2.35799456697079e+001,-2.18373272363858e+000

5.27803164309155e+004,-2.35800183255112e+001,-2.21420454972175e+000

5.35171021914442e+004,-2.35800930194117e+001,-2.24510124109307e+000

5.42641730979066e+004,-2.35801698084512e+001,-2.27642870730928e+000

5.50216727255895e+004,-2.35802487512603e+001,-2.30819293952375e+000

5.57897466540159e+004,-2.35803299081028e+001,-2.34040001158872e+000

5.65685424949235e+004,-2.35804133409205e+001,-2.37305608117076e+000

5.73582099206328e+004,-2.35804991133795e+001,-2.40616739087931e+000

5.81589006928121e+004,-2.35805872909177e+001,-2.43974026941094e+000

5.89707686916437e+004,-2.35806779407936e+001,-2.47378113270722e+000

5.97939699453972e+004,-2.35807711321364e+001,-2.50829648512621e+000

6.06286626604156e+004,-2.35808669359976e+001,-2.54329292062891e+000

6.14750072515201e+004,-2.35809654254036e+001,-2.57877712398087e+000

6.23331663728396e+004,-2.35810666754102e+001,-2.61475587196828e+000

6.32033049490698e+004,-2.35811707631583e+001,-2.65123603462731e+000

6.40855902071694e+004,-2.35812777679307e+001,-2.68822457649162e+000

6.49801917084985e+004,-2.35813877712115e+001,-2.72572855785202e+000

6.58872813814055e+004,-2.35815008567461e+001,-2.76375513603244e+000

6.68070335542691e+004,-2.35816171106027e+001,-2.80231156668194e+000

6.77396249890018e+004,-2.35817366212368e+001,-2.84140520508134e+000

6.86852349150199e+004,-2.35818594795557e+001,-2.88104350746495e+000

6.96440450636895e+004,-2.35819857789856e+001,-2.92123403235931e+000

7.06162397032520e+004,-2.35821156155408e+001,-2.96198444193663e+000

7.16020056742374e+004,-2.35822490878939e+001,-3.00330250338498e+000

7.26015324253724e+004,-2.35823862974482e+001,-3.04519609029347e+000

7.36150120499896e+004,-2.35825273484125e+001,-3.08767318405425e+000

7.46426393229441e+004,-2.35826723478768e+001,-3.13074187528119e+000

7.56846117380472e+004,-2.35828214058915e+001,-3.17441036524261e+000

7.67411295460207e+004,-2.35829746355468e+001,-3.21868696731383e+000

7.78123957929823e+004,-2.35831321530559e+001,-3.26358010844293e+000

7.88986163594682e+004,-2.35832940778395e+001,-3.30909833063558e+000

7.99999999999995e+004,-2.35834605326124e+001,-3.35525029245457e+000

8.11167583832018e+004,-2.35836316434729e+001,-3.40204477053716e+000

8.22491061324848e+004,-2.35838075399941e+001,-3.44949066112907e+000

8.33972608672892e+004,-2.35839883553181e+001,-3.49759698163483e+000

8.45614432449099e+004,-2.35841742262512e+001,-3.54637287218632e+000

8.57418770029029e+004,-2.35843652933639e+001,-3.59582759722627e+000

8.69387890020841e+004,-2.35845617010912e+001,-3.64597054711022e+000

8.81524092701283e+004,-2.35847635978371e+001,-3.69681123972574e+000

8.93829710457770e+004,-2.35849711360805e+001,-3.74835932212781e+000

9.06307108236633e+004,-2.35851844724850e+001,-3.80062457219109e+000

9.18958683997622e+004,-2.35854037680105e+001,-3.85361690028159e+000

9.31786869174758e+004,-2.35856291880285e+001,-3.90734635094247e+000

9.44794129143618e+004,-2.35858609024393e+001,-3.96182310459944e+000

9.57982963695136e+004,-2.35860990857933e+001,-4.01705747928194e+000

9.71355907516031e+004,-2.35863439174145e+001,-4.07305993236250e+000

9.84915530675926e+004,-2.35865955815275e+001,-4.12984106231231e+000

9.98664439121282e+004,-2.35868542673873e+001,-4.18741161047528e+000

1.01260527517622e+005,-2.35871201694134e+001,-4.24578246285717e+000

1.02674071805032e+005,-2.35873934873255e+001,-4.30496465193510e+000

1.04107348435354e+005,-2.35876744262841e+001,-4.36496935848023e+000

1.05560632861831e+005,-2.35879631970339e+001,-4.42580791340077e+000

1.07034204382888e+005,-2.35882600160509e+001,-4.48749179960027e+000

1.08528346195813e+005,-2.35885651056927e+001,-4.55003265385290e+000

1.10043345451179e+005,-2.35888786943533e+001,-4.61344226869608e+000

1.11579493308032e+005,-2.35892010166208e+001,-4.67773259433946e+000

1.13137084989847e+005,-2.35895323134394e+001,-4.74291574059116e+000

1.14716419841265e+005,-2.35898728322758e+001,-4.80900397879895e+000

1.16317801385624e+005,-2.35902228272878e+001,-4.87600974381011e+000

1.17941537383287e+005,-2.35905825594994e+001,-4.94394563594517e+000

1.19587939890794e+005,-2.35909522969784e+001,-5.01282442299015e+000

1.21257325320831e+005,-2.35913323150183e+001,-5.08265904220231e+000

1.22950014503040e+005,-2.35917228963257e+001,-5.15346260233362e+000

1.24666332745679e+005,-2.35921243312104e+001,-5.22524838566876e+000

1.26406609898139e+005,-2.35925369177816e+001,-5.29802985007911e+000

1.28171180414339e+005,-2.35929609621476e+001,-5.37182063109158e+000

1.29960383416997e+005,-2.35933967786202e+001,-5.44663454397251e+000

1.31774562762811e+005,-2.35938446899246e+001,-5.52248558582637e+000

1.33614067108538e+005,-2.35943050274135e+001,-5.59938793770871e+000

1.35479249978003e+005,-2.35947781312859e+001,-5.67735596675375e+000

1.37370469830040e+005,-2.35952643508115e+001,-5.75640422831602e+000

1.39288090127379e+005,-2.35957640445596e+001,-5.83654746812443e+000

1.41232479406504e+005,-2.35962775806336e+001,-5.91780062445196e+000

1.43204011348474e+005,-2.35968053369107e+001,-6.00017883029571e+000

1.45203064850745e+005,-2.35973477012863e+001,-6.08369741557253e+000

1.47230024099979e+005,-2.35979050719245e+001,-6.16837190932432e+000

1.49285278645888e+005,-2.35984778575143e+001,-6.25421804193735e+000

1.51369223476094e+005,-2.35990664775304e+001,-6.34125174737241e+000

1.53482259092041e+005,-2.35996713625003e+001,-6.42948916540605e+000

1.55624791585964e+005,-2.36002929542775e+001,-6.51894664388328e+000

1.57797232718936e+005,-2.36009317063198e+001,-6.60964074098038e+000

1.59999999999999e+005,-2.36015880839739e+001,-6.70158822747775e+000

1.62233516766403e+005,-2.36022625647661e+001,-6.79480608904267e+000

1.64498212264969e+005,-2.36029556386990e+001,-6.88931152852058e+000

1.66794521734578e+005,-2.36036678085542e+001,-6.98512196823583e+000

1.69122886489819e+005,-2.36043995902015e+001,-7.08225505230006e+000

1.71483754005805e+005,-2.36051515129145e+001,-7.18072864892912e+000

1.73877578004168e+005,-2.36059241196925e+001,-7.28056085276549e+000

1.76304818540256e+005,-2.36067179675890e+001,-7.38176998721011e+000

1.78765942091554e+005,-2.36075336280465e+001,-7.48437460675768e+000

1.81261421647326e+005,-2.36083716872386e+001,-7.58839349933978e+000

1.83791736799524e+005,-2.36092327464184e+001,-7.69384568867160e+000

1.86357373834951e+005,-2.36101174222740e+001,-7.80075043660444e+000

1.88958825828723e+005,-2.36110263472904e+001,-7.90912724548181e+000

1.91596592739027e+005,-2.36119601701197e+001,-8.01899586049863e+000

1.94271181503206e+005,-2.36129195559566e+001,-8.13037627206375e+000

1.96983106135185e+005,-2.36139051869228e+001,-8.24328871816531e+000

1.99732887824256e+005,-2.36149177624576e+001,-8.35775368673686e+000

2.02521055035243e+005,-2.36159579997165e+001,-8.47379191802522e+000

2.05348143610063e+005,-2.36170266339764e+001,-8.59142440695912e+000

2.08214696870707e+005,-2.36181244190494e+001,-8.71067240551720e+000

2.11121265723661e+005,-2.36192521277035e+001,-8.83155742509635e+000

2.14068408765776e+005,-2.36204105520912e+001,-8.95410123887758e+000

2.17056692391625e+005,-2.36216005041859e+001,-9.07832588419157e+000

2.20086690902357e+005,-2.36228228162262e+001,-9.20425366488021e+000

2.23158986616063e+005,-2.36240783411680e+001,-9.33190715365673e+000

2.26274169979693e+005,-2.36253679531453e+001,-9.46130919446097e+000

2.29432839682530e+005,-2.36266925479382e+001,-9.59248290481038e+000

2.32635602771247e+005,-2.36280530434497e+001,-9.72545167814765e+000

2.35883074766574e+005,-2.36294503801912e+001,-9.86023918618069e+000

2.39175879781588e+005,-2.36308855217760e+001,-9.99686938121848e+000

2.42514650641661e+005,-2.36323594554213e+001,-1.01353664984984e+001

2.45900029006080e+005,-2.36338731924595e+001,-1.02757550585078e+001

2.49332665491357e+005,-2.36354277688578e+001,-1.04180598692963e+001

2.52813219796278e+005,-2.36370242457469e+001,-1.05623060287802e+001

2.56342360828676e+005,-2.36386637099589e+001,-1.07085189270374e+001

2.59920766833993e+005,-2.36403472745749e+001,-1.08567242485915e+001

2.63549125525621e+005,-2.36420760794806e+001,-1.10069479746870e+001

2.67228134217075e+005,-2.36438512919332e+001,-1.11592163855511e+001

2.70958499956006e+005,-2.36456741071366e+001,-1.13135560626449e+001

2.74740939660078e+005,-2.36475457488278e+001,-1.14699938909006e+001

2.78576180254757e+005,-2.36494674698719e+001,-1.16285570609465e+001

2.82464958813007e+005,-2.36514405528688e+001,-1.17892730713154e+001

2.86408022696948e+005,-2.36534663107696e+001,-1.19521697306399e+001

2.90406129701488e+005,-2.36555460875039e+001,-1.21172751598299e+001

2.94460048199957e+005,-2.36576812586183e+001,-1.22846177942334e+001

2.98570557291775e+005,-2.36598732319256e+001,-1.24542263857795e+001

3.02738446952187e+005,-2.36621234481664e+001,-1.26261300051008e+001

3.06964518184081e+005,-2.36644333816812e+001,-1.28003580436365e+001

3.11249583171928e+005,-2.36668045410958e+001,-1.29769402157134e+001

3.15594465437872e+005,-2.36692384700184e+001,-1.31559065606029e+001

3.19999999999997e+005,-2.36717367477495e+001,-1.33372874445542e+001

3.24467033532806e+005,-2.36743009900048e+001,-1.35211135628008e+001

3.28996424529938e+005,-2.36769328496522e+001,-1.37074159415386e+001

3.33589043469155e+005,-2.36796340174612e+001,-1.38962259398746e+001

3.38245772979638e+005,-2.36824062228682e+001,-1.40875752517428e+001

3.42967508011610e+005,-2.36852512347547e+001,-1.42814959077857e+001

3.47755156008335e+005,-2.36881708622423e+001,-1.44780202771998e+001

3.52609637080511e+005,-2.36911669555013e+001,-1.46771810695396e+001

3.57531884183106e+005,-2.36942414065772e+001,-1.48790113364809e+001

3.62522843294651e+005,-2.36973961502319e+001,-1.50835444735368e+001

3.67583473599047e+005,-2.37006331648027e+001,-1.52908142217255e+001

3.72714747669902e+005,-2.37039544730791e+001,-1.55008546691835e+001

3.77917651657445e+005,-2.37073621431961e+001,-1.57137002527225e+001

3.83193185478053e+005,-2.37108582895475e+001,-1.59293857593247e+001

3.88542363006410e+005,-2.37144450737171e+001,-1.61479463275702e+001

3.93966212270369e+005,-2.37181247054298e+001,-1.63694174489937e+001

3.99465775648511e+005,-2.37218994435228e+001,-1.65938349693628e+001

4.05042110070485e+005,-2.37257715969366e+001,-1.68212350898735e+001

4.10696287220124e+005,-2.37297435257284e+001,-1.70516543682545e+001

4.16429393741414e+005,-2.37338176421052e+001,-1.72851297197752e+001

4.22242531447321e+005,-2.37379964114808e+001,-1.75216984181483e+001

4.28136817531551e+005,-2.37422823535538e+001,-1.77613980963207e+001

4.34113384783250e+005,-2.37466780434090e+001,-1.80042667471418e+001

4.40173381804713e+005,-2.37511861126428e+001,-1.82503427239026e+001

4.46317973232124e+005,-2.37558092505109e+001,-1.84996647407343e+001

4.52548339959385e+005,-2.37605502051011e+001,-1.87522718728570e+001

4.58865679365059e+005,-2.37654117845301e+001,-1.90082035566674e+001

4.65271205542494e+005,-2.37703968581645e+001,-1.92674995896537e+001

4.71766149533147e+005,-2.37755083578665e+001,-1.95302001301271e+001

4.78351759563174e+005,-2.37807492792647e+001,-1.97963456967555e+001

4.85029301283321e+005,-2.37861226830490e+001,-2.00659771678882e+001

4.91800058012158e+005,-2.37916316962902e+001,-2.03391357806558e+001

4.98665330982714e+005,-2.37972795137843e+001,-2.06158631298334e+001

5.05626439592555e+005,-2.38030693994207e+001,-2.08962011664494e+001

5.12684721657352e+005,-2.38090046875736e+001,-2.11801921961275e+001

5.19841533667984e+005,-2.38150887845169e+001,-2.14678788771440e+001

5.27098251051240e+005,-2.38213251698613e+001,-2.17593042181844e+001

5.34456268434150e+005,-2.38277173980131e+001,-2.20545115757830e+001

5.41916999912011e+005,-2.38342690996529e+001,-2.23535446514281e+001

