Freq.,VOut,OutRef

1.00000000000000e+004,-9.47592403726053e+000,-8.72929576136661e-002

1.01395947979003e+004,-9.47592414727167e+000,-8.85115087978192e-002

1.02811382665607e+004,-9.47592426037410e+000,-8.97470697673781e-002

1.04246576084112e+004,-9.47592437665464e+000,-9.09998779462404e-002

1.05701804056138e+004,-9.47592449620262e+000,-9.22701740714895e-002

1.07177346253629e+004,-9.47592461910999e+000,-9.35582022391443e-002

1.08673486252606e+004,-9.47592474547086e+000,-9.48642099538480e-002

1.10190511587661e+004,-9.47592487538228e+000,-9.61884481725703e-002

1.11728713807222e+004,-9.47592500894372e+000,-9.75311713560749e-002

1.13288388529580e+004,-9.47592514625817e+000,-9.88926375117416e-002

1.14869835499703e+004,-9.47592528743081e+000,-1.00273108250882e-001

1.16473358646846e+004,-9.47592543256987e+000,-1.01672848836049e-001

1.18099266142953e+004,-9.47592558178672e+000,-1.03092128229451e-001

1.19747870461893e+004,-9.47592573519587e+000,-1.04531219147156e-001

1.21419488439505e+004,-9.47592589291529e+000,-1.05990398108594e-001

1.23114441334492e+004,-9.47592605506573e+000,-1.07469945495356e-001

1.24833054890161e+004,-9.47592622177148e+000,-1.08970145600507e-001

1.26575659397028e+004,-9.47592639316089e+000,-1.10491286679649e-001

1.28342589756290e+004,-9.47592656936484e+000,-1.12033661017851e-001

1.30134185544193e+004,-9.47592675051886e+000,-1.13597564972104e-001

1.31950791077289e+004,-9.47592693676193e+000,-1.15183299036832e-001

1.33792755478611e+004,-9.47592712823673e+000,-1.16791167899908e-001

1.35660432744767e+004,-9.47592732509028e+000,-1.18421480498695e-001

1.37554181813974e+004,-9.47592752747326e+000,-1.20074550083517e-001

1.39474366635040e+004,-9.47592773554108e+000,-1.21750694272535e-001

1.41421356237309e+004,-9.47592794945333e+000,-1.23450235115719e-001

1.43395524801583e+004,-9.47592816937383e+000,-1.25173499158032e-001

1.45397251732031e+004,-9.47592839547127e+000,-1.26920817498610e-001

1.47426921729110e+004,-9.47592862791907e+000,-1.28692525855435e-001

1.49484924863494e+004,-9.47592886689521e+000,-1.30488964632471e-001

1.51571656651040e+004,-9.47592911258307e+000,-1.32310478979432e-001

1.53687518128801e+004,-9.47592936517061e+000,-1.34157418865068e-001

1.55832915932100e+004,-9.47592962485179e+000,-1.36030139135279e-001

1.58008262372675e+004,-9.47592989182539e+000,-1.37928999590027e-001

1.60213975517924e+004,-9.47593016629589e+000,-1.39854365047742e-001

1.62450479271247e+004,-9.47593044847372e+000,-1.41806605414128e-001

1.64718203453514e+004,-9.47593073857508e+000,-1.43786095755697e-001

1.67017583885674e+004,-9.47593103682196e+000,-1.45793216372812e-001

1.69349062472505e+004,-9.47593134344291e+000,-1.47828352867415e-001

1.71713087287550e+004,-9.47593165867279e+000,-1.49891896221300e-001

1.74110112659224e+004,-9.47593198275291e+000,-1.51984242870184e-001

1.76540599258131e+004,-9.47593231593141e+000,-1.54105794778310e-001

1.79005014185594e+004,-9.47593265846338e+000,-1.56256959516758e-001

1.81503831063432e+004,-9.47593301061094e+000,-1.58438150341252e-001

1.84037530124975e+004,-9.47593337264368e+000,-1.60649786270233e-001

1.86606598307361e+004,-9.47593374483849e+000,-1.62892292167503e-001

1.89211529345119e+004,-9.47593412748045e+000,-1.65166098819343e-001

1.91852823865052e+004,-9.47593452086207e+000,-1.67471643022670e-001

1.94530989482457e+004,-9.47593492528455e+000,-1.69809367662494e-001

1.97246540898671e+004,-9.47593534105682e+000,-1.72179721803628e-001

1.99999999999999e+004,-9.47593576849706e+000,-1.74583160769866e-001

2.02791895958005e+004,-9.47593620793217e+000,-1.77020146234300e-001

2.05622765331213e+004,-9.47593665969811e+000,-1.79491146307842e-001

2.08493152168224e+004,-9.47593712413995e+000,-1.81996635630174e-001

2.11403608112276e+004,-9.47593760161298e+000,-1.84537095455043e-001

2.14354692507258e+004,-9.47593809248182e+000,-1.87113013749412e-001

2.17346972505211e+004,-9.47593859712156e+000,-1.89724885281591e-001

2.20381023175322e+004,-9.47593911591771e+000,-1.92373211717553e-001

2.23457427614443e+004,-9.47593964926657e+000,-1.95058501716887e-001

2.26576777059159e+004,-9.47594019757529e+000,-1.97781271031014e-001

2.29739670999406e+004,-9.47594076126256e+000,-2.00542042599294e-001

2.32946717293690e+004,-9.47594134075857e+000,-2.03341346651819e-001

2.36198532285905e+004,-9.47594193650562e+000,-2.06179720808194e-001

2.39495740923785e+004,-9.47594254895832e+000,-2.09057710181674e-001

2.42838976879009e+004,-9.47594317858385e+000,-2.11975867482710e-001

2.46228882668982e+004,-9.47594382586225e+000,-2.14934753126361e-001

2.49666109780322e+004,-9.47594449128726e+000,-2.17934935334999e-001

2.53151318794055e+004,-9.47594517536613e+000,-2.20976990251062e-001

2.56685179512580e+004,-9.47594587862007e+000,-2.24061502046018e-001

2.60268371088386e+004,-9.47594660158507e+000,-2.27189063029910e-001

2.63901582154578e+004,-9.47594734481181e+000,-2.30360273765912e-001

2.67585510957221e+004,-9.47594810886635e+000,-2.33575743184900e-001

2.71320865489533e+004,-9.47594889433038e+000,-2.36836088701340e-001

2.75108363627948e+004,-9.47594970180178e+000,-2.40141936330914e-001

2.78948733270080e+004,-9.47595053189487e+000,-2.43493920810455e-001

2.82842712474618e+004,-9.47595138524130e+000,-2.46892685717181e-001

2.86791049603164e+004,-9.47595226249002e+000,-2.50338883592985e-001

2.90794503464061e+004,-9.47595316430786e+000,-2.53833176069275e-001

2.94853843458219e+004,-9.47595409138020e+000,-2.57376233991451e-001

2.98969849726987e+004,-9.47595504441167e+000,-2.60968737545171e-001

3.03143313302078e+004,-9.47595602412588e+000,-2.64611376391101e-001

3.07375036257601e+004,-9.47595703126671e+000,-2.68304849791208e-001

3.11665831864199e+004,-9.47595806659867e+000,-2.72049866742881e-001

3.16016524745350e+004,-9.47595913090723e+000,-2.75847146115650e-001

3.20427951035848e+004,-9.47596022499965e+000,-2.79697416785077e-001

3.24900958542493e+004,-9.47596134970539e+000,-2.83601417774172e-001

3.29436406907028e+004,-9.47596250587681e+000,-2.87559898391541e-001

3.34035167771346e+004,-9.47596369438987e+000,-2.91573618374456e-001

3.38698124945009e+004,-9.47596491614452e+000,-2.95643348033572e-001

3.43426174575100e+004,-9.47596617206539e+000,-2.99769868399922e-001

3.48220225318448e+004,-9.47596746310280e+000,-3.03953971370311e-001

3.53081198516260e+004,-9.47596879023305e+000,-3.08196459860126e-001

3.58010028371187e+004,-9.47597015445940e+000,-3.12498147954084e-001

3.63007662126863e+004,-9.47597155681230e+000,-3.16859861063501e-001

3.68075060249948e+004,-9.47597299835105e+000,-3.21282436076548e-001

3.73213196614721e+004,-9.47597448016345e+000,-3.25766721524670e-001

3.78423058690237e+004,-9.47597600336755e+000,-3.30313577735938e-001

3.83705647730104e+004,-9.47597756911164e+000,-3.34923877003870e-001

3.89061978964912e+004,-9.47597917857557e+000,-3.39598503748585e-001

3.94493081797342e+004,-9.47598083297165e+000,-3.44338354684517e-001

3.99999999999998e+004,-9.47598253354503e+000,-3.49144338991637e-001

4.05583791916010e+004,-9.47598428157507e+000,-3.54017378485558e-001

4.11245530662425e+004,-9.47598607837570e+000,-3.58958407793864e-001

4.16986304336447e+004,-9.47598792529699e+000,-3.63968374528858e-001

4.22807216224550e+004,-9.47598982372555e+000,-3.69048239470362e-001

4.28709385014515e+004,-9.47599177508597e+000,-3.74198976742382e-001

4.34693945010421e+004,-9.47599378084128e+000,-3.79421574001688e-001

4.40762046350642e+004,-9.47599584249422e+000,-3.84717032621325e-001

4.46914855228886e+004,-9.47599796158853e+000,-3.90086367877421e-001

4.53153554118317e+004,-9.47600013970948e+000,-3.95530609144476e-001

4.59479341998812e+004,-9.47600237848538e+000,-4.01050800085148e-001

4.65893434587380e+004,-9.47600467958871e+000,-4.06647998847135e-001

4.72397064571810e+004,-9.47600704473680e+000,-4.12323278264300e-001

4.78991481847569e+004,-9.47600947569356e+000,-4.18077726054818e-001

4.85677953758016e+004,-9.47601197427018e+000,-4.23912445028274e-001

4.92457765337964e+004,-9.47601454232674e+000,-4.29828553289477e-001

4.99332219560642e+004,-9.47601718177333e+000,-4.35827184449776e-001

5.06302637588109e+004,-9.47601989457100e+000,-4.41909487839830e-001

5.13370359025159e+004,-9.47602268273373e+000,-4.48076628722070e-001

5.20536742176771e+004,-9.47602554832914e+000,-4.54329788511043e-001

5.27803164309155e+004,-9.47602849348018e+000,-4.60670164992951e-001

5.35171021914442e+004,-9.47603152036633e+000,-4.67098972550188e-001

5.42641730979066e+004,-9.47603463122542e+000,-4.73617442384825e-001

5.50216727255895e+004,-9.47603782835433e+000,-4.80226822753836e-001

5.57897466540159e+004,-9.47604111411131e+000,-4.86928379195337e-001

5.65685424949235e+004,-9.47604449091708e+000,-4.93723394767038e-001

5.73582099206328e+004,-9.47604796125605e+000,-5.00613170286712e-001

5.81589006928121e+004,-9.47605152767877e+000,-5.07599024568528e-001

5.89707686916437e+004,-9.47605519280259e+000,-5.14682294673581e-001

5.97939699453972e+004,-9.47605895931407e+000,-5.21864336152472e-001

6.06286626604156e+004,-9.47606282997000e+000,-5.29146523301429e-001

6.14750072515201e+004,-9.47606680759963e+000,-5.36530249412624e-001

6.23331663728396e+004,-9.47607089510614e+000,-5.44016927033394e-001

6.32033049490698e+004,-9.47607509546859e+000,-5.51607988226274e-001

6.40855902071694e+004,-9.47607941174323e+000,-5.59304884836106e-001

6.49801917084985e+004,-9.47608384706621e+000,-5.67109088751773e-001

6.58872813814055e+004,-9.47608840465448e+000,-5.75022092183871e-001

6.68070335542691e+004,-9.47609308780842e+000,-5.83045407934008e-001

6.77396249890018e+004,-9.47609789991344e+000,-5.91180569674254e-001

6.86852349150199e+004,-9.47610284444204e+000,-5.99429132229092e-001

6.96440450636895e+004,-9.47610792495575e+000,-6.07792671859624e-001

7.06162397032520e+004,-9.47611314510709e+000,-6.16272786552373e-001

7.16020056742374e+004,-9.47611850864199e+000,-6.24871096309770e-001

7.26015324253724e+004,-9.47612401940123e+000,-6.33589243449239e-001

7.36150120499896e+004,-9.47612968132317e+000,-6.42428892898851e-001

7.46426393229441e+004,-9.47613549844575e+000,-6.51391732501509e-001

7.56846117380472e+004,-9.47614147490842e+000,-6.60479473323006e-001

7.67411295460207e+004,-9.47614761495454e+000,-6.69693849961821e-001

7.78123957929823e+004,-9.47615392293351e+000,-6.79036620862933e-001

7.88986163594682e+004,-9.47616040330326e+000,-6.88509568636245e-001

7.99999999999995e+004,-9.47616706063233e+000,-6.98114500378878e-001

8.11167583832018e+004,-9.47617389960191e+000,-7.07853248002634e-001

8.22491061324848e+004,-9.47618092500889e+000,-7.17727668560338e-001

8.33972608672892e+004,-9.47618814176750e+000,-7.27739644583687e-001

8.45614432449099e+004,-9.47619555491198e+000,-7.37891084419028e-001

8.57418770029029e+004,-9.47620316959885e+000,-7.48183922570792e-001

8.69387890020841e+004,-9.47621099110954e+000,-7.58620120045312e-001

8.81524092701283e+004,-9.47621902485233e+000,-7.69201664704412e-001

8.93829710457770e+004,-9.47622727636520e+000,-7.79930571617312e-001

9.06307108236633e+004,-9.47623575131816e+000,-7.90808883419289e-001

9.18958683997622e+004,-9.47624445551532e+000,-8.01838670676638e-001

9.31786869174758e+004,-9.47625339489772e+000,-8.13022032251783e-001

9.44794129143618e+004,-9.47626257554559e+000,-8.24361095675233e-001

9.57982963695136e+004,-9.47627200368054e+000,-8.35858017522333e-001

9.71355907516031e+004,-9.47628168566831e+000,-8.47514983792146e-001

9.84915530675926e+004,-9.47629162802104e+000,-8.59334210291643e-001

9.98664439121282e+004,-9.47630183739923e+000,-8.71317943027332e-001

1.01260527517622e+005,-9.47631232061473e+000,-8.83468458594968e-001

1.02674071805032e+005,-9.47632308463234e+000,-8.95788064581261e-001

1.04107348435354e+005,-9.47633413657268e+000,-9.08279099963211e-001

1.05560632861831e+005,-9.47634548371396e+000,-9.20943935516966e-001

1.07034204382888e+005,-9.47635713349415e+000,-9.33784974230146e-001

1.08528346195813e+005,-9.47636909351352e+000,-9.46804651715807e-001

1.10043345451179e+005,-9.47638137153610e+000,-9.60005436635950e-001

1.11579493308032e+005,-9.47639397549204e+000,-9.73389831125668e-001

1.13137084989847e+005,-9.47640691347926e+000,-9.86960371224739e-001

1.14716419841265e+005,-9.47642019376547e+000,-1.00071962731206e+000

1.16317801385624e+005,-9.47643382478956e+000,-1.01467020454674e+000

1.17941537383287e+005,-9.47644781516337e+000,-1.02881474331268e+000

1.19587939890794e+005,-9.47646217367317e+000,-1.04315591966861e+000

1.21257325320831e+005,-9.47647690928100e+000,-1.05769644580211e+000

1.22950014503040e+005,-9.47649203112555e+000,-1.07243907049232e+000

1.24666332745679e+005,-9.47650754852371e+000,-1.08738657957099e+000

1.26406609898139e+005,-9.47652347097099e+000,-1.10254179639583e+000

1.28171180414339e+005,-9.47653980814243e+000,-1.11790758232387e+000

1.29960383416997e+005,-9.47655656989308e+000,-1.13348683719226e+000

1.31774562762811e+005,-9.47657376625802e+000,-1.14928249980489e+000

1.33614067108538e+005,-9.47659140745279e+000,-1.16529754842153e+000

1.35479249978003e+005,-9.47660950387291e+000,-1.18153500125507e+000

1.37370469830040e+005,-9.47662806609355e+000,-1.19799791697335e+000

1.39288090127379e+005,-9.47664710486877e+000,-1.21468939520509e+000

1.41232479406504e+005,-9.47666663113046e+000,-1.23161257705335e+000

1.43204011348474e+005,-9.47668665598684e+000,-1.24877064561438e+000

1.45203064850745e+005,-9.47670719072105e+000,-1.26616682649915e+000

1.47230024099979e+005,-9.47672824678891e+000,-1.28380438836481e+000

1.49285278645888e+005,-9.47674983581644e+000,-1.30168664344903e+000

1.51369223476094e+005,-9.47677196959695e+000,-1.31981694811207e+000

1.53482259092041e+005,-9.47679466008801e+000,-1.33819870338227e+000

1.55624791585964e+005,-9.47681791940719e+000,-1.35683535551141e+000

1.57797232718936e+005,-9.47684175982851e+000,-1.37573039653048e+000

1.59999999999999e+005,-9.47686619377691e+000,-1.39488736481938e+000

1.62233516766403e+005,-9.47689123382336e+000,-1.41430984567629e+000

1.64498212264969e+005,-9.47691689267890e+000,-1.43400147189601e+000

1.66794521734578e+005,-9.47694318318801e+000,-1.45396592435557e+000

1.69122886489819e+005,-9.47697011832157e+000,-1.47420693260543e+000

1.71483754005805e+005,-9.47699771116885e+000,-1.49472827546808e+000

1.73877578004168e+005,-9.47702597492915e+000,-1.51553378164325e+000

1.76304818540256e+005,-9.47705492290217e+000,-1.53662733032155e+000

1.78765942091554e+005,-9.47708456847833e+000,-1.55801285180243e+000

1.81261421647326e+005,-9.47711492512738e+000,-1.57969432812341e+000

1.83791736799524e+005,-9.47714600638692e+000,-1.60167579369432e+000

1.86357373834951e+005,-9.47717782584947e+000,-1.62396133594029e+000

1.88958825828723e+005,-9.47721039714894e+000,-1.64655509595300e+000

1.91596592739027e+005,-9.47724373394577e+000,-1.66946126915023e+000

1.94271181503206e+005,-9.47727784991130e+000,-1.69268410594410e+000

1.96983106135185e+005,-9.47731275871096e+000,-1.71622791241682e+000

1.99732887824256e+005,-9.47734847398618e+000,-1.74009705100818e+000

2.02521055035243e+005,-9.47738500933553e+000,-1.76429594120866e+000

2.05348143610063e+005,-9.47742237829392e+000,-1.78882906026741e+000

2.08214696870707e+005,-9.47746059431123e+000,-1.81370094390441e+000

2.11121265723661e+005,-9.47749967072918e+000,-1.83891618703823e+000

2.14068408765776e+005,-9.47753962075692e+000,-1.86447944452043e+000

2.17056692391625e+005,-9.47758045744518e+000,-1.89039543188431e+000

2.20086690902357e+005,-9.47762219365899e+000,-1.91666892610234e+000

2.23158986616063e+005,-9.47766484204879e+000,-1.94330476635812e+000

2.26274169979693e+005,-9.47770841501973e+000,-1.97030785482944e+000

2.29432839682530e+005,-9.47775292469998e+000,-1.99768315748351e+000

2.32635602771247e+005,-9.47779838290624e+000,-2.02543570488826e+000

2.35883074766574e+005,-9.47784480110883e+000,-2.05357059303373e+000

2.39175879781588e+005,-9.47789219039382e+000,-2.08209298417170e+000

2.42514650641661e+005,-9.47794056142378e+000,-2.11100810766862e+000

2.45900029006080e+005,-9.47798992439675e+000,-2.14032126087365e+000

2.49332665491357e+005,-9.47804028900314e+000,-2.17003781000405e+000

2.52813219796278e+005,-9.47809166438022e+000,-2.20016319104859e+000

2.56342360828676e+005,-9.47814405906528e+000,-2.23070291068533e+000

2.59920766833993e+005,-9.47819748094610e+000,-2.26166254722186e+000

2.63549125525621e+005,-9.47825193720957e+000,-2.29304775155185e+000

2.67228134217075e+005,-9.47830743428794e+000,-2.32486424813317e+000

2.70958499956006e+005,-9.47836397780300e+000,-2.35711783598638e+000

2.74740939660078e+005,-9.47842157250805e+000,-2.38981438971424e+000

2.78576180254757e+005,-9.47848022222736e+000,-2.42295986054513e+000

2.82464958813007e+005,-9.47853992979344e+000,-2.45656027739911e+000

2.86408022696948e+005,-9.47860069698197e+000,-2.49062174797918e+000

2.90406129701488e+005,-9.47866252444463e+000,-2.52515045988530e+000

2.94460048199957e+005,-9.47872541163897e+000,-2.56015268175950e+000

2.98570557291775e+005,-9.47878935675639e+000,-2.59563476445481e+000

3.02738446952187e+005,-9.47885435664761e+000,-2.63160314223354e+000

3.06964518184081e+005,-9.47892040674593e+000,-2.66806433399527e+000

3.11249583171928e+005,-9.47898750098761e+000,-2.70502494453661e+000

3.15594465437872e+005,-9.47905563173047e+000,-2.74249166584085e+000

3.19999999999997e+005,-9.47912478967008e+000,-2.78047127840134e+000

3.24467033532806e+005,-9.47919496375323e+000,-2.81897065258040e+000

3.28996424529938e+005,-9.47926614108960e+000,-2.85799675000142e+000

3.33589043469155e+005,-9.47933830686120e+000,-2.89755662497786e+000

3.38245772979638e+005,-9.47941144422924e+000,-2.93765742598192e+000

3.42967508011610e+005,-9.47948553423964e+000,-2.97830639714834e+000

3.47755156008335e+005,-9.47956055572571e+000,-3.01951087982228e+000

3.52609637080511e+005,-9.47963648520959e+000,-3.06127831414553e+000

3.57531884183106e+005,-9.47971329680154e+000,-3.10361624068577e+000

3.62522843294651e+005,-9.47979096209743e+000,-3.14653230211100e+000

3.67583473599047e+005,-9.47986945007496e+000,-3.19003424490584e+000

3.72714747669902e+005,-9.47994872698805e+000,-3.23412992113597e+000

3.77917651657445e+005,-9.48002875625990e+000,-3.27882729025940e+000

3.83193185478053e+005,-9.48010949837531e+000,-3.32413442098277e+000

3.88542363006410e+005,-9.48019091077113e+000,-3.37005949317166e+000

3.93966212270369e+005,-9.48027294772658e+000,-3.41661079980595e+000

3.99465775648511e+005,-9.48035556025235e+000,-3.46379674898930e+000

4.05042110070485e+005,-9.48043869597947e+000,-3.51162586600846e+000

4.10696287220124e+005,-9.48052229904758e+000,-3.56010679544655e+000

4.16429393741414e+005,-9.48060630999315e+000,-3.60924830334871e+000

4.22242531447321e+005,-9.48069066563782e+000,-3.65905927944158e+000

4.28136817531551e+005,-9.48077529897679e+000,-3.70954873940842e+000

4.34113384783250e+005,-9.48086013906799e+000,-3.76072582721737e+000

4.40173381804713e+005,-9.48094511092147e+000,-3.81259981750752e+000

4.46317973232124e+005,-9.48103013539042e+000,-3.86518011802742e+000

4.52548339959385e+005,-9.48111512906258e+000,-3.91847627213289e+000

4.58865679365059e+005,-9.48120000415357e+000,-3.97249796133859e+000

4.65271205542494e+005,-9.48128466840150e+000,-4.02725500792633e+000

4.71766149533147e+005,-9.48136902496387e+000,-4.08275737760799e+000

4.78351759563174e+005,-9.48145297231589e+000,-4.13901518224724e+000

4.85029301283321e+005,-9.48153640415180e+000,-4.19603868263148e+000

4.91800058012158e+005,-9.48161920928817e+000,-4.25383829130312e+000

4.98665330982714e+005,-9.48170127157036e+000,-4.31242457544232e+000

5.05626439592555e+005,-9.48178246978150e+000,-4.37180825980420e+000

5.12684721657352e+005,-9.48186267755517e+000,-4.43200022970713e+000

5.19841533667984e+005,-9.48194176329080e+000,-4.49301153407474e+000

5.27098251051240e+005,-9.48201959007308e+000,-4.55485338852644e+000

5.34456268434150e+005,-9.48209601559497e+000,-4.61753717851765e+000

5.41916999912011e+005,-9.48217089208393e+000,-4.68107446252974e+000

