Freq.,VOut,OutRef

1.00000000000000e+004,-2.13944924301843e+001,-1.74738557833747e-001

1.01395947979003e+004,-2.13944930093187e+001,-1.77177794152647e-001

1.02811382665607e+004,-2.13944936047323e+001,-1.79651079963116e-001

1.04246576084112e+004,-2.13944942168829e+001,-1.82158890537518e-001

1.05701804056138e+004,-2.13944948462409e+001,-1.84701707778391e-001

1.07177346253629e+004,-2.13944954932897e+001,-1.87280020317411e-001

1.08673486252606e+004,-2.13944961585267e+001,-1.89894323602722e-001

1.10190511587661e+004,-2.13944968424630e+001,-1.92545119997244e-001

1.11728713807222e+004,-2.13944975456243e+001,-1.95232918874066e-001

1.13288388529580e+004,-2.13944982685505e+001,-1.97958236716710e-001

1.14869835499703e+004,-2.13944990117976e+001,-2.00721597213320e-001

1.16473358646846e+004,-2.13944997759363e+001,-2.03523531363023e-001

1.18099266142953e+004,-2.13945005615540e+001,-2.06364577572056e-001

1.19747870461893e+004,-2.13945013692539e+001,-2.09245281763667e-001

1.21419488439505e+004,-2.13945021996571e+001,-2.12166197474860e-001

1.23114441334492e+004,-2.13945030534013e+001,-2.15127885969965e-001

1.24833054890161e+004,-2.13945039311427e+001,-2.18130916343692e-001

1.26575659397028e+004,-2.13945048335553e+001,-2.21175865635149e-001

1.28342589756290e+004,-2.13945057613326e+001,-2.24263318931200e-001

1.30134185544193e+004,-2.13945067151875e+001,-2.27393869484922e-001

1.31950791077289e+004,-2.13945076958524e+001,-2.30568118828947e-001

1.33792755478611e+004,-2.13945087040812e+001,-2.33786676885676e-001

1.35660432744767e+004,-2.13945097406482e+001,-2.37050162091322e-001

1.37554181813974e+004,-2.13945108063496e+001,-2.40359201510323e-001

1.39474366635040e+004,-2.13945119020043e+001,-2.43714430955715e-001

1.41421356237309e+004,-2.13945130284537e+001,-2.47116495113356e-001

1.43395524801583e+004,-2.13945141865632e+001,-2.50566047663691e-001

1.45397251732031e+004,-2.13945153772224e+001,-2.54063751406216e-001

1.47426921729110e+004,-2.13945166013460e+001,-2.57610278389178e-001

1.49484924863494e+004,-2.13945178598739e+001,-2.61206310038718e-001

1.51571656651040e+004,-2.13945191537731e+001,-2.64852537285363e-001

1.53687518128801e+004,-2.13945204840373e+001,-2.68549660700716e-001

1.55832915932100e+004,-2.13945218516883e+001,-2.72298390630033e-001

1.58008262372675e+004,-2.13945232577762e+001,-2.76099447329565e-001

1.60213975517924e+004,-2.13945247033812e+001,-2.79953561103099e-001

1.62450479271247e+004,-2.13945261896133e+001,-2.83861472442290e-001

1.64718203453514e+004,-2.13945277176139e+001,-2.87823932169822e-001

1.67017583885674e+004,-2.13945292885565e+001,-2.91841701581798e-001

1.69349062472505e+004,-2.13945309036474e+001,-2.95915552595071e-001

1.71713087287550e+004,-2.13945325641268e+001,-3.00046267894279e-001

1.74110112659224e+004,-2.13945342712698e+001,-3.04234641082036e-001

1.76540599258131e+004,-2.13945360263871e+001,-3.08481476831051e-001

1.79005014185594e+004,-2.13945378308263e+001,-3.12787591039026e-001

1.81503831063432e+004,-2.13945396859730e+001,-3.17153810981257e-001

1.84037530124975e+004,-2.13945415932514e+001,-3.21580975476445e-001

1.86606598307361e+004,-2.13945435541256e+001,-3.26069935041014e-001

1.89211529345119e+004,-2.13945455701013e+001,-3.30621552052722e-001

1.91852823865052e+004,-2.13945476427260e+001,-3.35236700919080e-001

1.94530989482457e+004,-2.13945497735905e+001,-3.39916268243267e-001

1.97246540898671e+004,-2.13945519643308e+001,-3.44661152990860e-001

1.99999999999999e+004,-2.13945542166282e+001,-3.49472266668227e-001

2.02791895958005e+004,-2.13945565322116e+001,-3.54350533490797e-001

2.05622765331213e+004,-2.13945589128582e+001,-3.59296890563587e-001

2.08493152168224e+004,-2.13945613603950e+001,-3.64312288059732e-001

2.11403608112276e+004,-2.13945638767006e+001,-3.69397689400946e-001

2.14354692507258e+004,-2.13945664637056e+001,-3.74554071446159e-001

2.17346972505211e+004,-2.13945691233954e+001,-3.79782424672526e-001

2.20381023175322e+004,-2.13945718578109e+001,-3.85083753368978e-001

2.23457427614443e+004,-2.13945746690500e+001,-3.90459075827848e-001

2.26576777059159e+004,-2.13945775592696e+001,-3.95909424537724e-001

2.29739670999406e+004,-2.13945805306873e+001,-4.01435846382435e-001

2.32946717293690e+004,-2.13945835855823e+001,-4.07039402842549e-001

2.36198532285905e+004,-2.13945867262983e+001,-4.12721170194645e-001

2.39495740923785e+004,-2.13945899552442e+001,-4.18482239720709e-001

2.42838976879009e+004,-2.13945932748969e+001,-4.24323717913477e-001

2.46228882668982e+004,-2.13945966878021e+001,-4.30246726692709e-001

2.49666109780322e+004,-2.13946001965775e+001,-4.36252403613274e-001

2.53151318794055e+004,-2.13946038039136e+001,-4.42341902087214e-001

2.56685179512580e+004,-2.13946075125767e+001,-4.48516391602366e-001

2.60268371088386e+004,-2.13946113254103e+001,-4.54777057945243e-001

2.63901582154578e+004,-2.13946152453378e+001,-4.61125103428987e-001

2.67585510957221e+004,-2.13946192753642e+001,-4.67561747121839e-001

2.71320865489533e+004,-2.13946234185789e+001,-4.74088225079829e-001

2.75108363627948e+004,-2.13946276781577e+001,-4.80705790581904e-001

2.78948733270080e+004,-2.13946320573654e+001,-4.87415714372145e-001

2.82842712474618e+004,-2.13946365595581e+001,-4.94219284897854e-001

2.86791049603164e+004,-2.13946411881859e+001,-5.01117808559025e-001

2.90794503464061e+004,-2.13946459467956e+001,-5.08112609955033e-001

2.94853843458219e+004,-2.13946508390330e+001,-5.15205032138619e-001

2.98969849726987e+004,-2.13946558686461e+001,-5.22396436871407e-001

3.03143313302078e+004,-2.13946610394878e+001,-5.29688204882229e-001

3.07375036257601e+004,-2.13946663555187e+001,-5.37081736132774e-001

3.11665831864199e+004,-2.13946718208102e+001,-5.44578450082156e-001

3.16016524745350e+004,-2.13946774395476e+001,-5.52179785957227e-001

3.20427951035848e+004,-2.13946832160332e+001,-5.59887203027436e-001

3.24900958542493e+004,-2.13946891546896e+001,-5.67702180883340e-001

3.29436406907028e+004,-2.13946952600632e+001,-5.75626219715370e-001

3.34035167771346e+004,-2.13947015368272e+001,-5.83660840601751e-001

3.38698124945009e+004,-2.13947079897855e+001,-5.91807585797909e-001

3.43426174575100e+004,-2.13947146238765e+001,-6.00068019026039e-001

3.48220225318448e+004,-2.13947214441761e+001,-6.08443725777963e-001

3.53081198516260e+004,-2.13947284559024e+001,-6.16936313610746e-001

3.58010028371187e+004,-2.13947356644189e+001,-6.25547412456669e-001

3.63007662126863e+004,-2.13947430752390e+001,-6.34278674929227e-001

3.68075060249948e+004,-2.13947506940302e+001,-6.43131776639379e-001

3.73213196614721e+004,-2.13947585266179e+001,-6.52108416510737e-001

3.78423058690237e+004,-2.13947665789902e+001,-6.61210317105198e-001

3.83705647730104e+004,-2.13947748573024e+001,-6.70439224946614e-001

3.89061978964912e+004,-2.13947833678811e+001,-6.79796910853919e-001

3.94493081797342e+004,-2.13947921172298e+001,-6.89285170274423e-001

3.99999999999998e+004,-2.13948011120331e+001,-6.98905823626698e-001

4.05583791916010e+004,-2.13948103591618e+001,-7.08660716642947e-001

4.11245530662425e+004,-2.13948198656783e+001,-7.18551720719146e-001

4.16986304336447e+004,-2.13948296388421e+001,-7.28580733268088e-001

4.22807216224550e+004,-2.13948396861144e+001,-7.38749678080245e-001

4.28709385014515e+004,-2.13948500151644e+001,-7.49060505685435e-001

4.34693945010421e+004,-2.13948606338749e+001,-7.59515193721788e-001

4.40762046350642e+004,-2.13948715503480e+001,-7.70115747309787e-001

4.46914855228886e+004,-2.13948827729112e+001,-7.80864199429460e-001

4.53153554118317e+004,-2.13948943101235e+001,-7.91762611305870e-001

4.59479341998812e+004,-2.13949061707824e+001,-8.02813072794186e-001

4.65893434587380e+004,-2.13949183639295e+001,-8.14017702778765e-001

4.72397064571810e+004,-2.13949308988580e+001,-8.25378649565638e-001

4.78991481847569e+004,-2.13949437851188e+001,-8.36898091294095e-001

4.85677953758016e+004,-2.13949570325287e+001,-8.48578236340227e-001

4.92457765337964e+004,-2.13949706511767e+001,-8.60421323734961e-001

4.99332219560642e+004,-2.13949846514318e+001,-8.72429623585528e-001

5.06302637588109e+004,-2.13949990439507e+001,-8.84605437500405e-001

5.13370359025159e+004,-2.13950138396856e+001,-8.96951099020876e-001

5.20536742176771e+004,-2.13950290498926e+001,-9.09468974060280e-001

5.27803164309155e+004,-2.13950446861393e+001,-9.22161461345846e-001

5.35171021914442e+004,-2.13950607603142e+001,-9.35030992869117e-001

5.42641730979066e+004,-2.13950772846345e+001,-9.48080034340703e-001

5.50216727255895e+004,-2.13950942716560e+001,-9.61311085650527e-001

5.57897466540159e+004,-2.13951117342816e+001,-9.74726681337289e-001

5.65685424949235e+004,-2.13951296857711e+001,-9.88329391059800e-001

5.73582099206328e+004,-2.13951481397507e+001,-1.00212182007737e+000

5.81589006928121e+004,-2.13951671102232e+001,-1.01610660973471e+000

5.89707686916437e+004,-2.13951866115781e+001,-1.03028643795582e+000

5.97939699453972e+004,-2.13952066586019e+001,-1.04466401974066e+000

6.06286626604156e+004,-2.13952272664890e+001,-1.05924210767083e+000

6.14750072515201e+004,-2.13952484508529e+001,-1.07402349242195e+000

6.23331663728396e+004,-2.13952702277374e+001,-1.08901100328025e+000

6.32033049490698e+004,-2.13952926136278e+001,-1.10420750866822e+000

6.40855902071694e+004,-2.13953156254636e+001,-1.11961591667682e+000

6.49801917084985e+004,-2.13953392806500e+001,-1.13523917560228e+000

6.58872813814055e+004,-2.13953635970710e+001,-1.15108027449334e+000

6.68070335542691e+004,-2.13953885931015e+001,-1.16714224370217e+000

6.77396249890018e+004,-2.13954142876214e+001,-1.18342815544411e+000

6.86852349150199e+004,-2.13954407000286e+001,-1.19994112436401e+000

6.96440450636895e+004,-2.13954678502528e+001,-1.21668430811067e+000

7.06162397032520e+004,-2.13954957587697e+001,-1.23366090791672e+000

7.16020056742374e+004,-2.13955244466161e+001,-1.25087416918818e+000

7.26015324253724e+004,-2.13955539354040e+001,-1.26832738209797e+000

7.36150120499896e+004,-2.13955842473366e+001,-1.28602388219240e+000

7.46426393229441e+004,-2.13956154052237e+001,-1.30396705099894e+000

7.56846117380472e+004,-2.13956474324977e+001,-1.32216031664637e+000

7.67411295460207e+004,-2.13956803532304e+001,-1.34060715449002e+000

7.78123957929823e+004,-2.13957141921493e+001,-1.35931108774646e+000

7.88986163594682e+004,-2.13957489746557e+001,-1.37827568813479e+000

7.99999999999995e+004,-2.13957847268417e+001,-1.39750457652717e+000

8.11167583832018e+004,-2.13958214755089e+001,-1.41700142360508e+000

8.22491061324848e+004,-2.13958592481866e+001,-1.43676995052652e+000

8.33972608672892e+004,-2.13958980731511e+001,-1.45681392959952e+000

8.45614432449099e+004,-2.13959379794451e+001,-1.47713718496539e+000

8.57418770029029e+004,-2.13959789968977e+001,-1.49774359328680e+000

8.69387890020841e+004,-2.13960211561450e+001,-1.51863708444961e+000

8.81524092701283e+004,-2.13960644886508e+001,-1.53982164226885e+000

8.93829710457770e+004,-2.13961090267282e+001,-1.56130130520438e+000

9.06307108236633e+004,-2.13961548035616e+001,-1.58308016708672e+000

9.18958683997622e+004,-2.13962018532289e+001,-1.60516237784935e+000

9.31786869174758e+004,-2.13962502107248e+001,-1.62755214427107e+000

9.44794129143618e+004,-2.13962999119842e+001,-1.65025373072609e+000

9.57982963695136e+004,-2.13963509939060e+001,-1.67327145994565e+000

9.71355907516031e+004,-2.13964034943782e+001,-1.69660971378492e+000

9.84915530675926e+004,-2.13964574523028e+001,-1.72027293400138e+000

9.98664439121282e+004,-2.13965129076214e+001,-1.74426562304206e+000

1.01260527517622e+005,-2.13965699013416e+001,-1.76859234483956e+000

1.02674071805032e+005,-2.13966284755641e+001,-1.79325772561712e+000

1.04107348435354e+005,-2.13966886735101e+001,-1.81826645470322e+000

1.05560632861831e+005,-2.13967505395494e+001,-1.84362328535623e+000

1.07034204382888e+005,-2.13968141192286e+001,-1.86933303559835e+000

1.08528346195813e+005,-2.13968794593017e+001,-1.89540058905678e+000

1.10043345451179e+005,-2.13969466077585e+001,-1.92183089581987e+000

1.11579493308032e+005,-2.13970156138565e+001,-1.94862897329632e+000

1.13137084989847e+005,-2.13970865281514e+001,-1.97579990708957e+000

1.14716419841265e+005,-2.13971594025293e+001,-2.00334885187930e+000

1.16317801385624e+005,-2.13972342902390e+001,-2.03128103231300e+000

1.17941537383287e+005,-2.13973112459259e+001,-2.05960174390903e+000

1.19587939890794e+005,-2.13973903256649e+001,-2.08831635396850e+000

1.21257325320831e+005,-2.13974715869958e+001,-2.11743030249693e+000

1.22950014503040e+005,-2.13975550889585e+001,-2.14694910313697e+000

1.24666332745679e+005,-2.13976408921283e+001,-2.17687834411237e+000

1.26406609898139e+005,-2.13977290586535e+001,-2.20722368917989e+000

1.28171180414339e+005,-2.13978196522922e+001,-2.23799087859290e+000

1.29960383416997e+005,-2.13979127384505e+001,-2.26918573007728e+000

1.31774562762811e+005,-2.13980083842215e+001,-2.30081413981433e+000

1.33614067108538e+005,-2.13981066584246e+001,-2.33288208343701e+000

1.35479249978003e+005,-2.13982076316460e+001,-2.36539561703761e+000

1.37370469830040e+005,-2.13983113762794e+001,-2.39836087818246e+000

1.39288090127379e+005,-2.13984179665678e+001,-2.43178408694331e+000

1.41232479406504e+005,-2.13985274786462e+001,-2.46567154693382e+000

1.43204011348474e+005,-2.13986399905846e+001,-2.50002964636187e+000

1.45203064850745e+005,-2.13987555824318e+001,-2.53486485909069e+000

1.47230024099979e+005,-2.13988743362603e+001,-2.57018374571245e+000

1.49285278645888e+005,-2.13989963362113e+001,-2.60599295463278e+000

1.51369223476094e+005,-2.13991216685416e+001,-2.64229922316706e+000

1.53482259092041e+005,-2.13992504216693e+001,-2.67910937864903e+000

1.55624791585964e+005,-2.13993826862226e+001,-2.71643033954978e+000

1.57797232718936e+005,-2.13995185550873e+001,-2.75426911661101e+000

1.59999999999999e+005,-2.13996581234561e+001,-2.79263281398840e+000

1.62233516766403e+005,-2.13998014888787e+001,-2.83152863040765e+000

1.64498212264969e+005,-2.13999487513114e+001,-2.87096386033461e+000

1.66794521734578e+005,-2.14001000131695e+001,-2.91094589515579e+000

1.69122886489819e+005,-2.14002553793781e+001,-2.95148222437363e+000

1.71483754005805e+005,-2.14004149574254e+001,-2.99258043681282e+000

1.73877578004168e+005,-2.14005788574157e+001,-3.03424822184113e+000

1.76304818540256e+005,-2.14007471921238e+001,-3.07649337060424e+000

1.78765942091554e+005,-2.14009200770487e+001,-3.11932377727212e+000

1.81261421647326e+005,-2.14010976304702e+001,-3.16274744030117e+000

1.83791736799524e+005,-2.14012799735038e+001,-3.20677246370906e+000

1.86357373834951e+005,-2.14014672301581e+001,-3.25140705836547e+000

1.88958825828723e+005,-2.14016595273915e+001,-3.29665954329589e+000

1.91596592739027e+005,-2.14018569951706e+001,-3.34253834700164e+000

1.94271181503206e+005,-2.14020597665285e+001,-3.38905200879421e+000

1.96983106135185e+005,-2.14022679776237e+001,-3.43620918014548e+000

1.99732887824256e+005,-2.14024817678004e+001,-3.48401862605495e+000

2.02521055035243e+005,-2.14027012796482e+001,-3.53248922643127e+000

2.05348143610063e+005,-2.14029266590636e+001,-3.58162997749197e+000

2.08214696870707e+005,-2.14031580553110e+001,-3.63144999318004e+000

2.11121265723661e+005,-2.14033956210850e+001,-3.68195850659843e+000

2.14068408765776e+005,-2.14036395125728e+001,-3.73316487146130e+000

2.17056692391625e+005,-2.14038898895177e+001,-3.78507856356541e+000

2.20086690902357e+005,-2.14041469152820e+001,-3.83770918227985e+000

2.23158986616063e+005,-2.14044107569122e+001,-3.89106645205544e+000

2.26274169979693e+005,-2.14046815852031e+001,-3.94516022395419e+000

2.29432839682530e+005,-2.14049595747632e+001,-4.00000047720009e+000

2.32635602771247e+005,-2.14052449040806e+001,-4.05559732075092e+000

2.35883074766574e+005,-2.14055377555891e+001,-4.11196099489253e+000

2.39175879781588e+005,-2.14058383157356e+001,-4.16910187285621e+000

2.42514650641661e+005,-2.14061467750470e+001,-4.22703046245831e+000

2.45900029006080e+005,-2.14064633281985e+001,-4.28575740776629e+000

2.49332665491357e+005,-2.14067881740823e+001,-4.34529349078855e+000

2.52813219796278e+005,-2.14071215158765e+001,-4.40564963319038e+000

2.56342360828676e+005,-2.14074635611152e+001,-4.46683689803800e+000

2.59920766833993e+005,-2.14078145217592e+001,-4.52886649156855e+000

2.63549125525621e+005,-2.14081746142669e+001,-4.59174976499085e+000

2.67228134217075e+005,-2.14085440596665e+001,-4.65549821631463e+000

2.70958499956006e+005,-2.14089230836286e+001,-4.72012349221114e+000

2.74740939660078e+005,-2.14093119165404e+001,-4.78563738990534e+000

2.78576180254757e+005,-2.14097107935800e+001,-4.85205185910144e+000

2.82464958813007e+005,-2.14101199547917e+001,-4.91937900394232e+000

2.86408022696948e+005,-2.14105396451636e+001,-4.98763108500432e+000

2.90406129701488e+005,-2.14109701147050e+001,-5.05682052132767e+000

2.94460048199957e+005,-2.14114116185256e+001,-5.12695989248648e+000

2.98570557291775e+005,-2.14118644169166e+001,-5.19806194069518e+000

3.02738446952187e+005,-2.14123287754326e+001,-5.27013957295711e+000

3.06964518184081e+005,-2.14128049649759e+001,-5.34320586325375e+000

3.11249583171928e+005,-2.14132932618821e+001,-5.41727405477568e+000

3.15594465437872e+005,-2.14137939480078e+001,-5.49235756220005e+000

3.19999999999997e+005,-2.14143073108212e+001,-5.56846997401062e+000

3.24467033532806e+005,-2.14148336434940e+001,-5.64562505486633e+000

3.28996424529938e+005,-2.14153732449970e+001,-5.72383674801669e+000

3.33589043469155e+005,-2.14159264201977e+001,-5.80311917776758e+000

3.38245772979638e+005,-2.14164934799616e+001,-5.88348665199639e+000

3.42967508011610e+005,-2.14170747412568e+001,-5.96495366471943e+000

3.47755156008335e+005,-2.14176705272619e+001,-6.04753489871289e+000

3.52609637080511e+005,-2.14182811674780e+001,-6.13124522818736e+000

3.57531884183106e+005,-2.14189069978456e+001,-6.21609972151774e+000

3.62522843294651e+005,-2.14195483608653e+001,-6.30211364403054e+000

3.67583473599047e+005,-2.14202056057237e+001,-6.38930246084814e+000

3.72714747669902e+005,-2.14208790884253e+001,-6.47768183979064e+000

3.77917651657445e+005,-2.14215691719290e+001,-6.56726765433946e+000

3.83193185478053e+005,-2.14222762262921e+001,-6.65807598665918e+000

3.88542363006410e+005,-2.14230006288199e+001,-6.75012313068081e+000

3.93966212270369e+005,-2.14237427642229e+001,-6.84342559524795e+000

3.99465775648511e+005,-2.14245030247815e+001,-6.93800010732264e+000

4.05042110070485e+005,-2.14252818105187e+001,-7.03386361525620e+000

4.10696287220124e+005,-2.14260795293809e+001,-7.13103329212055e+000

4.16429393741414e+005,-2.14268965974292e+001,-7.22952653910362e+000

4.22242531447321e+005,-2.14277334390384e+001,-7.32936098896685e+000

4.28136817531551e+005,-2.14285904871078e+001,-7.43055450956468e+000

4.34113384783250e+005,-2.14294681832820e+001,-7.53312520742694e+000

4.40173381804713e+005,-2.14303669781831e+001,-7.63709143140085e+000

4.46317973232124e+005,-2.14312873316552e+001,-7.74247177635535e+000

4.52548339959385e+005,-2.14322297130209e+001,-7.84928508694257e+000

4.58865679365059e+005,-2.14331946013517e+001,-7.95755046141882e+000

4.65271205542494e+005,-2.14341824857513e+001,-8.06728725552145e+000

4.71766149533147e+005,-2.14351938656544e+001,-8.17851508640050e+000

4.78351759563174e+005,-2.14362292511394e+001,-8.29125383660257e+000

4.85029301283321e+005,-2.14372891632575e+001,-8.40552365810596e+000

4.91800058012158e+005,-2.14383741343781e+001,-8.52134497640281e+000

4.98665330982714e+005,-2.14394847085507e+001,-8.63873849462665e+000

5.05626439592555e+005,-2.14406214418843e+001,-8.75772519772213e+000

5.12684721657352e+005,-2.14417849029456e+001,-8.87832635665335e+000

5.19841533667984e+005,-2.14429756731750e+001,-9.00056353264746e+000

5.27098251051240e+005,-2.14441943473225e+001,-9.12445858146892e+000

5.34456268434150e+005,-2.14454415339029e+001,-9.25003365772246e+000

5.41916999912011e+005,-2.14467178556721e+001,-9.37731121917728e+000

