Freq.,VOut,OutRef

1.00000000000000e+004,-1.82734385598962e+001,-1.96109234107034e-001

1.01395947979003e+004,-1.82734393152022e+001,-1.98846776785495e-001

1.02811382665607e+004,-1.82734400917386e+001,-2.01622532428409e-001

1.04246576084112e+004,-1.82734408901017e+001,-2.04437034397478e-001

1.05701804056138e+004,-1.82734417109054e+001,-2.07290823493143e-001

1.07177346253629e+004,-1.82734425547801e+001,-2.10184448066255e-001

1.08673486252606e+004,-1.82734434223740e+001,-2.13118464117412e-001

1.10190511587661e+004,-1.82734443143536e+001,-2.16093435405142e-001

1.11728713807222e+004,-1.82734452314045e+001,-2.19109933552400e-001

1.13288388529580e+004,-1.82734461742309e+001,-2.22168538161155e-001

1.14869835499703e+004,-1.82734471435573e+001,-2.25269836918086e-001

1.16473358646846e+004,-1.82734481401280e+001,-2.28414425711381e-001

1.18099266142953e+004,-1.82734491647090e+001,-2.31602908740285e-001

1.19747870461893e+004,-1.82734502180872e+001,-2.34835898635594e-001

1.21419488439505e+004,-1.82734513010716e+001,-2.38114016577490e-001

1.23114441334492e+004,-1.82734524144942e+001,-2.41437892409714e-001

1.24833054890161e+004,-1.82734535592102e+001,-2.44808164763989e-001

1.26575659397028e+004,-1.82734547360990e+001,-2.48225481181708e-001

1.28342589756290e+004,-1.82734559460643e+001,-2.51690498239377e-001

1.30134185544193e+004,-1.82734571900357e+001,-2.55203881670362e-001

1.31950791077289e+004,-1.82734584689685e+001,-2.58766306498986e-001

1.33792755478611e+004,-1.82734597838447e+001,-2.62378457164445e-001

1.35660432744767e+004,-1.82734611356745e+001,-2.66041027652856e-001

1.37554181813974e+004,-1.82734625254960e+001,-2.69754721632705e-001

1.39474366635040e+004,-1.82734639543764e+001,-2.73520252588151e-001

1.41421356237309e+004,-1.82734654234129e+001,-2.77338343956098e-001

1.43395524801583e+004,-1.82734669337340e+001,-2.81209729262369e-001

1.45397251732031e+004,-1.82734684864991e+001,-2.85135152267499e-001

1.47426921729110e+004,-1.82734700829004e+001,-2.89115367105245e-001

1.49484924863494e+004,-1.82734717241641e+001,-2.93151138426499e-001

1.51571656651040e+004,-1.82734734115500e+001,-2.97243241548478e-001

1.53687518128801e+004,-1.82734751463539e+001,-3.01392462602134e-001

1.55832915932100e+004,-1.82734769299074e+001,-3.05599598682460e-001

1.58008262372675e+004,-1.82734787635802e+001,-3.09865458000193e-001

1.60213975517924e+004,-1.82734806487797e+001,-3.14190860039253e-001

1.62450479271247e+004,-1.82734825869530e+001,-3.18576635711226e-001

1.64718203453514e+004,-1.82734845795882e+001,-3.23023627514348e-001

1.67017583885674e+004,-1.82734866282148e+001,-3.27532689696403e-001

1.69349062472505e+004,-1.82734887344051e+001,-3.32104688418134e-001

1.71713087287550e+004,-1.82734908997758e+001,-3.36740501916537e-001

1.74110112659224e+004,-1.82734931259888e+001,-3.41441020675935e-001

1.76540599258131e+004,-1.82734954147525e+001,-3.46207147597300e-001

1.79005014185594e+004,-1.82734977678236e+001,-3.51039798169137e-001

1.81503831063432e+004,-1.82735001870077e+001,-3.55939900645159e-001

1.84037530124975e+004,-1.82735026741612e+001,-3.60908396221943e-001

1.86606598307361e+004,-1.82735052311925e+001,-3.65946239215457e-001

1.89211529345119e+004,-1.82735078600635e+001,-3.71054397247705e-001

1.91852823865052e+004,-1.82735105627912e+001,-3.76233851429424e-001

1.94530989482457e+004,-1.82735133414490e+001,-3.81485596547362e-001

1.97246540898671e+004,-1.82735161981688e+001,-3.86810641255045e-001

1.99999999999999e+004,-1.82735191351416e+001,-3.92210008267488e-001

2.02791895958005e+004,-1.82735221546203e+001,-3.97684734552567e-001

2.05622765331213e+004,-1.82735252589210e+001,-4.03235871531207e-001

2.08493152168224e+004,-1.82735284504244e+001,-4.08864485278731e-001

2.11403608112276e+004,-1.82735317315782e+001,-4.14571656727793e-001

2.14354692507258e+004,-1.82735351048983e+001,-4.20358481875285e-001

2.17346972505211e+004,-1.82735385729715e+001,-4.26226071990446e-001

2.20381023175322e+004,-1.82735421384569e+001,-4.32175553826726e-001

2.23457427614443e+004,-1.82735458040879e+001,-4.38208069839218e-001

2.26576777059159e+004,-1.82735495726749e+001,-4.44324778399674e-001

2.29739670999406e+004,-1.82735534471066e+001,-4.50526854018805e-001

2.32946717293690e+004,-1.82735574303528e+001,-4.56815487570902e-001

2.36198532285905e+004,-1.82735615254663e+001,-4.63191886519576e-001

2.39495740923785e+004,-1.82735657355855e+001,-4.69657275148659e-001

2.42838976879009e+004,-1.82735700639367e+001,-4.76212894795090e-001

2.46228882668982e+004,-1.82735745138362e+001,-4.82860004086400e-001

2.49666109780322e+004,-1.82735790886936e+001,-4.89599879177207e-001

2.53151318794055e+004,-1.82735837920135e+001,-4.96433813998022e-001

2.56685179512580e+004,-1.82735886273985e+001,-5.03363120496159e-001

2.60268371088386e+004,-1.82735935985526e+001,-5.10389128887204e-001

2.63901582154578e+004,-1.82735987092827e+001,-5.17513187909111e-001

2.67585510957221e+004,-1.82736039635025e+001,-5.24736665078690e-001

2.71320865489533e+004,-1.82736093652350e+001,-5.32060946949996e-001

2.75108363627948e+004,-1.82736149186159e+001,-5.39487439378321e-001

2.78948733270080e+004,-1.82736206278963e+001,-5.47017567789105e-001

2.82842712474618e+004,-1.82736264974463e+001,-5.54652777447269e-001

2.86791049603164e+004,-1.82736325317580e+001,-5.62394533731391e-001

2.90794503464061e+004,-1.82736387354488e+001,-5.70244322414611e-001

2.94853843458219e+004,-1.82736451132658e+001,-5.78203649940633e-001

2.98969849726987e+004,-1.82736516700877e+001,-5.86274043717862e-001

3.03143313302078e+004,-1.82736584109302e+001,-5.94457052402089e-001

3.07375036257601e+004,-1.82736653409490e+001,-6.02754246192722e-001

3.11665831864199e+004,-1.82736724654431e+001,-6.11167217132164e-001

3.16016524745350e+004,-1.82736797898602e+001,-6.19697579403459e-001

3.20427951035848e+004,-1.82736873197994e+001,-6.28346969639657e-001

3.24900958542493e+004,-1.82736950610163e+001,-6.37117047231725e-001

3.29436406907028e+004,-1.82737030194270e+001,-6.46009494642702e-001

3.34035167771346e+004,-1.82737112011126e+001,-6.55026017725840e-001

3.38698124945009e+004,-1.82737196123235e+001,-6.64168346048709e-001

3.43426174575100e+004,-1.82737282594846e+001,-6.73438233217509e-001

3.48220225318448e+004,-1.82737371491997e+001,-6.82837457209924e-001

3.53081198516260e+004,-1.82737462882567e+001,-6.92367820709955e-001

3.58010028371187e+004,-1.82737556836323e+001,-7.02031151448979e-001

3.63007662126863e+004,-1.82737653424979e+001,-7.11829302548909e-001

3.68075060249948e+004,-1.82737752722240e+001,-7.21764152874548e-001

3.73213196614721e+004,-1.82737854803865e+001,-7.31837607383493e-001

3.78423058690237e+004,-1.82737959747723e+001,-7.42051597487185e-001

3.83705647730104e+004,-1.82738067633843e+001,-7.52408081415464e-001

3.89061978964912e+004,-1.82738178544484e+001,-7.62909044581784e-001

3.94493081797342e+004,-1.82738292564190e+001,-7.73556499958535e-001

3.99999999999998e+004,-1.82738409779854e+001,-7.84352488455335e-001

4.05583791916010e+004,-1.82738530280783e+001,-7.95299079300800e-001

4.11245530662425e+004,-1.82738654158764e+001,-8.06398370432102e-001

4.16986304336447e+004,-1.82738781508131e+001,-8.17652488887078e-001

4.22807216224550e+004,-1.82738912425837e+001,-8.29063591203248e-001

4.28709385014515e+004,-1.82739047011525e+001,-8.40633863822122e-001

4.34693945010421e+004,-1.82739185367597e+001,-8.52365523498031e-001

4.40762046350642e+004,-1.82739327599299e+001,-8.64260817711394e-001

4.46914855228886e+004,-1.82739473814789e+001,-8.76322025090462e-001

4.53153554118317e+004,-1.82739624125221e+001,-8.88551455835221e-001

4.59479341998812e+004,-1.82739778644828e+001,-9.00951452148672e-001

4.65893434587380e+004,-1.82739937491001e+001,-9.13524388673706e-001

4.72397064571810e+004,-1.82740100784381e+001,-9.26272672934602e-001

4.78991481847569e+004,-1.82740268648943e+001,-9.39198745785438e-001

4.85677953758016e+004,-1.82740441212087e+001,-9.52305081864094e-001

4.92457765337964e+004,-1.82740618604735e+001,-9.65594190050081e-001

4.99332219560642e+004,-1.82740800961418e+001,-9.79068613933056e-001

5.06302637588109e+004,-1.82740988420383e+001,-9.92730932281329e-001

5.13370359025159e+004,-1.82741181123688e+001,-1.00658375952085e+000

5.20536742176771e+004,-1.82741379217309e+001,-1.02062974621835e+000

5.27803164309155e+004,-1.82741582851239e+001,-1.03487157957219e+000

5.35171021914442e+004,-1.82741792179603e+001,-1.04931198390644e+000

5.42641730979066e+004,-1.82742007360768e+001,-1.06395372117526e+000

5.50216727255895e+004,-1.82742228557452e+001,-1.07879959147071e+000

5.57897466540159e+004,-1.82742455936849e+001,-1.09385243353669e+000

5.65685424949235e+004,-1.82742689670742e+001,-1.10911512529355e+000

5.73582099206328e+004,-1.82742929935629e+001,-1.12459058436308e+000

5.81589006928121e+004,-1.82743176912852e+001,-1.14028176860537e+000

5.89707686916437e+004,-1.82743430788717e+001,-1.15619167665999e+000

5.97939699453972e+004,-1.82743691754639e+001,-1.17232334849298e+000

6.06286626604156e+004,-1.82743960007267e+001,-1.18867986595385e+000

6.14750072515201e+004,-1.82744235748632e+001,-1.20526435333547e+000

6.23331663728396e+004,-1.82744519186281e+001,-1.22207997794535e+000

6.32033049490698e+004,-1.82744810533433e+001,-1.23912995067857e+000

6.40855902071694e+004,-1.82745110009121e+001,-1.25641752660269e+000

6.49801917084985e+004,-1.82745417838347e+001,-1.27394600554838e+000

6.58872813814055e+004,-1.82745734252246e+001,-1.29171873270396e+000

6.68070335542691e+004,-1.82746059488237e+001,-1.30973909922224e+000

6.77396249890018e+004,-1.82746393790197e+001,-1.32801054283124e+000

6.86852349150199e+004,-1.82746737408626e+001,-1.34653654845340e+000

6.96440450636895e+004,-1.82747090600820e+001,-1.36532064883282e+000

7.06162397032520e+004,-1.82747453631049e+001,-1.38436642516773e+000

7.16020056742374e+004,-1.82747826770741e+001,-1.40367750775330e+000

7.26015324253724e+004,-1.82748210298664e+001,-1.42325757663064e+000

7.36150120499896e+004,-1.82748604501120e+001,-1.44311036224307e+000

7.46426393229441e+004,-1.82749009672138e+001,-1.46323964610087e+000

7.56846117380472e+004,-1.82749426113673e+001,-1.48364926145321e+000

7.67411295460207e+004,-1.82749854135812e+001,-1.50434309396886e+000

7.78123957929823e+004,-1.82750294056981e+001,-1.52532508242337e+000

7.88986163594682e+004,-1.82750746204159e+001,-1.54659921939529e+000

7.99999999999995e+004,-1.82751210913097e+001,-1.56816955196954e+000

8.11167583832018e+004,-1.82751688528542e+001,-1.59004018244993e+000

8.22491061324848e+004,-1.82752179404464e+001,-1.61221526907814e+000

8.33972608672892e+004,-1.82752683904288e+001,-1.63469902676218e+000

8.45614432449099e+004,-1.82753202401138e+001,-1.65749572781251e+000

8.57418770029029e+004,-1.82753735278076e+001,-1.68060970268556e+000

8.69387890020841e+004,-1.82754282928354e+001,-1.70404534073811e+000

8.81524092701283e+004,-1.82754845755666e+001,-1.72780709098589e+000

8.93829710457770e+004,-1.82755424174413e+001,-1.75189946287401e+000

9.06307108236633e+004,-1.82756018609961e+001,-1.77632702705500e+000

9.18958683997622e+004,-1.82756629498921e+001,-1.80109441617293e+000

9.31786869174758e+004,-1.82757257289419e+001,-1.82620632565930e+000

9.44794129143618e+004,-1.82757902441383e+001,-1.85166751453559e+000

9.57982963695136e+004,-1.82758565426828e+001,-1.87748280622470e+000

9.71355907516031e+004,-1.82759246730152e+001,-1.90365708937050e+000

9.84915530675926e+004,-1.82759946848437e+001,-1.93019531866589e+000

9.98664439121282e+004,-1.82760666291753e+001,-1.95710251569135e+000

1.01260527517622e+005,-1.82761405583470e+001,-1.98438376975908e+000

1.02674071805032e+005,-1.82762165260577e+001,-2.01204423876916e+000

1.04107348435354e+005,-1.82762945874004e+001,-2.04008915007069e+000

1.05560632861831e+005,-1.82763747988954e+001,-2.06852380133531e+000

1.07034204382888e+005,-1.82764572185240e+001,-2.09735356143656e+000

1.08528346195813e+005,-1.82765419057620e+001,-2.12658387134034e+000

1.10043345451179e+005,-1.82766289216154e+001,-2.15622024500192e+000

1.11579493308032e+005,-1.82767183286553e+001,-2.18626827027356e+000

1.13137084989847e+005,-1.82768101910540e+001,-2.21673360982053e+000

1.14716419841265e+005,-1.82769045746215e+001,-2.24762200204529e+000

1.16317801385624e+005,-1.82770015468429e+001,-2.27893926202125e+000

1.17941537383287e+005,-1.82771011769162e+001,-2.31069128243541e+000

1.19587939890794e+005,-1.82772035357906e+001,-2.34288403453929e+000

1.21257325320831e+005,-1.82773086962055e+001,-2.37552356910969e+000

1.22950014503040e+005,-1.82774167327302e+001,-2.40861601741829e+000

1.24666332745679e+005,-1.82775277218037e+001,-2.44216759220918e+000

1.26406609898139e+005,-1.82776417417759e+001,-2.47618458868642e+000

1.28171180414339e+005,-1.82777588729484e+001,-2.51067338551155e+000

1.29960383416997e+005,-1.82778791976165e+001,-2.54564044580752e+000

1.31774562762811e+005,-1.82780028001116e+001,-2.58109231817382e+000

1.33614067108538e+005,-1.82781297668437e+001,-2.61703563771133e+000

1.35479249978003e+005,-1.82782601863452e+001,-2.65347712705323e+000

1.37370469830040e+005,-1.82783941493145e+001,-2.69042359740922e+000

1.39288090127379e+005,-1.82785317486599e+001,-2.72788194961568e+000

1.41232479406504e+005,-1.82786730795451e+001,-2.76585917519682e+000

1.43204011348474e+005,-1.82788182394338e+001,-2.80436235743475e+000

1.45203064850745e+005,-1.82789673281352e+001,-2.84339867244919e+000

1.47230024099979e+005,-1.82791204478504e+001,-2.88297539028702e+000

1.49285278645888e+005,-1.82792777032180e+001,-2.92309987601996e+000

1.51369223476094e+005,-1.82794392013613e+001,-2.96377959085400e+000

1.53482259092041e+005,-1.82796050519347e+001,-3.00502209324694e+000

1.55624791585964e+005,-1.82797753671709e+001,-3.04683504003717e+000

1.57797232718936e+005,-1.82799502619286e+001,-3.08922618758103e+000

1.59999999999999e+005,-1.82801298537396e+001,-3.13220339290076e+000

1.62233516766403e+005,-1.82803142628563e+001,-3.17577461484471e+000

1.64498212264969e+005,-1.82805036123001e+001,-3.21994791525439e+000

1.66794521734578e+005,-1.82806980279086e+001,-3.26473146014478e+000

1.69122886489819e+005,-1.82808976383838e+001,-3.31013352089503e+000

1.71483754005805e+005,-1.82811025753394e+001,-3.35616247544981e+000

1.73877578004168e+005,-1.82813129733493e+001,-3.40282680953083e+000

1.76304818540256e+005,-1.82815289699944e+001,-3.45013511786307e+000

1.78765942091554e+005,-1.82817507059101e+001,-3.49809610540930e+000

1.81261421647326e+005,-1.82819783248340e+001,-3.54671858861867e+000

1.83791736799524e+005,-1.82822119736520e+001,-3.59601149668662e+000

1.86357373834951e+005,-1.82824518024453e+001,-3.64598387282941e+000

1.88958825828723e+005,-1.82826979645361e+001,-3.69664487556945e+000

1.91596592739027e+005,-1.82829506165335e+001,-3.74800378003633e+000

1.94271181503206e+005,-1.82832099183782e+001,-3.80006997928008e+000

1.96983106135185e+005,-1.82834760333870e+001,-3.85285298560088e+000

1.99732887824256e+005,-1.82837491282969e+001,-3.90636243189124e+000

2.02521055035243e+005,-1.82840293733074e+001,-3.96060807299750e+000

2.05348143610063e+005,-1.82843169421235e+001,-4.01559978709371e+000

2.08214696870707e+005,-1.82846120119963e+001,-4.07134757707550e+000

2.11121265723661e+005,-1.82849147637637e+001,-4.12786157196943e+000

2.14068408765776e+005,-1.82852253818899e+001,-4.18515202836171e+000

2.17056692391625e+005,-1.82855440545033e+001,-4.24322933184660e+000

2.20086690902357e+005,-1.82858709734338e+001,-4.30210399849327e+000

2.23158986616063e+005,-1.82862063342489e+001,-4.36178667633483e+000

2.26274169979693e+005,-1.82865503362879e+001,-4.42228814687979e+000

2.29432839682530e+005,-1.82869031826957e+001,-4.48361932664389e+000

2.32635602771247e+005,-1.82872650804542e+001,-4.54579126870889e+000

2.35883074766574e+005,-1.82876362404132e+001,-4.60881516430516e+000

2.39175879781588e+005,-1.82880168773191e+001,-4.67270234441985e+000

2.42514650641661e+005,-1.82884072098423e+001,-4.73746428143509e+000

2.45900029006080e+005,-1.82888074606029e+001,-4.80311259079204e+000

2.49332665491357e+005,-1.82892178561955e+001,-4.86965903268776e+000

2.52813219796278e+005,-1.82896386272106e+001,-4.93711551380387e+000

2.56342360828676e+005,-1.82900700082565e+001,-5.00549408906650e+000

2.59920766833993e+005,-1.82905122379779e+001,-5.07480696344390e+000

2.63549125525621e+005,-1.82909655590734e+001,-5.14506649377901e+000

2.67228134217075e+005,-1.82914302183114e+001,-5.21628519066157e+000

2.70958499956006e+005,-1.82919064665440e+001,-5.28847572034018e+000

2.74740939660078e+005,-1.82923945587195e+001,-5.36165090667624e+000

2.78576180254757e+005,-1.82928947538932e+001,-5.43582373314299e+000

2.82464958813007e+005,-1.82934073152367e+001,-5.51100734487012e+000

2.86408022696948e+005,-1.82939325100456e+001,-5.58721505073692e+000

2.90406129701488e+005,-1.82944706097458e+001,-5.66446032551606e+000

2.94460048199957e+005,-1.82950218898989e+001,-5.74275681206990e+000

2.98570557291775e+005,-1.82955866302056e+001,-5.82211832360180e+000

3.02738446952187e+005,-1.82961651145092e+001,-5.90255884596571e+000

3.06964518184081e+005,-1.82967576307969e+001,-5.98409254003369e+000

3.11249583171928e+005,-1.82973644712018e+001,-6.06673374412688e+000

3.15594465437872e+005,-1.82979859320033e+001,-6.15049697651056e+000

3.19999999999997e+005,-1.82986223136280e+001,-6.23539693795692e+000

3.24467033532806e+005,-1.82992739206502e+001,-6.32144851437578e+000

3.28996424529938e+005,-1.82999410617927e+001,-6.40866677951896e+000

3.33589043469155e+005,-1.83006240499285e+001,-6.49706699775768e+000

3.38245772979638e+005,-1.83013232020834e+001,-6.58666462693825e+000

3.42967508011610e+005,-1.83020388394397e+001,-6.67747532131601e+000

3.47755156008335e+005,-1.83027712873415e+001,-6.76951493457135e+000

3.52609637080511e+005,-1.83035208753029e+001,-6.86279952291043e+000

3.57531884183106e+005,-1.83042879370178e+001,-6.95734534825146e+000

3.62522843294651e+005,-1.83050728103737e+001,-7.05316888150040e+000

3.67583473599047e+005,-1.83058758374684e+001,-7.15028680591678e+000

3.72714747669902e+005,-1.83066973646317e+001,-7.24871602057306e+000

3.77917651657445e+005,-1.83075377424509e+001,-7.34847364390753e+000

3.83193185478053e+005,-1.83083973258024e+001,-7.44957701737536e+000

3.88542363006410e+005,-1.83092764738896e+001,-7.55204370919596e+000

3.93966212270369e+005,-1.83101755502865e+001,-7.65589151820056e+000

3.99465775648511e+005,-1.83110949229899e+001,-7.76113847778128e+000

4.05042110070485e+005,-1.83120349644792e+001,-7.86780285993985e+000

4.10696287220124e+005,-1.83129960517852e+001,-7.97590317944077e+000

4.16429393741414e+005,-1.83139785665691e+001,-8.08545819806653e+000

4.22242531447321e+005,-1.83149828952118e+001,-8.19648692897567e+000

4.28136817531551e+005,-1.83160094289146e+001,-8.30900864116495e+000

4.34113384783250e+005,-1.83170585638128e+001,-8.42304286403403e+000

4.40173381804713e+005,-1.83181307011019e+001,-8.53860939205126e+000

4.46317973232124e+005,-1.83192262471785e+001,-8.65572828952228e+000

4.52548339959385e+005,-1.83203456137960e+001,-8.77441989545746e+000

4.58865679365059e+005,-1.83214892182366e+001,-8.89470482853734e+000

4.65271205542494e+005,-1.83226574835001e+001,-9.01660399217372e+000

4.71766149533147e+005,-1.83238508385106e+001,-9.14013857966530e+000

4.78351759563174e+005,-1.83250697183422e+001,-9.26533007944222e+000

4.85029301283321e+005,-1.83263145644650e+001,-9.39220028039882e+000

4.91800058012158e+005,-1.83275858250107e+001,-9.52077127730886e+000

4.98665330982714e+005,-1.83288839550609e+001,-9.65106547632079e+000

5.05626439592555e+005,-1.83302094169580e+001,-9.78310560052666e+000

5.12684721657352e+005,-1.83315626806390e+001,-9.91691469560046e+000

5.19841533667984e+005,-1.83329442239937e+001,-1.00525161355013e+001

5.27098251051240e+005,-1.83343545332487e+001,-1.01899336282334e+001

5.34456268434150e+005,-1.83357941033768e+001,-1.03291912216584e+001

5.41916999912011e+005,-1.83372634385330e+001,-1.04703133093526e+001

