Freq.,VOut,OutRef

1.00000000000000e+004,-2.39064481244277e+001,-4.68548715067466e-001

1.01395947979003e+004,-2.39064514508021e+001,-4.75089303048439e-001

1.02811382665607e+004,-2.39064548706859e+001,-4.81721189635165e-001

1.04246576084112e+004,-2.39064583867075e+001,-4.88445649113533e-001

1.05701804056138e+004,-2.39064620015695e+001,-4.95263973548389e-001

1.07177346253629e+004,-2.39064657180499e+001,-5.02177473034417e-001

1.08673486252606e+004,-2.39064695390051e+001,-5.09187475944523e-001

1.10190511587661e+004,-2.39064734673718e+001,-5.16295329185706e-001

1.11728713807222e+004,-2.39064775061693e+001,-5.23502398456473e-001

1.13288388529580e+004,-2.39064816585013e+001,-5.30810068511692e-001

1.14869835499703e+004,-2.39064859275593e+001,-5.38219743423016e-001

1.16473358646846e+004,-2.39064903166242e+001,-5.45732846853989e-001

1.18099266142953e+004,-2.39064948290691e+001,-5.53350822328944e-001

1.19747870461893e+004,-2.39064994683618e+001,-5.61075133510733e-001

1.21419488439505e+004,-2.39065042380679e+001,-5.68907264481907e-001

1.23114441334492e+004,-2.39065091418527e+001,-5.76848720029665e-001

1.24833054890161e+004,-2.39065141834850e+001,-5.84901025932044e-001

1.26575659397028e+004,-2.39065193668391e+001,-5.93065729253302e-001

1.28342589756290e+004,-2.39065246958985e+001,-6.01344398638262e-001

1.30134185544193e+004,-2.39065301747582e+001,-6.09738624614500e-001

1.31950791077289e+004,-2.39065358076288e+001,-6.18250019896100e-001

1.33792755478611e+004,-2.39065415988388e+001,-6.26880219691888e-001

1.35660432744767e+004,-2.39065475528385e+001,-6.35630882022065e-001

1.37554181813974e+004,-2.39065536742033e+001,-6.44503688031355e-001

1.39474366635040e+004,-2.39065599676369e+001,-6.53500342315103e-001

1.41421356237309e+004,-2.39065664379754e+001,-6.62622573243163e-001

1.43395524801583e+004,-2.39065730901907e+001,-6.71872133291806e-001

1.45397251732031e+004,-2.39065799293944e+001,-6.81250799380270e-001

1.47426921729110e+004,-2.39065869608417e+001,-6.90760373209250e-001

1.49484924863494e+004,-2.39065941899355e+001,-7.00402681607069e-001

1.51571656651040e+004,-2.39066016222303e+001,-7.10179576879281e-001

1.53687518128801e+004,-2.39066092634369e+001,-7.20092937163303e-001

1.55832915932100e+004,-2.39066171194263e+001,-7.30144666787629e-001

1.58008262372675e+004,-2.39066251962348e+001,-7.40336696636650e-001

1.60213975517924e+004,-2.39066335000677e+001,-7.50670984520414e-001

1.62450479271247e+004,-2.39066420373051e+001,-7.61149515547916e-001

1.64718203453514e+004,-2.39066508145061e+001,-7.71774302508882e-001

1.67017583885674e+004,-2.39066598384142e+001,-7.82547386257227e-001

1.69349062472505e+004,-2.39066691159621e+001,-7.93470836102905e-001

1.71713087287550e+004,-2.39066786542775e+001,-8.04546750205705e-001

1.74110112659224e+004,-2.39066884606880e+001,-8.15777255978962e-001

1.76540599258131e+004,-2.39066985427272e+001,-8.27164510493688e-001

1.79005014185594e+004,-2.39067089081404e+001,-8.38710700893001e-001

1.81503831063432e+004,-2.39067195648901e+001,-8.50418044809432e-001

1.84037530124975e+004,-2.39067305211627e+001,-8.62288790788971e-001

1.86606598307361e+004,-2.39067417853745e+001,-8.74325218720455e-001

1.89211529345119e+004,-2.39067533661779e+001,-8.86529640271400e-001

1.91852823865052e+004,-2.39067652724687e+001,-8.98904399328948e-001

1.94530989482457e+004,-2.39067775133921e+001,-9.11451872448711e-001

1.97246540898671e+004,-2.39067900983504e+001,-9.24174469308154e-001

1.99999999999999e+004,-2.39068030370096e+001,-9.37074633166066e-001

2.02791895958005e+004,-2.39068163393076e+001,-9.50154841329624e-001

2.05622765331213e+004,-2.39068300154607e+001,-9.63417605627408e-001

2.08493152168224e+004,-2.39068440759726e+001,-9.76865472887907e-001

2.11403608112276e+004,-2.39068585316416e+001,-9.90501025425462e-001

2.14354692507258e+004,-2.39068733935693e+001,-1.00432688153423e+000

2.17346972505211e+004,-2.39068886731688e+001,-1.01834569598584e+000

2.20381023175322e+004,-2.39069043821737e+001,-1.03256016053666e+000

2.23457427614443e+004,-2.39069205326471e+001,-1.04697300444006e+000

2.26576777059159e+004,-2.39069371369904e+001,-1.06158699496691e+000

2.29739670999406e+004,-2.39069542079534e+001,-1.07640493793287e+000

2.32946717293690e+004,-2.39069717586435e+001,-1.09142967823378e+000

2.36198532285905e+004,-2.39069898025363e+001,-1.10666410038534e+000

2.39495740923785e+004,-2.39070083534853e+001,-1.12211112907410e+000

2.42838976879009e+004,-2.39070274257328e+001,-1.13777372971384e+000

2.46228882668982e+004,-2.39070470339210e+001,-1.15365490900851e+000

2.49666109780322e+004,-2.39070671931028e+001,-1.16975771552669e+000

2.53151318794055e+004,-2.39070879187533e+001,-1.18608524027878e+000

2.56685179512580e+004,-2.39071092267822e+001,-1.20264061730604e+000

2.60268371088386e+004,-2.39071311335454e+001,-1.21942702427673e+000

2.63901582154578e+004,-2.39071536558574e+001,-1.23644768308906e+000

2.67585510957221e+004,-2.39071768110047e+001,-1.25370586048241e+000

2.71320865489533e+004,-2.39072006167587e+001,-1.27120486866005e+000

2.75108363627948e+004,-2.39072250913892e+001,-1.28894806591535e+000

2.78948733270080e+004,-2.39072502536783e+001,-1.30693885727047e+000

2.82842712474618e+004,-2.39072761229351e+001,-1.32518069512192e+000

2.86791049603164e+004,-2.39073027190100e+001,-1.34367707989560e+000

2.90794503464061e+004,-2.39073300623102e+001,-1.36243156070868e+000

2.94853843458219e+004,-2.39073581738150e+001,-1.38144773604485e+000

2.98969849726987e+004,-2.39073870750920e+001,-1.40072925443257e+000

3.03143313302078e+004,-2.39074167883134e+001,-1.42027981513905e+000

3.07375036257601e+004,-2.39074473362730e+001,-1.44010316886750e+000

3.11665831864199e+004,-2.39074787424035e+001,-1.46020311846889e+000

3.16016524745350e+004,-2.39075110307944e+001,-1.48058351965946e+000

3.20427951035848e+004,-2.39075442262105e+001,-1.50124828174942e+000

3.24900958542493e+004,-2.39075783541104e+001,-1.52220136838301e+000

3.29436406907028e+004,-2.39076134406663e+001,-1.54344679828475e+000

3.34035167771346e+004,-2.39076495127834e+001,-1.56498864601948e+000

3.38698124945009e+004,-2.39076865981210e+001,-1.58683104275980e+000

3.43426174575100e+004,-2.39077247251132e+001,-1.60897817706518e+000

3.48220225318448e+004,-2.39077639229903e+001,-1.63143429567184e+000

3.53081198516260e+004,-2.39078042218018e+001,-1.65420370429153e+000

3.58010028371187e+004,-2.39078456524381e+001,-1.67729076842230e+000

3.63007662126863e+004,-2.39078882466552e+001,-1.70069991416931e+000

3.68075060249948e+004,-2.39079320370978e+001,-1.72443562907752e+000

3.73213196614721e+004,-2.39079770573246e+001,-1.74850246297427e+000

3.78423058690237e+004,-2.39080233418340e+001,-1.77290502882274e+000

3.83705647730104e+004,-2.39080709260895e+001,-1.79764800358931e+000

3.89061978964912e+004,-2.39081198465475e+001,-1.82273612911863e+000

3.94493081797342e+004,-2.39081701406843e+001,-1.84817421302274e+000

3.99999999999998e+004,-2.39082218470247e+001,-1.87396712958198e+000

4.05583791916010e+004,-2.39082750051713e+001,-1.90011982065504e+000

4.11245530662425e+004,-2.39083296558344e+001,-1.92663729660483e+000

4.16986304336447e+004,-2.39083858408628e+001,-1.95352463723371e+000

4.22807216224550e+004,-2.39084436032756e+001,-1.98078699273099e+000

4.28709385014515e+004,-2.39085029872945e+001,-2.00842958463447e+000

4.34693945010421e+004,-2.39085640383776e+001,-2.03645770680245e+000

4.40762046350642e+004,-2.39086268032533e+001,-2.06487672640117e+000

4.46914855228886e+004,-2.39086913299558e+001,-2.09369208490075e+000

4.53153554118317e+004,-2.39087576678618e+001,-2.12290929908818e+000

4.59479341998812e+004,-2.39088258677268e+001,-2.15253396209189e+000

4.65893434587380e+004,-2.39088959817244e+001,-2.18257174441769e+000

4.72397064571810e+004,-2.39089680634850e+001,-2.21302839500103e+000

4.78991481847569e+004,-2.39090421681363e+001,-2.24390974227071e+000

4.85677953758016e+004,-2.39091183523449e+001,-2.27522169522706e+000

4.92457765337964e+004,-2.39091966743593e+001,-2.30697024453221e+000

4.99332219560642e+004,-2.39092771940526e+001,-2.33916146361806e+000

5.06302637588109e+004,-2.39093599729691e+001,-2.37180150980270e+000

5.13370359025159e+004,-2.39094450743691e+001,-2.40489662542680e+000

5.20536742176771e+004,-2.39095325632770e+001,-2.43845313899935e+000

5.27803164309155e+004,-2.39096225065305e+001,-2.47247746636087e+000

5.35171021914442e+004,-2.39097149728296e+001,-2.50697611186014e+000

5.42641730979066e+004,-2.39098100327894e+001,-2.54195566954501e+000

5.50216727255895e+004,-2.39099077589917e+001,-2.57742282436995e+000

5.57897466540159e+004,-2.39100082260404e+001,-2.61338435341570e+000

5.65685424949235e+004,-2.39101115106163e+001,-2.64984712712683e+000

5.73582099206328e+004,-2.39102176915351e+001,-2.68681811056262e+000

5.81589006928121e+004,-2.39103268498059e+001,-2.72430436466390e+000

5.89707686916437e+004,-2.39104390686918e+001,-2.76231304753474e+000

5.97939699453972e+004,-2.39105544337715e+001,-2.80085141574182e+000

6.06286626604156e+004,-2.39106730330036e+001,-2.83992682562678e+000

6.14750072515201e+004,-2.39107949567914e+001,-2.87954673463588e+000

6.23331663728396e+004,-2.39109202980509e+001,-2.91971870266509e+000

6.32033049490698e+004,-2.39110491522788e+001,-2.96045039342253e+000

6.40855902071694e+004,-2.39111816176242e+001,-3.00174957580429e+000

6.49801917084985e+004,-2.39113177949606e+001,-3.04362412529056e+000

6.58872813814055e+004,-2.39114577879613e+001,-3.08608202535362e+000

6.68070335542691e+004,-2.39116017031753e+001,-3.12913136888666e+000

6.77396249890018e+004,-2.39117496501066e+001,-3.17278035964597e+000

6.86852349150199e+004,-2.39119017412948e+001,-3.21703731371124e+000

6.96440450636895e+004,-2.39120580923977e+001,-3.26191066096374e+000

7.06162397032520e+004,-2.39122188222771e+001,-3.30740894657806e+000

7.16020056742374e+004,-2.39123840530855e+001,-3.35354083253519e+000

7.26015324253724e+004,-2.39125539103564e+001,-3.40031509914931e+000

7.36150120499896e+004,-2.39127285230960e+001,-3.44774064661304e+000

7.46426393229441e+004,-2.39129080238776e+001,-3.49582649656012e+000

7.56846117380472e+004,-2.39130925489391e+001,-3.54458179364540e+000

7.67411295460207e+004,-2.39132822382819e+001,-3.59401580714121e+000

7.78123957929823e+004,-2.39134772357733e+001,-3.64413793255278e+000

7.88986163594682e+004,-2.39136776892515e+001,-3.69495769324941e+000

7.99999999999995e+004,-2.39138837506327e+001,-3.74648474211497e+000

8.11167583832018e+004,-2.39140955760218e+001,-3.79872886321430e+000

8.22491061324848e+004,-2.39143133258253e+001,-3.85169997347931e+000

8.33972608672892e+004,-2.39145371648675e+001,-3.90540812440984e+000

8.45614432449099e+004,-2.39147672625100e+001,-3.95986350379505e+000

8.57418770029029e+004,-2.39150037927731e+001,-4.01507643745108e+000

8.69387890020841e+004,-2.39152469344619e+001,-4.07105739097625e+000

8.81524092701283e+004,-2.39154968712945e+001,-4.12781697152473e+000

8.93829710457770e+004,-2.39157537920340e+001,-4.18536592959776e+000

9.06307108236633e+004,-2.39160178906234e+001,-4.24371516085133e+000

9.18958683997622e+004,-2.39162893663245e+001,-4.30287570792397e+000

9.31786869174758e+004,-2.39165684238604e+001,-4.36285876227918e+000

9.44794129143618e+004,-2.39168552735607e+001,-4.42367566606782e+000

9.57982963695136e+004,-2.39171501315110e+001,-4.48533791400702e+000

9.71355907516031e+004,-2.39174532197066e+001,-4.54785715527639e+000

9.84915530675926e+004,-2.39177647662094e+001,-4.61124519543145e+000

9.98664439121282e+004,-2.39180850053085e+001,-4.67551399833546e+000

1.01260527517622e+005,-2.39184141776858e+001,-4.74067568810677e+000

1.02674071805032e+005,-2.39187525305845e+001,-4.80674255108470e+000

1.04107348435354e+005,-2.39191003179832e+001,-4.87372703781074e+000

1.05560632861831e+005,-2.39194578007727e+001,-4.94164176502871e+000

1.07034204382888e+005,-2.39198252469383e+001,-5.01049951769921e+000

1.08528346195813e+005,-2.39202029317465e+001,-5.08031325103159e+000

1.10043345451179e+005,-2.39205911379356e+001,-5.15109609253247e+000

1.11579493308032e+005,-2.39209901559111e+001,-5.22286134407001e+000

1.13137084989847e+005,-2.39214002839467e+001,-5.29562248395355e+000

1.14716419841265e+005,-2.39218218283892e+001,-5.36939316902934e+000

1.16317801385624e+005,-2.39222551038683e+001,-5.44418723679164e+000

1.17941537383287e+005,-2.39227004335122e+001,-5.52001870750892e+000

1.19587939890794e+005,-2.39231581491678e+001,-5.59690178636428e+000

1.21257325320831e+005,-2.39236285916260e+001,-5.67485086561103e+000

1.22950014503040e+005,-2.39241121108526e+001,-5.75388052674246e+000

1.24666332745679e+005,-2.39246090662247e+001,-5.83400554267471e+000

1.26406609898139e+005,-2.39251198267722e+001,-5.91524087994460e+000

1.28171180414339e+005,-2.39256447714255e+001,-5.99760170091833e+000

1.29960383416997e+005,-2.39261842892685e+001,-6.08110336601528e+000

1.31774562762811e+005,-2.39267387797975e+001,-6.16576143594240e+000

1.33614067108538e+005,-2.39273086531860e+001,-6.25159167394172e+000

1.35479249978003e+005,-2.39278943305559e+001,-6.33861004804783e+000

1.37370469830040e+005,-2.39284962442543e+001,-6.42683273335847e+000

1.39288090127379e+005,-2.39291148381370e+001,-6.51627611431277e+000

1.41232479406504e+005,-2.39297505678578e+001,-6.60695678698202e+000

1.43204011348474e+005,-2.39304039011651e+001,-6.69889156136821e+000

1.45203064850745e+005,-2.39310753182039e+001,-6.79209746371243e+000

1.47230024099979e+005,-2.39317653118259e+001,-6.88659173881031e+000

1.49285278645888e+005,-2.39324743879046e+001,-6.98239185233643e+000

1.51369223476094e+005,-2.39332030656589e+001,-7.07951549317496e+000

1.53482259092041e+005,-2.39339518779829e+001,-7.17798057575688e+000

1.55624791585964e+005,-2.39347213717822e+001,-7.27780524240302e+000

1.57797232718936e+005,-2.39355121083188e+001,-7.37900786567161e+000

1.59999999999999e+005,-2.39363246635619e+001,-7.48160705071117e+000

1.62233516766403e+005,-2.39371596285470e+001,-7.58562163761541e+000

1.64498212264969e+005,-2.39380176097414e+001,-7.69107070378253e+000

1.66794521734578e+005,-2.39388992294187e+001,-7.79797356627580e+000

1.69122886489819e+005,-2.39398051260398e+001,-7.90634978418475e+000

1.71483754005805e+005,-2.39407359546419e+001,-8.01621916098795e+000

1.73877578004168e+005,-2.39416923872357e+001,-8.12760174691458e+000

1.76304818540256e+005,-2.39426751132102e+001,-8.24051784130489e+000

1.78765942091554e+005,-2.39436848397458e+001,-8.35498799496806e+000

1.81261421647326e+005,-2.39447222922350e+001,-8.47103301253793e+000

1.83791736799524e+005,-2.39457882147120e+001,-8.58867395482330e+000

1.86357373834951e+005,-2.39468833702903e+001,-8.70793214115441e+000

1.88958825828723e+005,-2.39480085416085e+001,-8.82882915172276e+000

1.91596592739027e+005,-2.39491645312846e+001,-8.95138682991464e+000

1.94271181503206e+005,-2.39503521623795e+001,-9.07562728463560e+000

1.96983106135185e+005,-2.39515722788681e+001,-9.20157289262725e+000

1.99732887824256e+005,-2.39528257461202e+001,-9.32924630077298e+000

2.02521055035243e+005,-2.39541134513891e+001,-9.45867042839310e+000

2.05348143610063e+005,-2.39554363043102e+001,-9.58986846952832e+000

2.08214696870707e+005,-2.39567952374080e+001,-9.72286389520854e+000

2.11121265723661e+005,-2.39581912066118e+001,-9.85768045570902e+000

2.14068408765776e+005,-2.39596251917813e+001,-9.99434218278977e+000

2.17056692391625e+005,-2.39610981972412e+001,-1.01328733919195e+001

2.20086690902357e+005,-2.39626112523244e+001,-1.02732986844804e+001

2.23158986616063e+005,-2.39641654119256e+001,-1.04156429499559e+001

2.26274169979693e+005,-2.39657617570636e+001,-1.05599313680963e+001

2.29432839682530e+005,-2.39674013954537e+001,-1.07061894110646e+001

2.32635602771247e+005,-2.39690854620886e+001,-1.08544428455603e+001

2.35883074766574e+005,-2.39708151198311e+001,-1.10047177349170e+001

2.39175879781588e+005,-2.39725915600138e+001,-1.11570404411782e+001

2.42514650641661e+005,-2.39744160030512e+001,-1.13114376271448e+001

2.45900029006080e+005,-2.39762896990602e+001,-1.14679362583961e+001

2.49332665491357e+005,-2.39782139284911e+001,-1.16265636052818e+001

2.52813219796278e+005,-2.39801900027689e+001,-1.17873472448840e+001

2.56342360828676e+005,-2.39822192649444e+001,-1.19503150629477e+001

2.59920766833993e+005,-2.39843030903561e+001,-1.21154952557790e+001

2.63549125525621e+005,-2.39864428873025e+001,-1.22829163321088e+001

2.67228134217075e+005,-2.39886400977242e+001,-1.24526071149209e+001

2.70958499956006e+005,-2.39908961978979e+001,-1.26245967432432e+001

2.74740939660078e+005,-2.39932126991402e+001,-1.27989146739008e+001

2.78576180254757e+005,-2.39955911485226e+001,-1.29755906832284e+001

2.82464958813007e+005,-2.39980331295981e+001,-1.31546548687414e+001

2.86408022696948e+005,-2.40005402631380e+001,-1.33361376507640e+001

2.90406129701488e+005,-2.40031142078809e+001,-1.35200697740115e+001

2.94460048199957e+005,-2.40057566612933e+001,-1.37064823091265e+001

2.98570557291775e+005,-2.40084693603407e+001,-1.38954066541665e+001

3.02738446952187e+005,-2.40112540822725e+001,-1.40868745360398e+001

3.06964518184081e+005,-2.40141126454173e+001,-1.42809180118906e+001

3.11249583171928e+005,-2.40170469099915e+001,-1.44775694704269e+001

3.15594465437872e+005,-2.40200587789197e+001,-1.46768616331934e+001

3.19999999999997e+005,-2.40231501986687e+001,-1.48788275557836e+001

3.24467033532806e+005,-2.40263231600939e+001,-1.50835006289897e+001

3.28996424529938e+005,-2.40295796992987e+001,-1.52909145798882e+001

3.33589043469155e+005,-2.40329218985081e+001,-1.55011034728575e+001

3.38245772979638e+005,-2.40363518869557e+001,-1.57141017105241e+001

3.42967508011610e+005,-2.40398718417846e+001,-1.59299440346351e+001

3.47755156008335e+005,-2.40434839889628e+001,-1.61486655268525e+001

3.52609637080511e+005,-2.40471906042130e+001,-1.63703016094664e+001

3.57531884183106e+005,-2.40509940139581e+001,-1.65948880460218e+001

3.62522843294651e+005,-2.40548965962806e+001,-1.68224609418560e+001

3.67583473599047e+005,-2.40589007818991e+001,-1.70530567445411e+001

3.72714747669902e+005,-2.40630090551592e+001,-1.72867122442266e+001

3.77917651657445e+005,-2.40672239550414e+001,-1.75234645738777e+001

3.83193185478053e+005,-2.40715480761856e+001,-1.77633512094024e+001

3.88542363006410e+005,-2.40759840699315e+001,-1.80064099696613e+001

3.93966212270369e+005,-2.40805346453772e+001,-1.82526790163563e+001

3.99465775648511e+005,-2.40852025704541e+001,-1.85021968537864e+001

4.05042110070485e+005,-2.40899906730198e+001,-1.87550023284683e+001

4.10696287220124e+005,-2.40949018419692e+001,-1.90111346286101e+001

4.16429393741414e+005,-2.40999390283626e+001,-1.92706332834325e+001

4.22242531447321e+005,-2.41051052465734e+001,-1.95335381623273e+001

4.28136817531551e+005,-2.41104035754523e+001,-1.97998894738434e+001

4.34113384783250e+005,-2.41158371595117e+001,-2.00697277644925e+001

4.40173381804713e+005,-2.41214092101271e+001,-2.03430939173619e+001

4.46317973232124e+005,-2.41271230067578e+001,-2.06200291505245e+001

4.52548339959385e+005,-2.41329818981852e+001,-2.09005750152354e+001

4.58865679365059e+005,-2.41389893037696e+001,-2.11847733939006e+001

4.65271205542494e+005,-2.41451487147247e+001,-2.14726664978081e+001

4.71766149533147e+005,-2.41514636954095e+001,-2.17642968646057e+001

4.78351759563174e+005,-2.41579378846372e+001,-2.20597073555146e+001

4.85029301283321e+005,-2.41645749970006e+001,-2.23589411522615e+001

4.91800058012158e+005,-2.41713788242131e+001,-2.26620417537167e+001

4.98665330982714e+005,-2.41783532364651e+001,-2.29690529722234e+001

5.05626439592555e+005,-2.41855021837932e+001,-2.32800189295996e+001

5.12684721657352e+005,-2.41928296974634e+001,-2.35949840528004e+001

5.19841533667984e+005,-2.42003398913654e+001,-2.39139930692220e+001

5.27098251051240e+005,-2.42080369634165e+001,-2.42370910016307e+001

5.34456268434150e+005,-2.42159251969746e+001,-2.45643231627007e+001

5.41916999912011e+005,-2.42240089622575e+001,-2.48957351491438e+001

