Freq.,VOut,OutRef

1.00000000000000e+004,-8.99555201190664e+000,-2.02149161489914e-002

1.01395947979003e+004,-8.99555256716741e+000,-2.04970589637211e-002

1.02811382665607e+004,-8.99555313803441e+000,-2.07831383479163e-002

1.04246576084112e+004,-8.99555372494497e+000,-2.10732091773952e-002

1.05701804056138e+004,-8.99555432834939e+000,-2.13673270849231e-002

1.07177346253629e+004,-8.99555494871237e+000,-2.16655484652782e-002

1.08673486252606e+004,-8.99555558650987e+000,-2.19679305078175e-002

1.10190511587661e+004,-8.99555624223108e+000,-2.22745311976663e-002

1.11728713807222e+004,-8.99555691637951e+000,-2.25854093207768e-002

1.13288388529580e+004,-8.99555760947327e+000,-2.29006244761817e-002

1.14869835499703e+004,-8.99555832204507e+000,-2.32202370904801e-002

1.16473358646846e+004,-8.99555905464115e+000,-2.35443084375500e-002

1.18099266142953e+004,-8.99555980782401e+000,-2.38729006363252e-002

1.19747870461893e+004,-8.99556058217258e+000,-2.42060766626802e-002

1.21419488439505e+004,-8.99556137828109e+000,-2.45439003729475e-002

1.23114441334492e+004,-8.99556219676002e+000,-2.48864365118755e-002

1.24833054890161e+004,-8.99556303823888e+000,-2.52337507094550e-002

1.26575659397028e+004,-8.99556390336266e+000,-2.55859095200240e-002

1.28342589756290e+004,-8.99556479279565e+000,-2.59429804129116e-002

1.30134185544193e+004,-8.99556570722121e+000,-2.63050317894391e-002

1.31950791077289e+004,-8.99556664733990e+000,-2.66721330120810e-002

1.33792755478611e+004,-8.99556761387500e+000,-2.70443543838670e-002

1.35660432744767e+004,-8.99556860756671e+000,-2.74217672039073e-002

1.37554181813974e+004,-8.99556962917885e+000,-2.78044437399503e-002

1.39474366635040e+004,-8.99557067949431e+000,-2.81924572753981e-002

1.41421356237309e+004,-8.99557175931951e+000,-2.85858820988399e-002

1.43395524801583e+004,-8.99557286948371e+000,-2.89847935240669e-002

1.45397251732031e+004,-8.99557401083798e+000,-2.93892679172876e-002

1.47426921729110e+004,-8.99557518425788e+000,-2.97993826964436e-002

1.49484924863494e+004,-8.99557639064438e+000,-3.02152163448602e-002

1.51571656651040e+004,-8.99557763092255e+000,-3.06368484380333e-002

1.53687518128801e+004,-8.99557890604326e+000,-3.10643596524434e-002

1.55832915932100e+004,-8.99558021698588e+000,-3.14978317670639e-002

1.58008262372675e+004,-8.99558156475472e+000,-3.19373477068286e-002

1.60213975517924e+004,-8.99558295038407e+000,-3.23829915300306e-002

1.62450479271247e+004,-8.99558437493644e+000,-3.28348484602552e-002

1.64718203453514e+004,-8.99558583950411e+000,-3.32930048974681e-002

1.67017583885674e+004,-8.99558734521051e+000,-3.37575484296462e-002

1.69349062472505e+004,-8.99558889320990e+000,-3.42285678571536e-002

1.71713087287550e+004,-8.99559048468925e+000,-3.47061532019076e-002

1.74110112659224e+004,-8.99559212086851e+000,-3.51903957288344e-002

1.76540599258131e+004,-8.99559380300199e+000,-3.56813879581864e-002

1.79005014185594e+004,-8.99559553237952e+000,-3.61792236823046e-002

1.81503831063432e+004,-8.99559731032583e+000,-3.66839979927930e-002

1.84037530124975e+004,-8.99559913820362e+000,-3.71958072833333e-002

1.86606598307361e+004,-8.99560101741404e+000,-3.77147492725576e-002

1.89211529345119e+004,-8.99560294939688e+000,-3.82409230254895e-002

1.91852823865052e+004,-8.99560493563251e+000,-3.87744289673229e-002

1.94530989482457e+004,-8.99560697764202e+000,-3.93153689074871e-002

1.97246540898671e+004,-8.99560907699068e+000,-3.98638460429394e-002

1.99999999999999e+004,-8.99561123528544e+000,-4.04199650001975e-002

2.02791895958005e+004,-8.99561345417998e+000,-4.09838318301750e-002

2.05622765331213e+004,-8.99561573537345e+000,-4.15555540426415e-002

2.08493152168224e+004,-8.99561808061215e+000,-4.21352406229530e-002

2.11403608112276e+004,-8.99562049169199e+000,-4.27230020446344e-002

2.14354692507258e+004,-8.99562297045867e+000,-4.33189502960197e-002

2.17346972505211e+004,-8.99562551881014e+000,-4.39231988933102e-002

2.20381023175322e+004,-8.99562813869560e+000,-4.45358629169091e-002

2.23457427614443e+004,-8.99563083212102e+000,-4.51570590048952e-002

2.26576777059159e+004,-8.99563360114675e+000,-4.57869053992239e-002

2.29739670999406e+004,-8.99563644789155e+000,-4.64255219499647e-002

2.32946717293690e+004,-8.99563937453255e+000,-4.70730301477037e-002

2.36198532285905e+004,-8.99564238330898e+000,-4.77295531303899e-002

2.39495740923785e+004,-8.99564547652102e+000,-4.83952157236061e-002

2.42838976879009e+004,-8.99564865653405e+000,-4.90701444459812e-002

2.46228882668982e+004,-8.99565192577914e+000,-4.97544675391728e-002

2.49666109780322e+004,-8.99565528675589e+000,-5.04483149830962e-002

2.53151318794055e+004,-8.99565874203196e+000,-5.11518185347298e-002

2.56685179512580e+004,-8.99566229424839e+000,-5.18651117272802e-002

2.60268371088386e+004,-8.99566594611860e+000,-5.25883299133536e-002

2.63901582154578e+004,-8.99566970043279e+000,-5.33216102716361e-002

2.67585510957221e+004,-8.99567356005794e+000,-5.40650918451210e-002

2.71320865489533e+004,-8.99567752794104e+000,-5.48189155562547e-002

2.75108363627948e+004,-8.99568160711187e+000,-5.55832242275939e-002

2.78948733270080e+004,-8.99568580068346e+000,-5.63581626171987e-002

2.82842712474618e+004,-8.99569011185621e+000,-5.71438774313534e-002

2.86791049603164e+004,-8.99569454391991e+000,-5.79405173513753e-002

2.90794503464061e+004,-8.99569910025525e+000,-5.87482330638428e-002

2.94853843458219e+004,-8.99570378433748e+000,-5.95671772788935e-002

2.98969849726987e+004,-8.99570859973716e+000,-6.03975047662104e-002

3.03143313302078e+004,-8.99571355012626e+000,-6.12393723587961e-002

3.07375036257601e+004,-8.99571863927716e+000,-6.20929390019428e-002

3.11665831864199e+004,-8.99572387106775e+000,-6.29583657644795e-002

3.16016524745350e+004,-8.99572924948277e+000,-6.38358158742880e-002

3.20427951035848e+004,-8.99573477861882e+000,-6.47254547311263e-002

3.24900958542493e+004,-8.99574046268529e+000,-6.56274499464671e-002

3.29436406907028e+004,-8.99574630600844e+000,-6.65419713640615e-002

3.34035167771346e+004,-8.99575231303499e+000,-6.74691910837120e-002

3.38698124945009e+004,-8.99575848833447e+000,-6.84092834940535e-002

3.43426174575100e+004,-8.99576483660283e+000,-6.93624252978142e-002

3.48220225318448e+004,-8.99577136266645e+000,-7.03287955365796e-002

3.53081198516260e+004,-8.99577807148578e+000,-7.13085756160626e-002

3.58010028371187e+004,-8.99578496815756e+000,-7.23019493432810e-002

3.63007662126863e+004,-8.99579205792034e+000,-7.33091029433660e-002

3.68075060249948e+004,-8.99579934615613e+000,-7.43302251008101e-002

3.73213196614721e+004,-8.99580683839761e+000,-7.53655069666386e-002

3.78423058690237e+004,-8.99581454032897e+000,-7.64151422064131e-002

3.83705647730104e+004,-8.99582245779201e+000,-7.74793270169658e-002

3.89061978964912e+004,-8.99583059678855e+000,-7.85582601659326e-002

3.94493081797342e+004,-8.99583896348754e+000,-7.96521430024966e-002

3.99999999999998e+004,-8.99584756422687e+000,-8.07611795026096e-002

4.05583791916010e+004,-8.99585640551946e+000,-8.18855762890965e-002

4.11245530662425e+004,-8.99586549405719e+000,-8.30255426644541e-002

4.16986304336447e+004,-8.99587483671621e+000,-8.41812906365606e-002

4.22807216224550e+004,-8.99588444056173e+000,-8.53530349491264e-002

4.28709385014515e+004,-8.99589431285376e+000,-8.65409931052761e-002

4.34693945010421e+004,-8.99590446105053e+000,-8.77453854082108e-002

4.40762046350642e+004,-8.99591489281592e+000,-8.89664349772279e-002

4.46914855228886e+004,-8.99592561602287e+000,-9.02043677893779e-002

4.53153554118317e+004,-8.99593663876177e+000,-9.14594126897172e-002

4.59479341998812e+004,-8.99594796934283e+000,-9.27318014431825e-002

4.65893434587380e+004,-8.99595961630506e+000,-9.40217687416771e-002

4.72397064571810e+004,-8.99597158841983e+000,-9.53295522509224e-002

4.78991481847569e+004,-8.99598389469886e+000,-9.66553926248150e-002

4.85677953758016e+004,-8.99599654439968e+000,-9.79995335415780e-002

4.92457765337964e+004,-8.99600954703251e+000,-9.93622217282610e-002

4.99332219560642e+004,-8.99602291236658e+000,-1.00743706991512e-001

5.06302637588109e+004,-8.99603665043675e+000,-1.02144242246625e-001

5.13370359025159e+004,-8.99605077155185e+000,-1.03564083536396e-001

5.20536742176771e+004,-8.99606528629981e+000,-1.05003490071532e-001

5.27803164309155e+004,-8.99608020555664e+000,-1.06462724246781e-001

5.35171021914442e+004,-8.99609554049308e+000,-1.07942051674377e-001

5.42641730979066e+004,-8.99611130258312e+000,-1.09441741203199e-001

5.50216727255895e+004,-8.99612750361032e+000,-1.10962064956623e-001

5.57897466540159e+004,-8.99614415567808e+000,-1.12503298342388e-001

5.65685424949235e+004,-8.99616127121560e+000,-1.14065720093398e-001

5.73582099206328e+004,-8.99617886298783e+000,-1.15649612282192e-001

5.81589006928121e+004,-8.99619694410375e+000,-1.17255260347715e-001

5.89707686916437e+004,-8.99621552802489e+000,-1.18882953120238e-001

5.97939699453972e+004,-8.99623462857501e+000,-1.20532982840806e-001

6.06286626604156e+004,-8.99625425994821e+000,-1.22205645190619e-001

6.14750072515201e+004,-8.99627443671961e+000,-1.23901239304340e-001

6.23331663728396e+004,-8.99629517385428e+000,-1.25620067796098e-001

6.32033049490698e+004,-8.99631648671754e+000,-1.27362436776640e-001

6.40855902071694e+004,-8.99633839108469e+000,-1.29128655874282e-001

6.49801917084985e+004,-8.99636090315114e+000,-1.30919038255458e-001

6.58872813814055e+004,-8.99638403954400e+000,-1.32733900634181e-001

6.68070335542691e+004,-8.99640781733168e+000,-1.34573563296413e-001

6.77396249890018e+004,-8.99643225403505e+000,-1.36438350113689e-001

6.86852349150199e+004,-8.99645736763932e+000,-1.38328588553177e-001

6.96440450636895e+004,-8.99648317660499e+000,-1.40244609693816e-001

7.06162397032520e+004,-8.99650969987925e+000,-1.42186748239641e-001

7.16020056742374e+004,-8.99653695690897e+000,-1.44155342522803e-001

7.26015324253724e+004,-8.99656496765178e+000,-1.46150734519664e-001

7.36150120499896e+004,-8.99659375258842e+000,-1.48173269857870e-001

7.46426393229441e+004,-8.99662333273685e+000,-1.50223297813289e-001

7.56846117380472e+004,-8.99665372966317e+000,-1.52301171325866e-001

7.67411295460207e+004,-8.99668496549580e+000,-1.54407246995675e-001

7.78123957929823e+004,-8.99671706293912e+000,-1.56541885081224e-001

7.88986163594682e+004,-8.99675004528661e+000,-1.58705449501264e-001

7.99999999999995e+004,-8.99678393643425e+000,-1.60898307833418e-001

8.11167583832018e+004,-8.99681876089574e+000,-1.63120831302767e-001

8.22491061324848e+004,-8.99685454381589e+000,-1.65373394778214e-001

8.33972608672892e+004,-8.99689131098583e+000,-1.67656376759453e-001

8.45614432449099e+004,-8.99692908885684e+000,-1.69970159370550e-001

8.57418770029029e+004,-8.99696790455739e+000,-1.72315128331092e-001

8.69387890020841e+004,-8.99700778590568e+000,-1.74691672956972e-001

8.81524092701283e+004,-8.99704876142754e+000,-1.77100186123947e-001

8.93829710457770e+004,-8.99709086037122e+000,-1.79541064250372e-001

9.06307108236633e+004,-8.99713411272306e+000,-1.82014707271992e-001

9.18958683997622e+004,-8.99717854922394e+000,-1.84521518611363e-001

9.31786869174758e+004,-8.99722420138648e+000,-1.87061905138748e-001

9.44794129143618e+004,-8.99727110150997e+000,-1.89636277147099e-001

9.57982963695136e+004,-8.99731928269866e+000,-1.92245048301956e-001

9.71355907516031e+004,-8.99736877887830e+000,-1.94888635600771e-001

9.84915530675926e+004,-8.99741962481297e+000,-1.97567459327155e-001

9.98664439121282e+004,-8.99747185612237e+000,-2.00281943000216e-001

1.01260527517622e+005,-8.99752550930033e+000,-2.03032513311828e-001

1.02674071805032e+005,-8.99758062173134e+000,-2.05819600073237e-001

1.04107348435354e+005,-8.99763723170883e+000,-2.08643636148505e-001

1.05560632861831e+005,-8.99769537845291e+000,-2.11505057385153e-001

1.07034204382888e+005,-8.99775510212855e+000,-2.14404302539123e-001

1.08528346195813e+005,-8.99781644386363e+000,-2.17341813197241e-001

1.10043345451179e+005,-8.99787944576716e+000,-2.20318033690835e-001

1.11579493308032e+005,-8.99794415094721e+000,-2.23333411009382e-001

1.13137084989847e+005,-8.99801060352967e+000,-2.26388394701620e-001

1.14716419841265e+005,-8.99807884867608e+000,-2.29483436777846e-001

1.16317801385624e+005,-8.99814893260181e+000,-2.32618991603156e-001

1.17941537383287e+005,-8.99822090259514e+000,-2.35795515779781e-001

1.19587939890794e+005,-8.99829480703442e+000,-2.39013468033621e-001

1.21257325320831e+005,-8.99837069540639e+000,-2.42273309087383e-001

1.22950014503040e+005,-8.99844861832428e+000,-2.45575501527201e-001

1.24666332745679e+005,-8.99852862754557e+000,-2.48920509663578e-001

1.26406609898139e+005,-8.99861077598961e+000,-2.52308799385117e-001

1.28171180414339e+005,-8.99869511775444e+000,-2.55740838008086e-001

1.29960383416997e+005,-8.99878170813460e+000,-2.59217094111311e-001

1.31774562762811e+005,-8.99887060363728e+000,-2.62738037371568e-001

1.33614067108538e+005,-8.99896186199903e+000,-2.66304138385141e-001

1.35479249978003e+005,-8.99905554220196e+000,-2.69915868482531e-001

1.37370469830040e+005,-8.99915170448850e+000,-2.73573699540843e-001

1.39288090127379e+005,-8.99925041037731e+000,-2.77278103777559e-001

1.41232479406504e+005,-8.99935172267693e+000,-2.81029553546251e-001

1.43204011348474e+005,-8.99945570550034e+000,-2.84828521114448e-001

1.45203064850745e+005,-8.99956242427780e+000,-2.88675478438189e-001

1.47230024099979e+005,-8.99967194576910e+000,-2.92570896927754e-001

1.49285278645888e+005,-8.99978433807560e+000,-2.96515247199581e-001

1.51369223476094e+005,-8.99989967065053e+000,-3.00508998825011e-001

1.53482259092041e+005,-9.00001801430904e+000,-3.04552620063249e-001

1.55624791585964e+005,-9.00013944123678e+000,-3.08646577591226e-001

1.57797232718936e+005,-9.00026402499764e+000,-3.12791336217651e-001

1.59999999999999e+005,-9.00039184054035e+000,-3.16987358590172e-001

1.62233516766403e+005,-9.00052296420303e+000,-3.21235104895918e-001

1.64498212264969e+005,-9.00065747371783e+000,-3.25535032543882e-001

1.66794521734578e+005,-9.00079544821236e+000,-3.29887595847218e-001

1.69122886489819e+005,-9.00093696821151e+000,-3.34293245684020e-001

1.71483754005805e+005,-9.00108211563526e+000,-3.38752429163424e-001

1.73877578004168e+005,-9.00123097379694e+000,-3.43265589265734e-001

1.76304818540256e+005,-9.00138362739863e+000,-3.47833164481794e-001

1.78765942091554e+005,-9.00154016252409e+000,-3.52455588442013e-001

1.81261421647326e+005,-9.00170066663035e+000,-3.57133289534471e-001

1.83791736799524e+005,-9.00186522853667e+000,-3.61866690513047e-001

1.86357373834951e+005,-9.00203393841223e+000,-3.66656208091302e-001

1.88958825828723e+005,-9.00220688775874e+000,-3.71502252542114e-001

1.91596592739027e+005,-9.00238416939343e+000,-3.76405227270782e-001

1.94271181503206e+005,-9.00256587742765e+000,-3.81365528389125e-001

1.96983106135185e+005,-9.00275210724269e+000,-3.86383544280966e-001

1.99732887824256e+005,-9.00294295546266e+000,-3.91459655159322e-001

2.02521055035243e+005,-9.00313851992530e+000,-3.96594232609266e-001

2.05348143610063e+005,-9.00333889964730e+000,-4.01787639137086e-001

2.08214696870707e+005,-9.00354419478850e+000,-4.07040227699123e-001

2.11121265723661e+005,-9.00375450661045e+000,-4.12352341237417e-001

2.14068408765776e+005,-9.00396993743345e+000,-4.17724312196347e-001

2.17056692391625e+005,-9.00419059058683e+000,-4.23156462051932e-001

2.20086690902357e+005,-9.00441657035826e+000,-4.28649100819686e-001

2.23158986616063e+005,-9.00464798193645e+000,-4.34202526574027e-001

2.26274169979693e+005,-9.00488493135113e+000,-4.39817024955907e-001

2.29432839682530e+005,-9.00512752540719e+000,-4.45492868687738e-001

2.32635602771247e+005,-9.00537587161554e+000,-4.51230317080349e-001

2.35883074766574e+005,-9.00563007811758e+000,-4.57029615551512e-001

2.39175879781588e+005,-9.00589025360672e+000,-4.62890995134613e-001

2.42514650641661e+005,-9.00615650724278e+000,-4.68814672004444e-001

2.45900029006080e+005,-9.00642894856246e+000,-4.74800847000319e-001

2.49332665491357e+005,-9.00670768738469e+000,-4.80849705154239e-001

2.52813219796278e+005,-9.00699283370901e+000,-4.86961415238798e-001

2.56342360828676e+005,-9.00728449761005e+000,-4.93136129312532e-001

2.59920766833993e+005,-9.00758278912517e+000,-4.99373982286439e-001

2.63549125525621e+005,-9.00788781813695e+000,-5.05675091500364e-001

2.67228134217075e+005,-9.00819969424967e+000,-5.12039556314265e-001

2.70958499956006e+005,-9.00851852665932e+000,-5.18467457723488e-001

2.74740939660078e+005,-9.00884442401843e+000,-5.24958857986394e-001

2.78576180254757e+005,-9.00917749429424e+000,-5.31513800280226e-001

2.82464958813007e+005,-9.00951784462082e+000,-5.38132308379881e-001

2.86408022696948e+005,-9.00986558114506e+000,-5.44814386363593e-001

2.90406129701488e+005,-9.01022080886685e+000,-5.51560018348098e-001

2.94460048199957e+005,-9.01058363147268e+000,-5.58369168257355e-001

2.98570557291775e+005,-9.01095415116321e+000,-5.65241779626172e-001

3.02738446952187e+005,-9.01133246847518e+000,-5.72177775439573e-001

3.06964518184081e+005,-9.01171868209677e+000,-5.79177058016179e-001

3.11249583171928e+005,-9.01211288867768e+000,-5.86239508931548e-001

3.15594465437872e+005,-9.01251518263344e+000,-5.93364988988256e-001

3.19999999999997e+005,-9.01292565594315e+000,-6.00553338241058e-001

3.24467033532806e+005,-9.01334439794353e+000,-6.07804376064589e-001

3.28996424529938e+005,-9.01377149511628e+000,-6.15117901284674e-001

3.33589043469155e+005,-9.01420703087157e+000,-6.22493692363913e-001

3.38245772979638e+005,-9.01465108532611e+000,-6.29931507649786e-001

3.42967508011610e+005,-9.01510373507749e+000,-6.37431085687034e-001

3.47755156008335e+005,-9.01556505297401e+000,-6.44992145598836e-001

3.52609637080511e+005,-9.01603510788170e+000,-6.52614387533935e-001

3.57531884183106e+005,-9.01651396444686e+000,-6.60297493194577e-001

3.62522843294651e+005,-9.01700168285740e+000,-6.68041126431805e-001

3.67583473599047e+005,-9.01749831860047e+000,-6.75844933928100e-001

3.72714747669902e+005,-9.01800392221995e+000,-6.83708545952469e-001

3.77917651657445e+005,-9.01851853907086e+000,-6.91631577209761e-001

3.83193185478053e+005,-9.01904220907491e+000,-6.99613627767457e-001

3.88542363006410e+005,-9.01957496647549e+000,-7.07654284074630e-001

3.93966212270369e+005,-9.02011683959316e+000,-7.15753120070772e-001

3.99465775648511e+005,-9.02066785058273e+000,-7.23909698390292e-001

4.05042110070485e+005,-9.02122801519312e+000,-7.32123571651856e-001

4.10696287220124e+005,-9.02179734252921e+000,-7.40394283853860e-001

4.16429393741414e+005,-9.02237583481812e+000,-7.48721371857706e-001

4.22242531447321e+005,-9.02296348718015e+000,-7.57104366970461e-001

4.28136817531551e+005,-9.02356028740479e+000,-7.65542796625113e-001

4.34113384783250e+005,-9.02416621573341e+000,-7.74036186157117e-001

4.40173381804713e+005,-9.02478124464866e+000,-7.82584060680436e-001

4.46317973232124e+005,-9.02540533867302e+000,-7.91185947053797e-001

4.52548339959385e+005,-9.02603845417532e+000,-7.99841375948532e-001

4.58865679365059e+005,-9.02668053918836e+000,-8.08549884004472e-001

4.65271205542494e+005,-9.02733153323653e+000,-8.17311016082353e-001

4.71766149533147e+005,-9.02799136717600e+000,-8.26124327602342e-001

4.78351759563174e+005,-9.02865996304768e+000,-8.34989386968900e-001

4.85029301283321e+005,-9.02933723394406e+000,-8.43905778079328e-001

4.91800058012158e+005,-9.03002308389031e+000,-8.52873102913486e-001

4.98665330982714e+005,-9.03071740774157e+000,-8.61890984196674e-001

5.05626439592555e+005,-9.03142009109692e+000,-8.70959068130522e-001

5.12684721657352e+005,-9.03213101022939e+000,-8.80077027198147e-001

5.19841533667984e+005,-9.03285003203614e+000,-8.89244563017223e-001

5.27098251051240e+005,-9.03357701400613e+000,-8.98461409254564e-001

5.34456268434150e+005,-9.03431180420745e+000,-9.07727334588658e-001

5.41916999912011e+005,-9.03505424129596e+000,-9.17042145705609e-001

