Freq.,VOut,OutRef

1.00000000000000e+004,-1.82122698717596e+001,-1.66309468944815e-001

1.01395947979003e+004,-1.82122702943887e+001,-1.68631044808456e-001

1.02811382665607e+004,-1.82122707288977e+001,-1.70985027907638e-001

1.04246576084112e+004,-1.82122711756205e+001,-1.73371870597623e-001

1.05701804056138e+004,-1.82122716349003e+001,-1.75792031549101e-001

1.07177346253629e+004,-1.82122721070901e+001,-1.78245975831852e-001

1.08673486252606e+004,-1.82122725925528e+001,-1.80734175006832e-001

1.10190511587661e+004,-1.82122730916612e+001,-1.83257107217620e-001

1.11728713807222e+004,-1.82122736047991e+001,-1.85815257279155e-001

1.13288388529580e+004,-1.82122741323605e+001,-1.88409116773460e-001

1.14869835499703e+004,-1.82122746747509e+001,-1.91039184142096e-001

1.16473358646846e+004,-1.82122752323869e+001,-1.93705964784634e-001

1.18099266142953e+004,-1.82122758056970e+001,-1.96409971152085e-001

1.19747870461893e+004,-1.82122763951218e+001,-1.99151722846963e-001

1.21419488439505e+004,-1.82122770011141e+001,-2.01931746724023e-001

1.23114441334492e+004,-1.82122776241393e+001,-2.04750576990668e-001

1.24833054890161e+004,-1.82122782646763e+001,-2.07608755308228e-001

1.26575659397028e+004,-1.82122789232171e+001,-2.10506830897745e-001

1.28342589756290e+004,-1.82122796002675e+001,-2.13445360644847e-001

1.30134185544193e+004,-1.82122802963478e+001,-2.16424909205593e-001

1.31950791077289e+004,-1.82122810119928e+001,-2.19446049115870e-001

1.33792755478611e+004,-1.82122817477520e+001,-2.22509360902813e-001

1.35660432744767e+004,-1.82122825041907e+001,-2.25615433192501e-001

1.37554181813974e+004,-1.82122832818901e+001,-2.28764862825143e-001

1.39474366635040e+004,-1.82122840814473e+001,-2.31958254971198e-001

1.41421356237309e+004,-1.82122849034767e+001,-2.35196223242765e-001

1.43395524801583e+004,-1.82122857486097e+001,-2.38479389817265e-001

1.45397251732031e+004,-1.82122866174954e+001,-2.41808385551180e-001

1.47426921729110e+004,-1.82122875108012e+001,-2.45183850105758e-001

1.49484924863494e+004,-1.82122884292130e+001,-2.48606432067670e-001

1.51571656651040e+004,-1.82122893734365e+001,-2.52076789071262e-001

1.53687518128801e+004,-1.82122903441966e+001,-2.55595587930224e-001

1.55832915932100e+004,-1.82122913422390e+001,-2.59163504759355e-001

1.58008262372675e+004,-1.82122923683301e+001,-2.62781225108973e-001

1.60213975517924e+004,-1.82122934232577e+001,-2.66449444093983e-001

1.62450479271247e+004,-1.82122945078323e+001,-2.70168866527153e-001

1.64718203453514e+004,-1.82122956228865e+001,-2.73940207055740e-001

1.67017583885674e+004,-1.82122967692765e+001,-2.77764190297516e-001

1.69349062472505e+004,-1.82122979478825e+001,-2.81641550980723e-001

1.71713087287550e+004,-1.82122991596097e+001,-2.85573034082762e-001

1.74110112659224e+004,-1.82123004053883e+001,-2.89559394974862e-001

1.76540599258131e+004,-1.82123016861748e+001,-2.93601399567060e-001

1.79005014185594e+004,-1.82123030029524e+001,-2.97699824454979e-001

1.81503831063432e+004,-1.82123043567322e+001,-3.01855457066140e-001

1.84037530124975e+004,-1.82123057485533e+001,-3.06069095815003e-001

1.86606598307361e+004,-1.82123071794842e+001,-3.10341550253884e-001

1.89211529345119e+004,-1.82123086506234e+001,-3.14673641226814e-001

1.91852823865052e+004,-1.82123101630999e+001,-3.19066201029823e-001

1.94530989482457e+004,-1.82123117180749e+001,-3.23520073567079e-001

1.97246540898671e+004,-1.82123133167416e+001,-3.28036114516928e-001

1.99999999999999e+004,-1.82123149603270e+001,-3.32615191491195e-001

2.02791895958005e+004,-1.82123166500926e+001,-3.37258184204390e-001

2.05622765331213e+004,-1.82123183873351e+001,-3.41965984640834e-001

2.08493152168224e+004,-1.82123201733876e+001,-3.46739497227469e-001

2.11403608112276e+004,-1.82123220096205e+001,-3.51579639003597e-001

2.14354692507258e+004,-1.82123238974428e+001,-3.56487339801071e-001

2.17346972505211e+004,-1.82123258383030e+001,-3.61463542417660e-001

2.20381023175322e+004,-1.82123278336900e+001,-3.66509202801136e-001

2.23457427614443e+004,-1.82123298851346e+001,-3.71625290230905e-001

2.26576777059159e+004,-1.82123319942107e+001,-3.76812787502530e-001

2.29739670999406e+004,-1.82123341625358e+001,-3.82072691118982e-001

2.32946717293690e+004,-1.82123363917732e+001,-3.87406011477559e-001

2.36198532285905e+004,-1.82123386836329e+001,-3.92813773065145e-001

2.39495740923785e+004,-1.82123410398723e+001,-3.98297014656221e-001

2.42838976879009e+004,-1.82123434622983e+001,-4.03856789507386e-001

2.46228882668982e+004,-1.82123459527687e+001,-4.09494165561833e-001

2.49666109780322e+004,-1.82123485131929e+001,-4.15210225653023e-001

2.53151318794055e+004,-1.82123511455340e+001,-4.21006067711460e-001

2.56685179512580e+004,-1.82123538518103e+001,-4.26882804974275e-001

2.60268371088386e+004,-1.82123566340961e+001,-4.32841566200221e-001

2.63901582154578e+004,-1.82123594945243e+001,-4.38883495882031e-001

2.67585510957221e+004,-1.82123624352873e+001,-4.45009754467966e-001

2.71320865489533e+004,-1.82123654586389e+001,-4.51221518582723e-001

2.75108363627948e+004,-1.82123685668961e+001,-4.57519981251549e-001

2.78948733270080e+004,-1.82123717624403e+001,-4.63906352130492e-001

2.82842712474618e+004,-1.82123750477204e+001,-4.70381857733435e-001

2.86791049603164e+004,-1.82123784252529e+001,-4.76947741671159e-001

2.90794503464061e+004,-1.82123818976254e+001,-4.83605264885054e-001

2.94853843458219e+004,-1.82123854674975e+001,-4.90355705890785e-001

2.98969849726987e+004,-1.82123891376036e+001,-4.97200361018353e-001

3.03143313302078e+004,-1.82123929107541e+001,-5.04140544663875e-001

3.07375036257601e+004,-1.82123967898382e+001,-5.11177589539910e-001

3.11665831864199e+004,-1.82124007778260e+001,-5.18312846925055e-001

3.16016524745350e+004,-1.82124048777706e+001,-5.25547686927746e-001

3.20427951035848e+004,-1.82124090928103e+001,-5.32883498743811e-001

3.24900958542493e+004,-1.82124134261712e+001,-5.40321690922860e-001

3.29436406907028e+004,-1.82124178811695e+001,-5.47863691636321e-001

3.34035167771346e+004,-1.82124224612142e+001,-5.55510948949063e-001

3.38698124945009e+004,-1.82124271698093e+001,-5.63264931097353e-001

3.43426174575100e+004,-1.82124320105569e+001,-5.71127126765188e-001

3.48220225318448e+004,-1.82124369871594e+001,-5.79099045372058e-001

3.53081198516260e+004,-1.82124421034229e+001,-5.87182217356305e-001

3.58010028371187e+004,-1.82124473632595e+001,-5.95378194469623e-001

3.63007662126863e+004,-1.82124527706905e+001,-6.03688550069473e-001

3.68075060249948e+004,-1.82124583298495e+001,-6.12114879421558e-001

3.73213196614721e+004,-1.82124640449854e+001,-6.20658800000670e-001

3.78423058690237e+004,-1.82124699204655e+001,-6.29321951799427e-001

3.83705647730104e+004,-1.82124759607789e+001,-6.38105997639888e-001

3.89061978964912e+004,-1.82124821705399e+001,-6.47012623489861e-001

3.94493081797342e+004,-1.82124885544915e+001,-6.56043538782151e-001

3.99999999999998e+004,-1.82124951175085e+001,-6.65200476740756e-001

4.05583791916010e+004,-1.82125018646018e+001,-6.74485194708763e-001

4.11245530662425e+004,-1.82125088009219e+001,-6.83899474481311e-001

4.16986304336447e+004,-1.82125159317624e+001,-6.93445122646523e-001

4.22807216224550e+004,-1.82125232625645e+001,-7.03123970924205e-001

4.28709385014515e+004,-1.82125307989207e+001,-7.12937876516875e-001

4.34693945010421e+004,-1.82125385465791e+001,-7.22888722458499e-001

4.40762046350642e+004,-1.82125465114478e+001,-7.32978417973274e-001

4.46914855228886e+004,-1.82125546995988e+001,-7.43208898837000e-001

4.53153554118317e+004,-1.82125631172731e+001,-7.53582127743135e-001

4.59479341998812e+004,-1.82125717708852e+001,-7.64100094673378e-001

4.65893434587380e+004,-1.82125806670275e+001,-7.74764817276453e-001

4.72397064571810e+004,-1.82125898124757e+001,-7.85578341246357e-001

4.78991481847569e+004,-1.82125992141933e+001,-7.96542740712171e-001

4.85677953758016e+004,-1.82126088793372e+001,-8.07660118626940e-001

4.92457765337964e+004,-1.82126188152628e+001,-8.18932607167337e-001

4.99332219560642e+004,-1.82126290295294e+001,-8.30362368133344e-001

5.06302637588109e+004,-1.82126395299057e+001,-8.41951593359208e-001

5.13370359025159e+004,-1.82126503243757e+001,-8.53702505123558e-001

5.20536742176771e+004,-1.82126614211446e+001,-8.65617356569526e-001

5.27803164309155e+004,-1.82126728286445e+001,-8.77698432130240e-001

5.35171021914442e+004,-1.82126845555409e+001,-8.89948047956177e-001

5.42641730979066e+004,-1.82126966107391e+001,-9.02368552353226e-001

5.50216727255895e+004,-1.82127090033902e+001,-9.14962326223029e-001

5.57897466540159e+004,-1.82127217428986e+001,-9.27731783510005e-001

5.65685424949235e+004,-1.82127348389282e+001,-9.40679371655744e-001

5.73582099206328e+004,-1.82127483014095e+001,-9.53807572058607e-001

5.81589006928121e+004,-1.82127621405471e+001,-9.67118900536887e-001

5.89707686916437e+004,-1.82127763668272e+001,-9.80615907802248e-001

5.97939699453972e+004,-1.82127909910246e+001,-9.94301179937649e-001

6.06286626604156e+004,-1.82128060242112e+001,-1.00817733887983e+000

6.14750072515201e+004,-1.82128214777635e+001,-1.02224704291104e+000

6.23331663728396e+004,-1.82128373633711e+001,-1.03651298715631e+000

6.32033049490698e+004,-1.82128536930448e+001,-1.05097790408432e+000

6.40855902071694e+004,-1.82128704791259e+001,-1.06564456402032e+000

6.49801917084985e+004,-1.82128877342941e+001,-1.08051577566112e+000

6.58872813814055e+004,-1.82129054715772e+001,-1.09559438659938e+000

6.68070335542691e+004,-1.82129237043605e+001,-1.11088328385226e+000

6.77396249890018e+004,-1.82129424463961e+001,-1.12638539439956e+000

6.86852349150199e+004,-1.82129617118122e+001,-1.14210368572923e+000

6.96440450636895e+004,-1.82129815151244e+001,-1.15804116638527e+000

7.06162397032520e+004,-1.82130018712447e+001,-1.17420088652873e+000

7.16020056742374e+004,-1.82130227954928e+001,-1.19058593850085e+000

7.26015324253724e+004,-1.82130443036065e+001,-1.20719945739840e+000

7.36150120499896e+004,-1.82130664117531e+001,-1.22404462165138e+000

7.46426393229441e+004,-1.82130891365405e+001,-1.24112465361172e+000

7.56846117380472e+004,-1.82131124950288e+001,-1.25844282014845e+000

7.67411295460207e+004,-1.82131365047427e+001,-1.27600243324987e+000

7.78123957929823e+004,-1.82131611836827e+001,-1.29380685063387e+000

7.88986163594682e+004,-1.82131865503387e+001,-1.31185947636670e+000

7.99999999999995e+004,-1.82132126237023e+001,-1.33016376148707e+000

8.11167583832018e+004,-1.82132394232795e+001,-1.34872320464337e+000

8.22491061324848e+004,-1.82132669691049e+001,-1.36754135273243e+000

8.33972608672892e+004,-1.82132952817549e+001,-1.38662180155057e+000

8.45614432449099e+004,-1.82133243823621e+001,-1.40596819645219e+000

8.57418770029029e+004,-1.82133542926293e+001,-1.42558423301587e+000

8.69387890020841e+004,-1.82133850348447e+001,-1.44547365771892e+000

8.81524092701283e+004,-1.82134166318967e+001,-1.46564026862078e+000

8.93829710457770e+004,-1.82134491072892e+001,-1.48608791605503e+000

9.06307108236633e+004,-1.82134824851581e+001,-1.50682050332856e+000

9.18958683997622e+004,-1.82135167902863e+001,-1.52784198743230e+000

9.31786869174758e+004,-1.82135520481213e+001,-1.54915637975712e+000

9.44794129143618e+004,-1.82135882847915e+001,-1.57076774682176e+000

9.57982963695136e+004,-1.82136255271237e+001,-1.59268021100766e+000

9.71355907516031e+004,-1.82136638026607e+001,-1.61489795130383e+000

9.84915530675926e+004,-1.82137031396793e+001,-1.63742520406033e+000

9.98664439121282e+004,-1.82137435672089e+001,-1.66026626375082e+000

1.01260527517622e+005,-1.82137851150503e+001,-1.68342548374547e+000

1.02674071805032e+005,-1.82138278137949e+001,-1.70690727709175e+000

1.04107348435354e+005,-1.82138716948444e+001,-1.73071611730573e+000

1.05560632861831e+005,-1.82139167904311e+001,-1.75485653917174e+000

1.07034204382888e+005,-1.82139631336382e+001,-1.77933313955400e+000

1.08528346195813e+005,-1.82140107584208e+001,-1.80415057821529e+000

1.10043345451179e+005,-1.82140596996275e+001,-1.82931357864708e+000

1.11579493308032e+005,-1.82141099930219e+001,-1.85482692890870e+000

1.13137084989847e+005,-1.82141616753051e+001,-1.88069548247740e+000

1.14716419841265e+005,-1.82142147841387e+001,-1.90692415910697e+000

1.16317801385624e+005,-1.82142693581674e+001,-1.93351794569923e+000

1.17941537383287e+005,-1.82143254370431e+001,-1.96048189718301e+000

1.19587939890794e+005,-1.82143830614487e+001,-1.98782113740438e+000

1.21257325320831e+005,-1.82144422731231e+001,-2.01554086002828e+000

1.22950014503040e+005,-1.82145031148859e+001,-2.04364632944941e+000

1.24666332745679e+005,-1.82145656306629e+001,-2.07214288171504e+000

1.26406609898139e+005,-1.82146298655122e+001,-2.10103592545771e+000

1.28171180414339e+005,-1.82146958656509e+001,-2.13033094283824e+000

1.29960383416997e+005,-1.82147636784816e+001,-2.16003349050163e+000

1.31774562762811e+005,-1.82148333526200e+001,-2.19014920054268e+000

1.33614067108538e+005,-1.82149049379228e+001,-2.22068378148218e+000

1.35479249978003e+005,-1.82149784855164e+001,-2.25164301925612e+000

1.37370469830040e+005,-1.82150540478251e+001,-2.28303277821530e+000

1.39288090127379e+005,-1.82151316786010e+001,-2.31485900213604e+000

1.41232479406504e+005,-1.82152114329535e+001,-2.34712771524404e+000

1.43204011348474e+005,-1.82152933673800e+001,-2.37984502324796e+000

1.45203064850745e+005,-1.82153775397962e+001,-2.41301711438714e+000

1.47230024099979e+005,-1.82154640095673e+001,-2.44665026049011e+000

1.49285278645888e+005,-1.82155528375405e+001,-2.48075081804395e+000

1.51369223476094e+005,-1.82156440860762e+001,-2.51532522928009e+000

1.53482259092041e+005,-1.82157378190813e+001,-2.55038002326678e+000

1.55624791585964e+005,-1.82158341020419e+001,-2.58592181702049e+000

1.57797232718936e+005,-1.82159330020575e+001,-2.62195731662402e+000

1.59999999999999e+005,-1.82160345878739e+001,-2.65849331836298e+000

1.62233516766403e+005,-1.82161389299188e+001,-2.69553670987079e+000

1.64498212264969e+005,-1.82162461003360e+001,-2.73309447129001e+000

1.66794521734578e+005,-1.82163561730209e+001,-2.77117367644663e+000

1.69122886489819e+005,-1.82164692236562e+001,-2.80978149403594e+000

1.71483754005805e+005,-1.82165853297480e+001,-2.84892518882586e+000

1.73877578004168e+005,-1.82167045706624e+001,-2.88861212287078e+000

1.76304818540256e+005,-1.82168270276622e+001,-2.92884975674275e+000

1.78765942091554e+005,-1.82169527839446e+001,-2.96964565077441e+000

1.81261421647326e+005,-1.82170819246786e+001,-3.01100746631967e+000

1.83791736799524e+005,-1.82172145370428e+001,-3.05294296702619e+000

1.86357373834951e+005,-1.82173507102642e+001,-3.09546002012648e+000

1.88958825828723e+005,-1.82174905356568e+001,-3.13856659774278e+000

1.91596592739027e+005,-1.82176341066602e+001,-3.18227077820745e+000

1.94271181503206e+005,-1.82177815188795e+001,-3.22658074740105e+000

1.96983106135185e+005,-1.82179328701245e+001,-3.27150480010647e+000

1.99732887824256e+005,-1.82180882604497e+001,-3.31705134137911e+000

2.02521055035243e+005,-1.82182477921947e+001,-3.36322888793608e+000

2.05348143610063e+005,-1.82184115700242e+001,-3.41004606956115e+000

2.08214696870707e+005,-1.82185797009690e+001,-3.45751163052981e+000

2.11121265723661e+005,-1.82187522944665e+001,-3.50563443105137e+000

2.14068408765776e+005,-1.82189294624025e+001,-3.55442344873049e+000

2.17056692391625e+005,-1.82191113191517e+001,-3.60388778004894e+000

2.20086690902357e+005,-1.82192979816197e+001,-3.65403664186580e+000

2.23158986616063e+005,-1.82194895692845e+001,-3.70487937294004e+000

2.26274169979693e+005,-1.82196862042386e+001,-3.75642543547195e+000

2.29432839682530e+005,-1.82198880112308e+001,-3.80868441666870e+000

2.32635602771247e+005,-1.82200951177084e+001,-3.86166603033026e+000

2.35883074766574e+005,-1.82203076538598e+001,-3.91538011845842e+000

2.39175879781588e+005,-1.82205257526569e+001,-3.96983665289056e+000

2.42514650641661e+005,-1.82207495498980e+001,-4.02504573695540e+000

2.45900029006080e+005,-1.82209791842501e+001,-4.08101760715697e+000

2.49332665491357e+005,-1.82212147972928e+001,-4.13776263488018e+000

2.52813219796278e+005,-1.82214565335608e+001,-4.19529132812658e+000

2.56342360828676e+005,-1.82217045405879e+001,-4.25361433327473e+000

2.59920766833993e+005,-1.82219589689504e+001,-4.31274243686995e+000

2.63549125525621e+005,-1.82222199723109e+001,-4.37268656744308e+000

2.67228134217075e+005,-1.82224877074628e+001,-4.43345779735870e+000

2.70958499956006e+005,-1.82227623343746e+001,-4.49506734469348e+000

2.74740939660078e+005,-1.82230440162347e+001,-4.55752657514799e+000

2.78576180254757e+005,-1.82233329194971e+001,-4.62084700398953e+000

2.82464958813007e+005,-1.82236292139264e+001,-4.68504029802978e+000

2.86408022696948e+005,-1.82239330726443e+001,-4.75011827763717e+000

2.90406129701488e+005,-1.82242446721768e+001,-4.81609291878445e+000

2.94460048199957e+005,-1.82245641925008e+001,-4.88297635513406e+000

2.98570557291775e+005,-1.82248918170930e+001,-4.95078088016045e+000

3.02738446952187e+005,-1.82252277329786e+001,-5.01951894931349e+000

3.06964518184081e+005,-1.82255721307811e+001,-5.08920318222054e+000

3.11249583171928e+005,-1.82259252047735e+001,-5.15984636493066e+000

3.15594465437872e+005,-1.82262871529304e+001,-5.23146145220188e+000

3.19999999999997e+005,-1.82266581769814e+001,-5.30406156983237e+000

3.24467033532806e+005,-1.82270384824661e+001,-5.37766001703623e+000

3.28996424529938e+005,-1.82274282787907e+001,-5.45227026886602e+000

3.33589043469155e+005,-1.82278277792861e+001,-5.52790597868355e+000

3.38245772979638e+005,-1.82282372012687e+001,-5.60458098067818e+000

3.42967508011610e+005,-1.82286567661023e+001,-5.68230929243551e+000

3.47755156008335e+005,-1.82290866992637e+001,-5.76110511755812e+000

3.52609637080511e+005,-1.82295272304095e+001,-5.84098284833716e+000

3.57531884183106e+005,-1.82299785934473e+001,-5.92195706847880e+000

3.62522843294651e+005,-1.82304410266086e+001,-6.00404255588355e+000

3.67583473599047e+005,-1.82309147725260e+001,-6.08725428548282e+000

3.72714747669902e+005,-1.82314000783141e+001,-6.17160743213049e+000

3.77917651657445e+005,-1.82318971956537e+001,-6.25711737355334e+000

3.83193185478053e+005,-1.82324063808810e+001,-6.34379969335823e+000

3.88542363006410e+005,-1.82329278950814e+001,-6.43167018409979e+000

3.93966212270369e+005,-1.82334620041877e+001,-6.52074485040774e+000

3.99465775648511e+005,-1.82340089790846e+001,-6.61103991217389e+000

4.05042110070485e+005,-1.82345690957181e+001,-6.70257180780071e+000

4.10696287220124e+005,-1.82351426352116e+001,-6.79535719751169e+000

4.16429393741414e+005,-1.82357298839883e+001,-6.88941296672320e+000

4.22242531447321e+005,-1.82363311339006e+001,-6.98475622947759e+000

4.28136817531551e+005,-1.82369466823671e+001,-7.08140433193960e+000

4.34113384783250e+005,-1.82375768325171e+001,-7.17937485595421e+000

4.40173381804713e+005,-1.82382218933437e+001,-7.27868562266572e+000

4.46317973232124e+005,-1.82388821798654e+001,-7.37935469619902e+000

4.52548339959385e+005,-1.82395580132975e+001,-7.48140038740143e+000

4.58865679365059e+005,-1.82402497212324e+001,-7.58484125764449e+000

4.65271205542494e+005,-1.82409576378305e+001,-7.68969612268547e+000

4.71766149533147e+005,-1.82416821040222e+001,-7.79598405658629e+000

4.78351759563174e+005,-1.82424234677201e+001,-7.90372439569077e+000

4.85029301283321e+005,-1.82431820840437e+001,-8.01293674265624e+000

4.91800058012158e+005,-1.82439583155557e+001,-8.12364097053970e+000

4.98665330982714e+005,-1.82447525325117e+001,-8.23585722693607e+000

5.05626439592555e+005,-1.82455651131214e+001,-8.34960593816644e+000

5.12684721657352e+005,-1.82463964438254e+001,-8.46490781351414e+000

5.19841533667984e+005,-1.82472469195845e+001,-8.58178384950676e+000

5.27098251051240e+005,-1.82481169441837e+001,-8.70025533424090e+000

5.34456268434150e+005,-1.82490069305520e+001,-8.82034385174659e+000

5.41916999912011e+005,-1.82499173010963e+001,-8.94207128638944e+000

