Freq.,VOut,OutRef

1.00000000000000e+004,-1.87778796651445e+001,-1.92439767861167e-001

1.01395947979003e+004,-1.87778804234759e+001,-1.95126087042707e-001

1.02811382665607e+004,-1.87778812031226e+001,-1.97849904150484e-001

1.04246576084112e+004,-1.87778820046837e+001,-2.00611742564081e-001

1.05701804056138e+004,-1.87778828287753e+001,-2.03412132964541e-001

1.07177346253629e+004,-1.87778836760303e+001,-2.06251613441341e-001

1.08673486252606e+004,-1.87778845470996e+001,-2.09130729589410e-001

1.10190511587661e+004,-1.87778854426525e+001,-2.12050034617853e-001

1.11728713807222e+004,-1.87778863633770e+001,-2.15010089453257e-001

1.13288388529580e+004,-1.87778873099805e+001,-2.18011462849897e-001

1.14869835499703e+004,-1.87778882831902e+001,-2.21054731496887e-001

1.16473358646846e+004,-1.87778892837537e+001,-2.24140480130661e-001

1.18099266142953e+004,-1.87778903124395e+001,-2.27269301644973e-001

1.19747870461893e+004,-1.87778913700379e+001,-2.30441797206204e-001

1.21419488439505e+004,-1.87778924573615e+001,-2.33658576367159e-001

1.23114441334492e+004,-1.87778935752454e+001,-2.36920257185126e-001

1.24833054890161e+004,-1.87778947245481e+001,-2.40227466342061e-001

1.26575659397028e+004,-1.87778959061526e+001,-2.43580839260809e-001

1.28342589756290e+004,-1.87778971209663e+001,-2.46981020229201e-001

1.30134185544193e+004,-1.87778983699225e+001,-2.50428662522862e-001

1.31950791077289e+004,-1.87778996539803e+001,-2.53924428532837e-001

1.33792755478611e+004,-1.87779009741260e+001,-2.57468989888122e-001

1.35660432744767e+004,-1.87779023313734e+001,-2.61063027589419e-001

1.37554181813974e+004,-1.87779037267648e+001,-2.64707232134749e-001

1.39474366635040e+004,-1.87779051613719e+001,-2.68402303656093e-001

1.41421356237309e+004,-1.87779066362965e+001,-2.72148952049572e-001

1.43395524801583e+004,-1.87779081526710e+001,-2.75947897115298e-001

1.45397251732031e+004,-1.87779097116601e+001,-2.79799868692616e-001

1.47426921729110e+004,-1.87779113144606e+001,-2.83705606801461e-001

1.49484924863494e+004,-1.87779129623034e+001,-2.87665861782129e-001

1.51571656651040e+004,-1.87779146564537e+001,-2.91681394442055e-001

1.53687518128801e+004,-1.87779163982122e+001,-2.95752976198349e-001

1.55832915932100e+004,-1.87779181889164e+001,-2.99881389227062e-001

1.58008262372675e+004,-1.87779200299407e+001,-3.04067426614526e-001

1.60213975517924e+004,-1.87779219226990e+001,-3.08311892504494e-001

1.62450479271247e+004,-1.87779238686438e+001,-3.12615602258601e-001

1.64718203453514e+004,-1.87779258692693e+001,-3.16979382606097e-001

1.67017583885674e+004,-1.87779279261109e+001,-3.21404071806729e-001

1.69349062472505e+004,-1.87779300407476e+001,-3.25890519809282e-001

1.71713087287550e+004,-1.87779322148025e+001,-3.30439588412203e-001

1.74110112659224e+004,-1.87779344499441e+001,-3.35052151433858e-001

1.76540599258131e+004,-1.87779367478880e+001,-3.39729094874006e-001

1.79005014185594e+004,-1.87779391103976e+001,-3.44471317086979e-001

1.81503831063432e+004,-1.87779415392861e+001,-3.49279728951356e-001

1.84037530124975e+004,-1.87779440364171e+001,-3.54155254046792e-001

1.86606598307361e+004,-1.87779466037070e+001,-3.59098828825880e-001

1.89211529345119e+004,-1.87779492431253e+001,-3.64111402799960e-001

1.91852823865052e+004,-1.87779519566975e+001,-3.69193938713852e-001

1.94530989482457e+004,-1.87779547465053e+001,-3.74347412733473e-001

1.97246540898671e+004,-1.87779576146889e+001,-3.79572814633290e-001

1.99999999999999e+004,-1.87779605634484e+001,-3.84871147982449e-001

2.02791895958005e+004,-1.87779635950460e+001,-3.90243430338353e-001

2.05622765331213e+004,-1.87779667118069e+001,-3.95690693440463e-001

2.08493152168224e+004,-1.87779699161215e+001,-4.01213983407656e-001

2.11403608112276e+004,-1.87779732104473e+001,-4.06814360937850e-001

2.14354692507258e+004,-1.87779765973107e+001,-4.12492901510514e-001

2.17346972505211e+004,-1.87779800793087e+001,-4.18250695591514e-001

2.20381023175322e+004,-1.87779836591112e+001,-4.24088848841527e-001

2.23457427614443e+004,-1.87779873394630e+001,-4.30008482327890e-001

2.26576777059159e+004,-1.87779911231854e+001,-4.36010732736553e-001

2.29739670999406e+004,-1.87779950131791e+001,-4.42096752589787e-001

2.32946717293690e+004,-1.87779990124259e+001,-4.48267710467034e-001

2.36198532285905e+004,-1.87780031239911e+001,-4.54524791225919e-001

2.39495740923785e+004,-1.87780073510258e+001,-4.60869196228917e-001

2.42838976879009e+004,-1.87780116967691e+001,-4.67302143572701e-001

2.46228882668982e+004,-1.87780161645514e+001,-4.73824868318048e-001

2.49666109780322e+004,-1.87780207577955e+001,-4.80438622729174e-001

2.53151318794055e+004,-1.87780254800207e+001,-4.87144676507257e-001

2.56685179512580e+004,-1.87780303348443e+001,-4.93944317035344e-001

2.60268371088386e+004,-1.87780353259849e+001,-5.00838849623496e-001

2.63901582154578e+004,-1.87780404572653e+001,-5.07829597754218e-001

2.67585510957221e+004,-1.87780457326151e+001,-5.14917903337594e-001

2.71320865489533e+004,-1.87780511560737e+001,-5.22105126964068e-001

2.75108363627948e+004,-1.87780567317937e+001,-5.29392648164275e-001

2.78948733270080e+004,-1.87780624640436e+001,-5.36781865670586e-001

2.82842712474618e+004,-1.87780683572111e+001,-5.44274197684104e-001

2.86791049603164e+004,-1.87780744158067e+001,-5.51871082141512e-001

2.90794503464061e+004,-1.87780806444671e+001,-5.59573976989230e-001

2.94853843458219e+004,-1.87780870479582e+001,-5.67384360462155e-001

2.98969849726987e+004,-1.87780936311792e+001,-5.75303731360482e-001

3.03143313302078e+004,-1.87781003991662e+001,-5.83333609336931e-001

3.07375036257601e+004,-1.87781073570957e+001,-5.91475535182778e-001

3.11665831864199e+004,-1.87781145102890e+001,-5.99731071120847e-001

3.16016524745350e+004,-1.87781218642158e+001,-6.08101801101502e-001

3.20427951035848e+004,-1.87781294244982e+001,-6.16589331102378e-001

3.24900958542493e+004,-1.87781371969156e+001,-6.25195289431558e-001

3.29436406907028e+004,-1.87781451874084e+001,-6.33921327036579e-001

3.34035167771346e+004,-1.87781534020826e+001,-6.42769117816875e-001

3.38698124945009e+004,-1.87781618472145e+001,-6.51740358939397e-001

3.43426174575100e+004,-1.87781705292556e+001,-6.60836771159068e-001

3.48220225318448e+004,-1.87781794548367e+001,-6.70060099145124e-001

3.53081198516260e+004,-1.87781886307738e+001,-6.79412111808174e-001

3.58010028371187e+004,-1.87781980640726e+001,-6.88894602636484e-001

3.63007662126863e+004,-1.87782077619340e+001,-6.98509390031839e-001

3.68075060249948e+004,-1.87782177317590e+001,-7.08258317654498e-001

3.73213196614721e+004,-1.87782279811552e+001,-7.18143254768092e-001

3.78423058690237e+004,-1.87782385179414e+001,-7.28166096593344e-001

3.83705647730104e+004,-1.87782493501541e+001,-7.38328764663506e-001

3.89061978964912e+004,-1.87782604860531e+001,-7.48633207186878e-001

3.94493081797342e+004,-1.87782719341283e+001,-7.59081399410719e-001

3.99999999999998e+004,-1.87782837031049e+001,-7.69675343995972e-001

4.05583791916010e+004,-1.87782958019511e+001,-7.80417071388582e-001

4.11245530662425e+004,-1.87783082398837e+001,-7.91308640203617e-001

4.16986304336447e+004,-1.87783210263758e+001,-8.02352137609763e-001

4.22807216224550e+004,-1.87783341711631e+001,-8.13549679720624e-001

4.28709385014515e+004,-1.87783476842516e+001,-8.24903411991231e-001

4.34693945010421e+004,-1.87783615759247e+001,-8.36415509618355e-001

4.40762046350642e+004,-1.87783758567511e+001,-8.48088177946801e-001

4.46914855228886e+004,-1.87783905375921e+001,-8.59923652883446e-001

4.53153554118317e+004,-1.87784056296099e+001,-8.71924201312254e-001

4.59479341998812e+004,-1.87784211442760e+001,-8.84092121516987e-001

4.65893434587380e+004,-1.87784370933792e+001,-8.96429743611987e-001

4.72397064571810e+004,-1.87784534890347e+001,-9.08939429971561e-001

4.78991481847569e+004,-1.87784703436924e+001,-9.21623575674143e-001

4.85677953758016e+004,-1.87784876701464e+001,-9.34484608943136e-001

4.92457765337964e+004,-1.87785054815444e+001,-9.47524991600776e-001

4.99332219560642e+004,-1.87785237913972e+001,-9.60747219522066e-001

5.06302637588109e+004,-1.87785426135882e+001,-9.74153823100427e-001

5.13370359025159e+004,-1.87785619623840e+001,-9.87747367712719e-001

5.20536742176771e+004,-1.87785818524446e+001,-1.00153045419533e+000

5.27803164309155e+004,-1.87786022988336e+001,-1.01550571932553e+000

5.35171021914442e+004,-1.87786233170299e+001,-1.02967583630521e+000

5.42641730979066e+004,-1.87786449229382e+001,-1.04404351525611e+000

5.50216727255895e+004,-1.87786671329007e+001,-1.05861150371800e+000

5.57897466540159e+004,-1.87786899637089e+001,-1.07338258715366e+000

5.65685424949235e+004,-1.87787134326155e+001,-1.08835958946008e+000

5.73582099206328e+004,-1.87787375573471e+001,-1.10354537348707e+000

5.81589006928121e+004,-1.87787623561165e+001,-1.11894284156287e+000

5.89707686916437e+004,-1.87787878476358e+001,-1.13455493602221e+000

5.97939699453972e+004,-1.87788140511300e+001,-1.15038463974742e+000

6.06286626604156e+004,-1.87788409863504e+001,-1.16643497670947e+000

6.14750072515201e+004,-1.87788686735885e+001,-1.18270901252238e+000

6.23331663728396e+004,-1.87788971336906e+001,-1.19920985499774e+000

6.32033049490698e+004,-1.87789263880726e+001,-1.21594065471230e+000

6.40855902071694e+004,-1.87789564587347e+001,-1.23290460557737e+000

6.49801917084985e+004,-1.87789873682771e+001,-1.25010494541864e+000

6.58872813814055e+004,-1.87790191399160e+001,-1.26754495656120e+000

6.68070335542691e+004,-1.87790517974995e+001,-1.28522796642266e+000

6.77396249890018e+004,-1.87790853655242e+001,-1.30315734811313e+000

6.86852349150199e+004,-1.87791198691526e+001,-1.32133652104112e+000

6.96440450636895e+004,-1.87791553342301e+001,-1.33976895152909e+000

7.06162397032520e+004,-1.87791917873034e+001,-1.35845815343451e+000

7.16020056742374e+004,-1.87792292556379e+001,-1.37740768877891e+000

7.26015324253724e+004,-1.87792677672374e+001,-1.39662116838393e+000

7.36150120499896e+004,-1.87793073508627e+001,-1.41610225251614e+000

7.46426393229441e+004,-1.87793480360512e+001,-1.43585465153779e+000

7.56846117380472e+004,-1.87793898531372e+001,-1.45588212656507e+000

7.67411295460207e+004,-1.87794328332725e+001,-1.47618849013630e+000

7.78123957929823e+004,-1.87794770084468e+001,-1.49677760688586e+000

7.88986163594682e+004,-1.87795224115102e+001,-1.51765339422560e+000

7.99999999999995e+004,-1.87795690761945e+001,-1.53881982303414e+000

8.11167583832018e+004,-1.87796170371355e+001,-1.56028091835651e+000

8.22491061324848e+004,-1.87796663298969e+001,-1.58204076010861e+000

8.33972608672892e+004,-1.87797169909930e+001,-1.60410348379020e+000

8.45614432449099e+004,-1.87797690579129e+001,-1.62647328120746e+000

8.57418770029029e+004,-1.87798225691456e+001,-1.64915440120073e+000

8.69387890020841e+004,-1.87798775642043e+001,-1.67215115038469e+000

8.81524092701283e+004,-1.87799340836526e+001,-1.69546789389158e+000

8.93829710457770e+004,-1.87799921691308e+001,-1.71910905612605e+000

9.06307108236633e+004,-1.87800518633824e+001,-1.74307912152648e+000

9.18958683997622e+004,-1.87801132102810e+001,-1.76738263533654e+000

9.31786869174758e+004,-1.87801762548595e+001,-1.79202420438089e+000

9.44794129143618e+004,-1.87802410433371e+001,-1.81700849785519e+000

9.57982963695136e+004,-1.87803076231496e+001,-1.84234024811783e+000

9.71355907516031e+004,-1.87803760429782e+001,-1.86802425149584e+000

9.84915530675926e+004,-1.87804463527802e+001,-1.89406536909468e+000

9.98664439121282e+004,-1.87805186038197e+001,-1.92046852761919e+000

1.01260527517622e+005,-1.87805928486994e+001,-1.94723872020201e+000

1.02674071805032e+005,-1.87806691413919e+001,-1.97438100724047e+000

1.04107348435354e+005,-1.87807475372733e+001,-2.00190051724214e+000

1.05560632861831e+005,-1.87808280931560e+001,-2.02980244767778e+000

1.07034204382888e+005,-1.87809108673224e+001,-2.05809206584561e+000

1.08528346195813e+005,-1.87809959195600e+001,-2.08677470974053e+000

1.10043345451179e+005,-1.87810833111961e+001,-2.11585578893498e+000

1.11579493308032e+005,-1.87811731051339e+001,-2.14534078546569e+000

1.13137084989847e+005,-1.87812653658885e+001,-2.17523525473192e+000

1.14716419841265e+005,-1.87813601596243e+001,-2.20554482640030e+000

1.16317801385624e+005,-1.87814575541924e+001,-2.23627520531805e+000

1.17941537383287e+005,-1.87815576191686e+001,-2.26743217243687e+000

1.19587939890794e+005,-1.87816604258930e+001,-2.29902158574344e+000

1.21257325320831e+005,-1.87817660475084e+001,-2.33104938120044e+000

1.22950014503040e+005,-1.87818745590013e+001,-2.36352157369372e+000

1.24666332745679e+005,-1.87819860372419e+001,-2.39644425799242e+000

1.26406609898139e+005,-1.87821005610256e+001,-2.42982360971212e+000

1.28171180414339e+005,-1.87822182111147e+001,-2.46366588629253e+000

1.29960383416997e+005,-1.87823390702806e+001,-2.49797742798062e+000

1.31774562762811e+005,-1.87824632233471e+001,-2.53276465882289e+000

1.33614067108538e+005,-1.87825907572334e+001,-2.56803408766740e+000

1.35479249978003e+005,-1.87827217609982e+001,-2.60379230917477e+000

1.37370469830040e+005,-1.87828563258844e+001,-2.64004600483667e+000

1.39288090127379e+005,-1.87829945453635e+001,-2.67680194400570e+000

1.41232479406504e+005,-1.87831365151818e+001,-2.71406698493194e+000

1.43204011348474e+005,-1.87832823334056e+001,-2.75184807580923e+000

1.45203064850745e+005,-1.87834321004676e+001,-2.79015225583298e+000

1.47230024099979e+005,-1.87835859192139e+001,-2.82898665626266e+000

1.49285278645888e+005,-1.87837438949510e+001,-2.86835850149811e+000

1.51369223476094e+005,-1.87839061354929e+001,-2.90827511016176e+000

1.53482259092041e+005,-1.87840727512092e+001,-2.94874389619330e+000

1.55624791585964e+005,-1.87842438550730e+001,-2.98977236995096e+000

1.57797232718936e+005,-1.87844195627090e+001,-3.03136813932491e+000

1.59999999999999e+005,-1.87845999924425e+001,-3.07353891085912e+000

1.62233516766403e+005,-1.87847852653474e+001,-3.11629249088377e+000

1.64498212264969e+005,-1.87849755052957e+001,-3.15963678665685e+000

1.66794521734578e+005,-1.87851708390059e+001,-3.20357980751796e+000

1.69122886489819e+005,-1.87853713960923e+001,-3.24812966604982e+000

1.71483754005805e+005,-1.87855773091136e+001,-3.29329457925375e+000

1.73877578004168e+005,-1.87857887136226e+001,-3.33908286973219e+000

1.76304818540256e+005,-1.87860057482142e+001,-3.38550296688637e+000

1.78765942091554e+005,-1.87862285545748e+001,-3.43256340812206e+000

1.81261421647326e+005,-1.87864572775303e+001,-3.48027284006930e+000

1.83791736799524e+005,-1.87866920650949e+001,-3.52864001981262e+000

1.86357373834951e+005,-1.87869330685187e+001,-3.57767381613514e+000

1.88958825828723e+005,-1.87871804423355e+001,-3.62738321077325e+000

1.91596592739027e+005,-1.87874343444102e+001,-3.67777729968738e+000

1.94271181503206e+005,-1.87876949359852e+001,-3.72886529434367e+000

1.96983106135185e+005,-1.87879623817266e+001,-3.78065652301120e+000

1.99732887824256e+005,-1.87882368497701e+001,-3.83316043207361e+000

2.02521055035243e+005,-1.87885185117657e+001,-3.88638658735590e+000

2.05348143610063e+005,-1.87888075429219e+001,-3.94034467546594e+000

2.08214696870707e+005,-1.87891041220488e+001,-3.99504450515520e+000

2.11121265723661e+005,-1.87894084316013e+001,-4.05049600869243e+000

2.14068408765776e+005,-1.87897206577199e+001,-4.10670924325935e+000

2.17056692391625e+005,-1.87900409902718e+001,-4.16369439236195e+000

2.20086690902357e+005,-1.87903696228902e+001,-4.22146176726283e+000

2.23158986616063e+005,-1.87907067530124e+001,-4.28002180843335e+000

2.26274169979693e+005,-1.87910525819179e+001,-4.33938508702678e+000

2.29432839682530e+005,-1.87914073147632e+001,-4.39956230637485e+000

2.32635602771247e+005,-1.87917711606173e+001,-4.46056430350632e+000

2.35883074766574e+005,-1.87921443324948e+001,-4.52240205069071e+000

2.39175879781588e+005,-1.87925270473876e+001,-4.58508665700816e+000

2.42514650641661e+005,-1.87929195262956e+001,-4.64862936994520e+000

2.45900029006080e+005,-1.87933219942554e+001,-4.71304157701980e+000

2.49332665491357e+005,-1.87937346803682e+001,-4.77833480743470e+000

2.52813219796278e+005,-1.87941578178253e+001,-4.84452073376407e+000

2.56342360828676e+005,-1.87945916439326e+001,-4.91161117367069e+000

2.59920766833993e+005,-1.87950364001333e+001,-4.97961809165773e+000

2.63549125525621e+005,-1.87954923320294e+001,-5.04855360085768e+000

2.67228134217075e+005,-1.87959596894010e+001,-5.11842996485781e+000

2.70958499956006e+005,-1.87964387262243e+001,-5.18925959956504e+000

2.74740939660078e+005,-1.87969297006885e+001,-5.26105507511248e+000

2.78576180254757e+005,-1.87974328752107e+001,-5.33382911780927e+000

2.82464958813007e+005,-1.87979485164495e+001,-5.40759461213548e+000

2.86408022696948e+005,-1.87984768953174e+001,-5.48236460278368e+000

2.90406129701488e+005,-1.87990182869918e+001,-5.55815229675181e+000

2.94460048199957e+005,-1.87995729709249e+001,-5.63497106548546e+000

2.98570557291775e+005,-1.88001412308528e+001,-5.71283444707504e+000

3.02738446952187e+005,-1.88007233548029e+001,-5.79175614850970e+000

3.06964518184081e+005,-1.88013196351019e+001,-5.87175004798819e+000

3.11249583171928e+005,-1.88019303683821e+001,-5.95283019729206e+000

3.15594465437872e+005,-1.88025558555877e+001,-6.03501082422084e+000

3.19999999999997e+005,-1.88031964019817e+001,-6.11830633509398e+000

3.24467033532806e+005,-1.88038523171518e+001,-6.20273131731993e+000

3.28996424529938e+005,-1.88045239150175e+001,-6.28830054203615e+000

3.33589043469155e+005,-1.88052115138381e+001,-6.37502896682207e+000

3.38245772979638e+005,-1.88059154362212e+001,-6.46293173848748e+000

3.42967508011610e+005,-1.88066360091332e+001,-6.55202419593847e+000

3.47755156008335e+005,-1.88073735639114e+001,-6.64232187312374e+000

3.52609637080511e+005,-1.88081284362785e+001,-6.73384050206293e+000

3.57531884183106e+005,-1.88089009663600e+001,-6.82659601596058e+000

3.62522843294651e+005,-1.88096914987043e+001,-6.92060455240594e+000

3.67583473599047e+005,-1.88105003823077e+001,-7.01588245666230e+000

3.72714747669902e+005,-1.88113279706425e+001,-7.11244628504674e+000

3.77917651657445e+005,-1.88121746216909e+001,-7.21031280840385e+000

3.83193185478053e+005,-1.88130406979839e+001,-7.30949901567230e+000

3.88542363006410e+005,-1.88139265666472e+001,-7.41002211754882e+000

3.93966212270369e+005,-1.88148325994529e+001,-7.51189955024873e+000

3.99465775648511e+005,-1.88157591728797e+001,-7.61514897936554e+000

4.05042110070485e+005,-1.88167066681814e+001,-7.71978830382963e+000

4.10696287220124e+005,-1.88176754714639e+001,-7.82583565996791e+000

4.16429393741414e+005,-1.88186659737729e+001,-7.93330942566370e+000

4.22242531447321e+005,-1.88196785711917e+001,-8.04222822461741e+000

4.28136817531551e+005,-1.88207136649515e+001,-8.15261093070871e+000

4.34113384783250e+005,-1.88217716615533e+001,-8.26447667245877e+000

4.40173381804713e+005,-1.88228529729038e+001,-8.37784483759275e+000

4.46317973232124e+005,-1.88239580164652e+001,-8.49273507770006e+000

4.52548339959385e+005,-1.88250872154206e+001,-8.60916731299353e+000

4.58865679365059e+005,-1.88262409988554e+001,-8.72716173716277e+000

4.65271205542494e+005,-1.88274198019559e+001,-8.84673882232188e+000

4.71766149533147e+005,-1.88286240662258e+001,-8.96791932404749e+000

4.78351759563174e+005,-1.88298542397217e+001,-9.09072428650473e+000

4.85029301283321e+005,-1.88311107773089e+001,-9.21517504765900e+000

4.91800058012158e+005,-1.88323941409378e+001,-9.34129324456658e+000

4.98665330982714e+005,-1.88337047999419e+001,-9.46910081874339e+000

5.05626439592555e+005,-1.88350432313591e+001,-9.59862002160508e+000

5.12684721657352e+005,-1.88364099202762e+001,-9.72987341997398e+000

5.19841533667984e+005,-1.88378053601975e+001,-9.86288390164785e+000

5.27098251051240e+005,-1.88392300534396e+001,-9.99767468102332e+000

5.34456268434150e+005,-1.88406845115512e+001,-1.01342693047694e+001

5.41916999912011e+005,-1.88421692557609e+001,-1.02726916575432e+001

