Freq.,VOut,OutRef

1.00000000000000e+004,-1.64335591236713e+001,-1.62812076343469e-001

1.01395947979003e+004,-1.64335597286874e+001,-1.65084808880782e-001

1.02811382665607e+004,-1.64335603507084e+001,-1.67389265911596e-001

1.04246576084112e+004,-1.64335609902124e+001,-1.69725890221781e-001

1.05701804056138e+004,-1.64335616476904e+001,-1.72095130776711e-001

1.07177346253629e+004,-1.64335623236478e+001,-1.74497442803784e-001

1.08673486252606e+004,-1.64335630186034e+001,-1.76933287885248e-001

1.10190511587661e+004,-1.64335637330913e+001,-1.79403134039752e-001

1.11728713807222e+004,-1.64335644676604e+001,-1.81907455817041e-001

1.13288388529580e+004,-1.64335652228747e+001,-1.84446734388905e-001

1.14869835499703e+004,-1.64335659993143e+001,-1.87021457638576e-001

1.16473358646846e+004,-1.64335667975756e+001,-1.89632120256606e-001

1.18099266142953e+004,-1.64335676182717e+001,-1.92279223834903e-001

1.19747870461893e+004,-1.64335684620328e+001,-1.94963276962740e-001

1.21419488439505e+004,-1.64335693295071e+001,-1.97684795324208e-001

1.23114441334492e+004,-1.64335702213604e+001,-2.00444301799132e-001

1.24833054890161e+004,-1.64335711382782e+001,-2.03242326557486e-001

1.26575659397028e+004,-1.64335720809641e+001,-2.06079407170073e-001

1.28342589756290e+004,-1.64335730501421e+001,-2.08956088702934e-001

1.30134185544193e+004,-1.64335740465567e+001,-2.11872923825841e-001

1.31950791077289e+004,-1.64335750709727e+001,-2.14830472918727e-001

1.33792755478611e+004,-1.64335761241766e+001,-2.17829304178940e-001

1.35660432744767e+004,-1.64335772069774e+001,-2.20869993725940e-001

1.37554181813974e+004,-1.64335783202061e+001,-2.23953125717701e-001

1.39474366635040e+004,-1.64335794647176e+001,-2.27079292458783e-001

1.41421356237309e+004,-1.64335806413904e+001,-2.30249094514684e-001

1.43395524801583e+004,-1.64335818511279e+001,-2.33463140828021e-001

1.45397251732031e+004,-1.64335830948587e+001,-2.36722048832697e-001

1.47426921729110e+004,-1.64335843735376e+001,-2.40026444573859e-001

1.49484924863494e+004,-1.64335856881461e+001,-2.43376962828676e-001

1.51571656651040e+004,-1.64335870396930e+001,-2.46774247225521e-001

1.53687518128801e+004,-1.64335884292159e+001,-2.50218950367809e-001

1.55832915932100e+004,-1.64335898577812e+001,-2.53711733959700e-001

1.58008262372675e+004,-1.64335913264852e+001,-2.57253268933375e-001

1.60213975517924e+004,-1.64335928364549e+001,-2.60844235575686e-001

1.62450479271247e+004,-1.64335943888492e+001,-2.64485323657585e-001

1.64718203453514e+004,-1.64335959848592e+001,-2.68177232570479e-001

1.67017583885674e+004,-1.64335976257096e+001,-2.71920671454981e-001

1.69349062472505e+004,-1.64335993126592e+001,-2.75716359338728e-001

1.71713087287550e+004,-1.64336010470023e+001,-2.79565025274457e-001

1.74110112659224e+004,-1.64336028300694e+001,-2.83467408478591e-001

1.76540599258131e+004,-1.64336046632284e+001,-2.87424258471565e-001

1.79005014185594e+004,-1.64336065478855e+001,-2.91436335223351e-001

1.81503831063432e+004,-1.64336084854862e+001,-2.95504409297266e-001

1.84037530124975e+004,-1.64336104775166e+001,-2.99629261996739e-001

1.86606598307361e+004,-1.64336125255045e+001,-3.03811685516539e-001

1.89211529345119e+004,-1.64336146310203e+001,-3.08052483092229e-001

1.91852823865052e+004,-1.64336167956786e+001,-3.12352469154025e-001

1.94530989482457e+004,-1.64336190211394e+001,-3.16712469481796e-001

1.97246540898671e+004,-1.64336213091087e+001,-3.21133321364852e-001

1.99999999999999e+004,-1.64336236613407e+001,-3.25615873759683e-001

2.02791895958005e+004,-1.64336260796387e+001,-3.30160987452180e-001

2.05622765331213e+004,-1.64336285658563e+001,-3.34769535222558e-001

2.08493152168224e+004,-1.64336311218991e+001,-3.39442402012207e-001

2.11403608112276e+004,-1.64336337497260e+001,-3.44180485091355e-001

2.14354692507258e+004,-1.64336364513510e+001,-3.48984694230042e-001

2.17346972505211e+004,-1.64336392288440e+001,-3.53855951873454e-001

2.20381023175322e+004,-1.64336420843333e+001,-3.58795193315474e-001

2.23457427614443e+004,-1.64336450200065e+001,-3.63803366878592e-001

2.26576777059159e+004,-1.64336480381125e+001,-3.68881434092913e-001

2.29739670999406e+004,-1.64336511409631e+001,-3.74030369881967e-001

2.32946717293690e+004,-1.64336543309347e+001,-3.79251162744894e-001

2.36198532285905e+004,-1.64336576104703e+001,-3.84544814947615e-001

2.39495740923785e+004,-1.64336609820811e+001,-3.89912342711877e-001

2.42838976879009e+004,-1.64336644483486e+001,-3.95354776408572e-001

2.46228882668982e+004,-1.64336680119264e+001,-4.00873160755403e-001

2.49666109780322e+004,-1.64336716755424e+001,-4.06468555013817e-001

2.53151318794055e+004,-1.64336754420005e+001,-4.12142033190691e-001

2.56685179512580e+004,-1.64336793141832e+001,-4.17894684243110e-001

2.60268371088386e+004,-1.64336832950535e+001,-4.23727612283872e-001

2.63901582154578e+004,-1.64336873876569e+001,-4.29641936794607e-001

2.67585510957221e+004,-1.64336915951244e+001,-4.35638792832068e-001

2.71320865489533e+004,-1.64336959206739e+001,-4.41719331251722e-001

2.75108363627948e+004,-1.64337003676137e+001,-4.47884718918015e-001

2.78948733270080e+004,-1.64337049393439e+001,-4.54136138931999e-001

2.82842712474618e+004,-1.64337096393599e+001,-4.60474790851185e-001

2.86791049603164e+004,-1.64337144712545e+001,-4.66901890919832e-001

2.90794503464061e+004,-1.64337194387206e+001,-4.73418672298449e-001

2.94853843458219e+004,-1.64337245455543e+001,-4.80026385295502e-001

2.98969849726987e+004,-1.64337297956573e+001,-4.86726297608427e-001

3.03143313302078e+004,-1.64337351930404e+001,-4.93519694558368e-001

3.07375036257601e+004,-1.64337407418256e+001,-5.00407879337751e-001

3.11665831864199e+004,-1.64337464462505e+001,-5.07392173252341e-001

3.16016524745350e+004,-1.64337523106702e+001,-5.14473915975370e-001

3.20427951035848e+004,-1.64337583395612e+001,-5.21654465796553e-001

3.24900958542493e+004,-1.64337645375248e+001,-5.28935199882081e-001

3.29436406907028e+004,-1.64337709092900e+001,-5.36317514531933e-001

3.34035167771346e+004,-1.64337774597179e+001,-5.43802825442953e-001

3.38698124945009e+004,-1.64337841938044e+001,-5.51392567978911e-001

3.43426174575100e+004,-1.64337911166845e+001,-5.59088197436548e-001

3.48220225318448e+004,-1.64337982336360e+001,-5.66891189324029e-001

3.53081198516260e+004,-1.64338055500832e+001,-5.74803039634155e-001

3.58010028371187e+004,-1.64338130716012e+001,-5.82825265129382e-001

3.63007662126863e+004,-1.64338208039200e+001,-5.90959403625361e-001

3.68075060249948e+004,-1.64338287529285e+001,-5.99207014279111e-001

3.73213196614721e+004,-1.64338369246795e+001,-6.07569677882734e-001

3.78423058690237e+004,-1.64338453253930e+001,-6.16048997160022e-001

3.83705647730104e+004,-1.64338539614621e+001,-6.24646597067082e-001

3.89061978964912e+004,-1.64338628394568e+001,-6.33364125094946e-001

3.94493081797342e+004,-1.64338719661294e+001,-6.42203251580500e-001

3.99999999999998e+004,-1.64338813484191e+001,-6.51165670017590e-001

4.05583791916010e+004,-1.64338909934572e+001,-6.60253097373218e-001

4.11245530662425e+004,-1.64339009085726e+001,-6.69467274409495e-001

4.16986304336447e+004,-1.64339111012965e+001,-6.78809966008149e-001

4.22807216224550e+004,-1.64339215793687e+001,-6.88282961498838e-001

4.28709385014515e+004,-1.64339323507430e+001,-6.97888074993384e-001

4.34693945010421e+004,-1.64339434235927e+001,-7.07627145723368e-001

4.40762046350642e+004,-1.64339548063168e+001,-7.17502038381742e-001

4.46914855228886e+004,-1.64339665075461e+001,-7.27514643471528e-001

4.53153554118317e+004,-1.64339785361497e+001,-7.37666877652823e-001

4.59479341998812e+004,-1.64339909012409e+001,-7.47960684102666e-001

4.65893434587380e+004,-1.64340036121841e+001,-7.58398032872377e-001

4.72397064571810e+004,-1.64340166786019e+001,-7.68980921253343e-001

4.78991481847569e+004,-1.64340301103812e+001,-7.79711374146270e-001

4.85677953758016e+004,-1.64340439176814e+001,-7.90591444434564e-001

4.92457765337964e+004,-1.64340581109409e+001,-8.01623213364830e-001

4.99332219560642e+004,-1.64340727008846e+001,-8.12808790929809e-001

5.06302637588109e+004,-1.64340876985322e+001,-8.24150316255418e-001

5.13370359025159e+004,-1.64341031152056e+001,-8.35649957996234e-001

5.20536742176771e+004,-1.64341189625369e+001,-8.47309914733989e-001

5.27803164309155e+004,-1.64341352524771e+001,-8.59132415378565e-001

5.35171021914442e+004,-1.64341519973040e+001,-8.71119719579632e-001

5.42641730979066e+004,-1.64341692096319e+001,-8.83274118136691e-001

5.50216727255895e+004,-1.64341869024190e+001,-8.95597933421795e-001

5.57897466540159e+004,-1.64342050889782e+001,-9.08093519799466e-001

5.65685424949235e+004,-1.64342237829851e+001,-9.20763264058545e-001

5.73582099206328e+004,-1.64342429984884e+001,-9.33609585845968e-001

5.81589006928121e+004,-1.64342627499197e+001,-9.46634938104984e-001

5.89707686916437e+004,-1.64342830521030e+001,-9.59841807522508e-001

5.97939699453972e+004,-1.64343039202655e+001,-9.73232714977890e-001

6.06286626604156e+004,-1.64343253700482e+001,-9.86810216000700e-001

6.14750072515201e+004,-1.64343474175166e+001,-1.00057690122985e+000

6.23331663728396e+004,-1.64343700791714e+001,-1.01453539688259e+000

6.32033049490698e+004,-1.64343933719607e+001,-1.02868836522678e+000

6.40855902071694e+004,-1.64344173132906e+001,-1.04303850505877e+000

6.49801917084985e+004,-1.64344419210382e+001,-1.05758855218699e+000

6.58872813814055e+004,-1.64344672135628e+001,-1.07234127992264e+000

6.68070335542691e+004,-1.64344932097186e+001,-1.08729949957563e+000

6.77396249890018e+004,-1.64345199288680e+001,-1.10246606095363e+000

6.86852349150199e+004,-1.64345473908939e+001,-1.11784385287178e+000

6.96440450636895e+004,-1.64345756162135e+001,-1.13343580366400e+000

7.06162397032520e+004,-1.64346046257917e+001,-1.14924488170286e+000

7.16020056742374e+004,-1.64346344411551e+001,-1.16527409592335e+000

7.26015324253724e+004,-1.64346650844064e+001,-1.18152649635633e+000

7.36150120499896e+004,-1.64346965782387e+001,-1.19800517466248e+000

7.46426393229441e+004,-1.64347289459507e+001,-1.21471326467733e+000

7.56846117380472e+004,-1.64347622114616e+001,-1.23165394295963e+000

7.67411295460207e+004,-1.64347963993269e+001,-1.24883042934678e+000

7.78123957929823e+004,-1.64348315347544e+001,-1.26624598751629e+000

7.88986163594682e+004,-1.64348676436200e+001,-1.28390392555412e+000

7.99999999999995e+004,-1.64349047524844e+001,-1.30180759652680e+000

8.11167583832018e+004,-1.64349428886103e+001,-1.31996039906431e+000

8.22491061324848e+004,-1.64349820799794e+001,-1.33836577794352e+000

8.33972608672892e+004,-1.64350223553101e+001,-1.35702722468263e+000

8.45614432449099e+004,-1.64350637440753e+001,-1.37594827814114e+000

8.57418770029029e+004,-1.64351062765209e+001,-1.39513252512228e+000

8.69387890020841e+004,-1.64351499836846e+001,-1.41458360098817e+000

8.81524092701283e+004,-1.64351948974144e+001,-1.43430519027595e+000

8.93829710457770e+004,-1.64352410503888e+001,-1.45430102732256e+000

9.06307108236633e+004,-1.64352884761357e+001,-1.47457489689698e+000

9.18958683997622e+004,-1.64353372090535e+001,-1.49513063483647e+000

9.31786869174758e+004,-1.64353872844305e+001,-1.51597212869081e+000

9.44794129143618e+004,-1.64354387384668e+001,-1.53710331837357e+000

9.57982963695136e+004,-1.64354916082950e+001,-1.55852819681782e+000

9.71355907516031e+004,-1.64355459320016e+001,-1.58025081064006e+000

9.84915530675926e+004,-1.64356017486494e+001,-1.60227526081095e+000

9.98664439121282e+004,-1.64356590982997e+001,-1.62460570333028e+000

1.01260527517622e+005,-1.64357180220351e+001,-1.64724634991050e+000

1.02674071805032e+005,-1.64357785619820e+001,-1.67020146866659e+000

1.04107348435354e+005,-1.64358407613347e+001,-1.69347538481205e+000

1.05560632861831e+005,-1.64359046643784e+001,-1.71707248136060e+000

1.07034204382888e+005,-1.64359703165142e+001,-1.74099719983606e+000

1.08528346195813e+005,-1.64360377642824e+001,-1.76525404098718e+000

1.10043345451179e+005,-1.64361070553884e+001,-1.78984756551036e+000

1.11579493308032e+005,-1.64361782387265e+001,-1.81478239477890e+000

1.13137084989847e+005,-1.64362513644067e+001,-1.84006321157574e+000

1.14716419841265e+005,-1.64363264837788e+001,-1.86569476083815e+000

1.16317801385624e+005,-1.64364036494596e+001,-1.89168185040338e+000

1.17941537383287e+005,-1.64364829153587e+001,-1.91802935176547e+000

1.19587939890794e+005,-1.64365643367046e+001,-1.94474220083500e+000

1.21257325320831e+005,-1.64366479700721e+001,-1.97182539870754e+000

1.22950014503040e+005,-1.64367338734087e+001,-1.99928401243750e+000

1.24666332745679e+005,-1.64368221060621e+001,-2.02712317581939e+000

1.26406609898139e+005,-1.64369127288075e+001,-2.05534809017469e+000

1.28171180414339e+005,-1.64370058038751e+001,-2.08396402514585e+000

1.29960383416997e+005,-1.64371013949777e+001,-2.11297631949698e+000

1.31774562762811e+005,-1.64371995673386e+001,-2.14239038192087e+000

1.33614067108538e+005,-1.64373003877197e+001,-2.17221169185041e+000

1.35479249978003e+005,-1.64374039244490e+001,-2.20244580028235e+000

1.37370469830040e+005,-1.64375102474492e+001,-2.23309833060027e+000

1.39288090127379e+005,-1.64376194282651e+001,-2.26417497941036e+000

1.41232479406504e+005,-1.64377315400924e+001,-2.29568151737980e+000

1.43204011348474e+005,-1.64378466578050e+001,-2.32762379008431e+000

1.45203064850745e+005,-1.64379648579831e+001,-2.36000771886071e+000

1.47230024099979e+005,-1.64380862189409e+001,-2.39283930166753e+000

1.49285278645888e+005,-1.64382108207544e+001,-2.42612461395195e+000

1.51369223476094e+005,-1.64383387452883e+001,-2.45986980952333e+000

1.53482259092041e+005,-1.64384700762234e+001,-2.49408112143442e+000

1.55624791585964e+005,-1.64386048990834e+001,-2.52876486286888e+000

1.57797232718936e+005,-1.64387433012609e+001,-2.56392742803729e+000

1.59999999999999e+005,-1.64388853720440e+001,-2.59957529307825e+000

1.62233516766403e+005,-1.64390312026411e+001,-2.63571501696977e+000

1.64498212264969e+005,-1.64391808862065e+001,-2.67235324244614e+000

1.66794521734578e+005,-1.64393345178646e+001,-2.70949669692247e+000

1.69122886489819e+005,-1.64394921947331e+001,-2.74715219342946e+000

1.71483754005805e+005,-1.64396540159469e+001,-2.78532663155364e+000

1.73877578004168e+005,-1.64398200826798e+001,-2.82402699838749e+000

1.76304818540256e+005,-1.64399904981656e+001,-2.86326036948805e+000

1.78765942091554e+005,-1.64401653677192e+001,-2.90303390984419e+000

1.81261421647326e+005,-1.64403447987555e+001,-2.94335487485293e+000

1.83791736799524e+005,-1.64405289008078e+001,-2.98423061130578e+000

1.86357373834951e+005,-1.64407177855449e+001,-3.02566855838541e+000

1.88958825828723e+005,-1.64409115667874e+001,-3.06767624867061e+000

1.91596592739027e+005,-1.64411103605216e+001,-3.11026130915472e+000

1.94271181503206e+005,-1.64413142849130e+001,-3.15343146227356e+000

1.96983106135185e+005,-1.64415234603180e+001,-3.19719452694529e+000

1.99732887824256e+005,-1.64417380092935e+001,-3.24155841962305e+000

2.02521055035243e+005,-1.64419580566056e+001,-3.28653115535970e+000

2.05348143610063e+005,-1.64421837292361e+001,-3.33212084888723e+000

2.08214696870707e+005,-1.64424151563865e+001,-3.37833571570921e+000

2.11121265723661e+005,-1.64426524694815e+001,-3.42518407320842e+000

2.14068408765776e+005,-1.64428958021692e+001,-3.47267434177074e+000

2.17056692391625e+005,-1.64431452903189e+001,-3.52081504592505e+000

2.20086690902357e+005,-1.64434010720184e+001,-3.56961481550000e+000

2.23158986616063e+005,-1.64436632875666e+001,-3.61908238680115e+000

2.26274169979693e+005,-1.64439320794656e+001,-3.66922660380526e+000

2.29432839682530e+005,-1.64442075924088e+001,-3.72005641937585e+000

2.32635602771247e+005,-1.64444899732674e+001,-3.77158089650136e+000

2.35883074766574e+005,-1.64447793710736e+001,-3.82380920955462e+000

2.39175879781588e+005,-1.64450759370012e+001,-3.87675064557719e+000

2.42514650641661e+005,-1.64453798243431e+001,-3.93041460558965e+000

2.45900029006080e+005,-1.64456911884860e+001,-3.98481060592755e+000

2.49332665491357e+005,-1.64460101868820e+001,-4.03994827960668e+000

2.52813219796278e+005,-1.64463369790172e+001,-4.09583737771841e+000

2.56342360828676e+005,-1.64466717263767e+001,-4.15248777085573e+000

2.59920766833993e+005,-1.64470145924072e+001,-4.20990945057308e+000

2.63549125525621e+005,-1.64473657424751e+001,-4.26811253088218e+000

2.67228134217075e+005,-1.64477253438226e+001,-4.32710724978386e+000

2.70958499956006e+005,-1.64480935655197e+001,-4.38690397083825e+000

2.74740939660078e+005,-1.64484705784128e+001,-4.44751318477826e+000

2.78576180254757e+005,-1.64488565550706e+001,-4.50894551116378e+000

2.82464958813007e+005,-1.64492516697258e+001,-4.57121170008248e+000

2.86408022696948e+005,-1.64496560982143e+001,-4.63432263389844e+000

2.90406129701488e+005,-1.64500700179107e+001,-4.69828932904894e+000

2.94460048199957e+005,-1.64504936076605e+001,-4.76312293789646e+000

2.98570557291775e+005,-1.64509270477096e+001,-4.82883475063184e+000

3.02738446952187e+005,-1.64513705196305e+001,-4.89543619723838e+000

3.06964518184081e+005,-1.64518242062456e+001,-4.96293884951272e+000

3.11249583171928e+005,-1.64522882915476e+001,-5.03135442314988e+000

3.15594465437872e+005,-1.64527629606176e+001,-5.10069477989330e+000

3.19999999999997e+005,-1.64532483995409e+001,-5.17097192975165e+000

3.24467033532806e+005,-1.64537447953195e+001,-5.24219803328780e+000

3.28996424529938e+005,-1.64542523357842e+001,-5.31438540397916e+000

3.33589043469155e+005,-1.64547712095038e+001,-5.38754651065625e+000

3.38245772979638e+005,-1.64553016056934e+001,-5.46169398001730e+000

3.42967508011610e+005,-1.64558437141213e+001,-5.53684059922730e+000

3.47755156008335e+005,-1.64563977250152e+001,-5.61299931859926e+000

3.52609637080511e+005,-1.64569638289686e+001,-5.69018325436294e+000

3.57531884183106e+005,-1.64575422168458e+001,-5.76840569152336e+000

3.62522843294651e+005,-1.64581330796893e+001,-5.84768008681057e+000

3.67583473599047e+005,-1.64587366086261e+001,-5.92802007172582e+000

3.72714747669902e+005,-1.64593529947772e+001,-6.00943945568240e+000

3.77917651657445e+005,-1.64599824291679e+001,-6.09195222924705e+000

3.83193185478053e+005,-1.64606251026411e+001,-6.17557256748286e+000

3.88542363006410e+005,-1.64612812057739e+001,-6.26031483339508e+000

3.93966212270369e+005,-1.64619509287974e+001,-6.34619358148205e+000

3.99465775648511e+005,-1.64626344615217e+001,-6.43322356139409e+000

4.05042110070485e+005,-1.64633319932655e+001,-6.52141972169926e+000

4.10696287220124e+005,-1.64640437127916e+001,-6.61079721376015e+000

4.16429393741414e+005,-1.64647698082490e+001,-6.70137139572036e+000

4.22242531447321e+005,-1.64655104671229e+001,-6.79315783660316e+000

4.28136817531551e+005,-1.64662658761920e+001,-6.88617232052139e+000

4.34113384783250e+005,-1.64670362214955e+001,-6.98043085100031e+000

4.40173381804713e+005,-1.64678216883096e+001,-7.07594965541156e+000

4.46317973232124e+005,-1.64686224611347e+001,-7.17274518951930e+000

4.52548339959385e+005,-1.64694387236941e+001,-7.27083414213758e+000

4.58865679365059e+005,-1.64702706589455e+001,-7.37023343989650e+000

4.65271205542494e+005,-1.64711184491054e+001,-7.47096025211759e+000

4.71766149533147e+005,-1.64719822756876e+001,-7.57303199579512e+000

4.78351759563174e+005,-1.64728623195577e+001,-7.67646634068201e+000

4.85029301283321e+005,-1.64737587610021e+001,-7.78128121447705e+000

4.91800058012158e+005,-1.64746717798153e+001,-7.88749480811124e+000

4.98665330982714e+005,-1.64756015554039e+001,-7.99512558112877e+000

5.05626439592555e+005,-1.64765482669096e+001,-8.10419226715971e+000

5.12684721657352e+005,-1.64775120933517e+001,-8.21471387947996e+000

5.19841533667984e+005,-1.64784932137894e+001,-8.32670971665405e+000

5.27098251051240e+005,-1.64794918075050e+001,-8.44019936825485e+000

5.34456268434150e+005,-1.64805080542091e+001,-8.55520272065603e+000

5.41916999912011e+005,-1.64815421342682e+001,-8.67173996289082e+000

