Freq.,VOut,OutRef

1.00000000000000e+004,-1.68390169729375e+001,-2.20149955298141e-001

1.01395947979003e+004,-1.68390176209351e+001,-2.23223103358262e-001

1.02811382665607e+004,-1.68390182871474e+001,-2.26339149659262e-001

1.04246576084112e+004,-1.68390189720861e+001,-2.29498692982772e-001

1.05701804056138e+004,-1.68390196762776e+001,-2.32702340466836e-001

1.07177346253629e+004,-1.68390204002627e+001,-2.35950707722954e-001

1.08673486252606e+004,-1.68390211445980e+001,-2.39244418951358e-001

1.10190511587661e+004,-1.68390219098554e+001,-2.42584107065621e-001

1.11728713807222e+004,-1.68390226966225e+001,-2.45970413811749e-001

1.13288388529580e+004,-1.68390235055041e+001,-2.49403989889333e-001

1.14869835499703e+004,-1.68390243371217e+001,-2.52885495078660e-001

1.16473358646846e+004,-1.68390251921138e+001,-2.56415598370345e-001

1.18099266142953e+004,-1.68390260711377e+001,-2.59994978085262e-001

1.19747870461893e+004,-1.68390269748685e+001,-2.63624322014346e-001

1.21419488439505e+004,-1.68390279040006e+001,-2.67304327542735e-001

1.23114441334492e+004,-1.68390288592477e+001,-2.71035701790321e-001

1.24833054890161e+004,-1.68390298413435e+001,-2.74819161741824e-001

1.26575659397028e+004,-1.68390308510427e+001,-2.78655434386536e-001

1.28342589756290e+004,-1.68390318891207e+001,-2.82545256859552e-001

1.30134185544193e+004,-1.68390329563750e+001,-2.86489376580701e-001

1.31950791077289e+004,-1.68390340536254e+001,-2.90488551397804e-001

1.33792755478611e+004,-1.68390351817147e+001,-2.94543549735551e-001

1.35660432744767e+004,-1.68390363415094e+001,-2.98655150737865e-001

1.37554181813974e+004,-1.68390375339002e+001,-3.02824144422250e-001

1.39474366635040e+004,-1.68390387598032e+001,-3.07051331826591e-001

1.41421356237309e+004,-1.68390400201597e+001,-3.11337525166788e-001

1.43395524801583e+004,-1.68390413159378e+001,-3.15683547991195e-001

1.45397251732031e+004,-1.68390426481326e+001,-3.20090235337696e-001

1.47426921729110e+004,-1.68390440177671e+001,-3.24558433895087e-001

1.49484924863494e+004,-1.68390454258934e+001,-3.29089002163023e-001

1.51571656651040e+004,-1.68390468735927e+001,-3.33682810620154e-001

1.53687518128801e+004,-1.68390483619766e+001,-3.38340741890382e-001

1.55832915932100e+004,-1.68390498921881e+001,-3.43063690907818e-001

1.58008262372675e+004,-1.68390514654023e+001,-3.47852565094782e-001

1.60213975517924e+004,-1.68390530828270e+001,-3.52708284529789e-001

1.62450479271247e+004,-1.68390547457041e+001,-3.57631782129129e-001

1.64718203453514e+004,-1.68390564553104e+001,-3.62624003821580e-001

1.67017583885674e+004,-1.68390582129584e+001,-3.67685908731858e-001

1.69349062472505e+004,-1.68390600199975e+001,-3.72818469363490e-001

1.71713087287550e+004,-1.68390618778150e+001,-3.78022671786723e-001

1.74110112659224e+004,-1.68390637878370e+001,-3.83299515824682e-001

1.76540599258131e+004,-1.68390657515297e+001,-3.88650015248176e-001

1.79005014185594e+004,-1.68390677704006e+001,-3.94075197966847e-001

1.81503831063432e+004,-1.68390698459992e+001,-3.99576106228130e-001

1.84037530124975e+004,-1.68390719799185e+001,-4.05153796817445e-001

1.86606598307361e+004,-1.68390741737965e+001,-4.10809341257651e-001

1.89211529345119e+004,-1.68390764293168e+001,-4.16543826016706e-001

1.91852823865052e+004,-1.68390787482104e+001,-4.22358352714742e-001

1.94530989482457e+004,-1.68390811322567e+001,-4.28254038337181e-001

1.97246540898671e+004,-1.68390835832852e+001,-4.34232015444237e-001

1.99999999999999e+004,-1.68390861031764e+001,-4.40293432391886e-001

2.02791895958005e+004,-1.68390886938642e+001,-4.46439453547912e-001

2.05622765331213e+004,-1.68390913573358e+001,-4.52671259519550e-001

2.08493152168224e+004,-1.68390940956347e+001,-4.58990047375184e-001

2.11403608112276e+004,-1.68390969108617e+001,-4.65397030874554e-001

2.14354692507258e+004,-1.68390998051763e+001,-4.71893440701315e-001

2.17346972505211e+004,-1.68391027807984e+001,-4.78480524700547e-001

2.20381023175322e+004,-1.68391058400104e+001,-4.85159548112538e-001

2.23457427614443e+004,-1.68391089851588e+001,-4.91931793818428e-001

2.26576777059159e+004,-1.68391122186552e+001,-4.98798562586018e-001

2.29739670999406e+004,-1.68391155429795e+001,-5.05761173315186e-001

2.32946717293690e+004,-1.68391189606807e+001,-5.12820963292662e-001

2.36198532285905e+004,-1.68391224743792e+001,-5.19979288447433e-001

2.39495740923785e+004,-1.68391260867689e+001,-5.27237523608708e-001

2.42838976879009e+004,-1.68391298006191e+001,-5.34597062769078e-001

2.46228882668982e+004,-1.68391336187769e+001,-5.42059319350717e-001

2.49666109780322e+004,-1.68391375441686e+001,-5.49625726477059e-001

2.53151318794055e+004,-1.68391415798030e+001,-5.57297737243577e-001

2.56685179512580e+004,-1.68391457287728e+001,-5.65076824996727e-001

2.60268371088386e+004,-1.68391499942574e+001,-5.72964483616365e-001

2.63901582154578e+004,-1.68391543795250e+001,-5.80962227798487e-001

2.67585510957221e+004,-1.68391588879356e+001,-5.89071593346630e-001

2.71320865489533e+004,-1.68391635229431e+001,-5.97294137462699e-001

2.75108363627948e+004,-1.68391682880977e+001,-6.05631439046301e-001

2.78948733270080e+004,-1.68391731870494e+001,-6.14085098993733e-001

2.82842712474618e+004,-1.68391782235500e+001,-6.22656740504995e-001

2.86791049603164e+004,-1.68391834014564e+001,-6.31348009392156e-001

2.90794503464061e+004,-1.68391887247331e+001,-6.40160574393533e-001

2.94853843458219e+004,-1.68391941974560e+001,-6.49096127490520e-001

2.98969849726987e+004,-1.68391998238141e+001,-6.58156384233044e-001

3.03143313302078e+004,-1.68392056081142e+001,-6.67343084062584e-001

3.07375036257601e+004,-1.68392115547831e+001,-6.76657990644740e-001

3.11665831864199e+004,-1.68392176683715e+001,-6.86102892206514e-001

3.16016524745350e+004,-1.68392239535570e+001,-6.95679601874631e-001

3.20427951035848e+004,-1.68392304151481e+001,-7.05389958021342e-001

3.24900958542493e+004,-1.68392370580873e+001,-7.15235824614625e-001

3.29436406907028e+004,-1.68392438874554e+001,-7.25219091570967e-001

3.34035167771346e+004,-1.68392509084746e+001,-7.35341675116873e-001

3.38698124945009e+004,-1.68392581265135e+001,-7.45605518150507e-001

3.43426174575100e+004,-1.68392655470900e+001,-7.56012590613718e-001

3.48220225318448e+004,-1.68392731758760e+001,-7.66564889863502e-001

3.53081198516260e+004,-1.68392810187018e+001,-7.77264441053231e-001

3.58010028371187e+004,-1.68392890815600e+001,-7.88113297516208e-001

3.63007662126863e+004,-1.68392973706107e+001,-7.99113541153686e-001

3.68075060249948e+004,-1.68393058921853e+001,-8.10267282833417e-001

3.73213196614721e+004,-1.68393146527917e+001,-8.21576662786501e-001

3.78423058690237e+004,-1.68393236591193e+001,-8.33043851014836e-001

3.83705647730104e+004,-1.68393329180437e+001,-8.44671047701179e-001

3.89061978964912e+004,-1.68393424366320e+001,-8.56460483626897e-001

3.94493081797342e+004,-1.68393522221479e+001,-8.68414420592832e-001

3.99999999999998e+004,-1.68393622820572e+001,-8.80535151849637e-001

4.05583791916010e+004,-1.68393726240339e+001,-8.92825002527996e-001

4.11245530662425e+004,-1.68393832559648e+001,-9.05286330082750e-001

4.16986304336447e+004,-1.68393941859565e+001,-9.17921524733189e-001

4.22807216224550e+004,-1.68394054223405e+001,-9.30733009919827e-001

4.28709385014515e+004,-1.68394169736802e+001,-9.43723242757280e-001

4.34693945010421e+004,-1.68394288487768e+001,-9.56894714501646e-001

4.40762046350642e+004,-1.68394410566756e+001,-9.70249951018467e-001

4.46914855228886e+004,-1.68394536066735e+001,-9.83791513258395e-001

4.53153554118317e+004,-1.68394665083250e+001,-9.97521997741291e-001

4.59479341998812e+004,-1.68394797714497e+001,-1.01144403704503e+000

4.65893434587380e+004,-1.68394934061396e+001,-1.02556030029895e+000

4.72397064571810e+004,-1.68395074227666e+001,-1.03987349368840e+000

4.78991481847569e+004,-1.68395218319895e+001,-1.05438636096272e+000

4.85677953758016e+004,-1.68395366447626e+001,-1.06910168395018e+000

4.92457765337964e+004,-1.68395518723437e+001,-1.08402228308029e+000

4.99332219560642e+004,-1.68395675263018e+001,-1.09915101791373e+000

5.06302637588109e+004,-1.68395836185260e+001,-1.11449078767855e+000

5.13370359025159e+004,-1.68396001612341e+001,-1.13004453181309e+000

5.20536742176771e+004,-1.68396171669816e+001,-1.14581523051603e+000

5.27803164309155e+004,-1.68396346486707e+001,-1.16180590530548e+000

5.35171021914442e+004,-1.68396526195600e+001,-1.17801961958261e+000

5.42641730979066e+004,-1.68396710932738e+001,-1.19445947920516e+000

5.50216727255895e+004,-1.68396900838122e+001,-1.21112863306649e+000

5.57897466540159e+004,-1.68397096055612e+001,-1.22803027368344e+000

5.65685424949235e+004,-1.68397296733030e+001,-1.24516763779284e+000

5.73582099206328e+004,-1.68397503022273e+001,-1.26254400695128e+000

5.81589006928121e+004,-1.68397715079410e+001,-1.28016270815011e+000

5.89707686916437e+004,-1.68397933064810e+001,-1.29802711442995e+000

5.97939699453972e+004,-1.68398157143245e+001,-1.31614064551072e+000

6.06286626604156e+004,-1.68398387484015e+001,-1.33450676842398e+000

6.14750072515201e+004,-1.68398624261064e+001,-1.35312899815816e+000

6.23331663728396e+004,-1.68398867653111e+001,-1.37201089830823e+000

6.32033049490698e+004,-1.68399117843772e+001,-1.39115608173612e+000

6.40855902071694e+004,-1.68399375021695e+001,-1.41056821123773e+000

6.49801917084985e+004,-1.68399639380687e+001,-1.43025100022190e+000

6.58872813814055e+004,-1.68399911119861e+001,-1.45020821339290e+000

6.68070335542691e+004,-1.68400190443769e+001,-1.47044366744616e+000

6.77396249890018e+004,-1.68400477562551e+001,-1.49096123177095e+000

6.86852349150199e+004,-1.68400772692080e+001,-1.51176482916175e+000

6.96440450636895e+004,-1.68401076054115e+001,-1.53285843653852e+000

7.06162397032520e+004,-1.68401387876455e+001,-1.55424608567782e+000

7.16020056742374e+004,-1.68401708393100e+001,-1.57593186394996e+000

7.26015324253724e+004,-1.68402037844413e+001,-1.59791991506897e+000

7.36150120499896e+004,-1.68402376477286e+001,-1.62021443984925e+000

7.46426393229441e+004,-1.68402724545313e+001,-1.64281969697211e+000

7.56846117380472e+004,-1.68403082308964e+001,-1.66574000376426e+000

7.67411295460207e+004,-1.68403450035762e+001,-1.68897973698119e+000

7.78123957929823e+004,-1.68403828000472e+001,-1.71254333360578e+000

7.88986163594682e+004,-1.68404216485282e+001,-1.73643529165254e+000

7.99999999999995e+004,-1.68404615780004e+001,-1.76066017098308e+000

8.11167583832018e+004,-1.68405026182260e+001,-1.78522259413260e+000

8.22491061324848e+004,-1.68405447997695e+001,-1.81012724714462e+000

8.33972608672892e+004,-1.68405881540173e+001,-1.83537888041768e+000

8.45614432449099e+004,-1.68406327131997e+001,-1.86098230956080e+000

8.57418770029029e+004,-1.68406785104115e+001,-1.88694241626053e+000

8.69387890020841e+004,-1.68407255796350e+001,-1.91326414915700e+000

8.81524092701283e+004,-1.68407739557619e+001,-1.93995252473215e+000

8.93829710457770e+004,-1.68408236746168e+001,-1.96701262820692e+000

9.06307108236633e+004,-1.68408747729805e+001,-1.99444961445109e+000

9.18958683997622e+004,-1.68409272886143e+001,-2.02226870890157e+000

9.31786869174758e+004,-1.68409812602844e+001,-2.05047520849350e+000

9.44794129143618e+004,-1.68410367277875e+001,-2.07907448260139e+000

9.57982963695136e+004,-1.68410937319759e+001,-2.10807197399215e+000

9.71355907516031e+004,-1.68411523147845e+001,-2.13747319978711e+000

9.84915530675926e+004,-1.68412125192570e+001,-2.16728375243902e+000

9.98664439121282e+004,-1.68412743895737e+001,-2.19750930071568e+000

1.01260527517622e+005,-1.68413379710793e+001,-2.22815559069941e+000

1.02674071805032e+005,-1.68414033103112e+001,-2.25922844679542e+000

1.04107348435354e+005,-1.68414704550295e+001,-2.29073377275109e+000

1.05560632861831e+005,-1.68415394542455e+001,-2.32267755269109e+000

1.07034204382888e+005,-1.68416103582530e+001,-2.35506585215831e+000

1.08528346195813e+005,-1.68416832186586e+001,-2.38790481917151e+000

1.10043345451179e+005,-1.68417580884135e+001,-2.42120068529230e+000

1.11579493308032e+005,-1.68418350218458e+001,-2.45495976670488e+000

1.13137084989847e+005,-1.68419140746927e+001,-2.48918846530867e+000

1.14716419841265e+005,-1.68419953041341e+001,-2.52389326982167e+000

1.16317801385624e+005,-1.68420787688269e+001,-2.55908075689595e+000

1.17941537383287e+005,-1.68421645289390e+001,-2.59475759224799e+000

1.19587939890794e+005,-1.68422526461849e+001,-2.63093053179860e+000

1.21257325320831e+005,-1.68423431838614e+001,-2.66760642282717e+000

1.22950014503040e+005,-1.68424362068838e+001,-2.70479220513719e+000

1.24666332745679e+005,-1.68425317818234e+001,-2.74249491223618e+000

1.26406609898139e+005,-1.68426299769450e+001,-2.78072167252696e+000

1.28171180414339e+005,-1.68427308622448e+001,-2.81947971051224e+000

1.29960383416997e+005,-1.68428345094902e+001,-2.85877634801280e+000

1.31774562762811e+005,-1.68429409922582e+001,-2.89861900539854e+000

1.33614067108538e+005,-1.68430503859764e+001,-2.93901520283184e+000

1.35479249978003e+005,-1.68431627679633e+001,-2.97997256152593e+000

1.37370469830040e+005,-1.68432782174700e+001,-3.02149880501455e+000

1.39288090127379e+005,-1.68433968157214e+001,-3.06360176043816e+000

1.41232479406504e+005,-1.68435186459593e+001,-3.10628935984058e+000

1.43204011348474e+005,-1.68436437934854e+001,-3.14956964148152e+000

1.45203064850745e+005,-1.68437723457045e+001,-3.19345075116299e+000

1.47230024099979e+005,-1.68439043921692e+001,-3.23794094356825e+000

1.49285278645888e+005,-1.68440400246239e+001,-3.28304858361678e+000

1.51369223476094e+005,-1.68441793370506e+001,-3.32878214783301e+000

1.53482259092041e+005,-1.68443224257146e+001,-3.37515022572854e+000

1.55624791585964e+005,-1.68444693892101e+001,-3.42216152120118e+000

1.57797232718936e+005,-1.68446203285077e+001,-3.46982485394623e+000

1.59999999999999e+005,-1.68447753470005e+001,-3.51814916088591e+000

1.62233516766403e+005,-1.68449345505527e+001,-3.56714349761068e+000

1.64498212264969e+005,-1.68450980475468e+001,-3.61681703983931e+000

1.66794521734578e+005,-1.68452659489323e+001,-3.66717908489158e+000

1.69122886489819e+005,-1.68454383682741e+001,-3.71823905317970e+000

1.71483754005805e+005,-1.68456154218020e+001,-3.77000648971353e+000

1.73877578004168e+005,-1.68457972284593e+001,-3.82249106562431e+000

1.76304818540256e+005,-1.68459839099534e+001,-3.87570257970291e+000

1.78765942091554e+005,-1.68461755908046e+001,-3.92965095995742e+000

1.81261421647326e+005,-1.68463723983970e+001,-3.98434626518644e+000

1.83791736799524e+005,-1.68465744630284e+001,-4.03979868657048e+000

1.86357373834951e+005,-1.68467819179609e+001,-4.09601854928180e+000

1.88958825828723e+005,-1.68469948994711e+001,-4.15301631411174e+000

1.91596592739027e+005,-1.68472135469014e+001,-4.21080257911851e+000

1.94271181503206e+005,-1.68474380027097e+001,-4.26938808129242e+000

1.96983106135185e+005,-1.68476684125212e+001,-4.32878369824225e+000

1.99732887824256e+005,-1.68479049251784e+001,-4.38900044990019e+000

2.02521055035243e+005,-1.68481476927917e+001,-4.45004950025021e+000

2.05348143610063e+005,-1.68483968707904e+001,-4.51194215907457e+000

2.08214696870707e+005,-1.68486526179725e+001,-4.57468988372463e+000

2.11121265723661e+005,-1.68489150965555e+001,-4.63830428091275e+000

2.14068408765776e+005,-1.68491844722260e+001,-4.70279710852801e+000

2.17056692391625e+005,-1.68494609141897e+001,-4.76818027747569e+000

2.20086690902357e+005,-1.68497445952208e+001,-4.83446585354098e+000

2.23158986616063e+005,-1.68500356917112e+001,-4.90166605927808e+000

2.26274169979693e+005,-1.68503343837194e+001,-4.96979327592571e+000

2.29432839682530e+005,-1.68506408550190e+001,-5.03886004535033e+000

2.32635602771247e+005,-1.68509552931466e+001,-5.10887907201495e+000

2.35883074766574e+005,-1.68512778894497e+001,-5.17986322497946e+000

2.39175879781588e+005,-1.68516088391337e+001,-5.25182553992916e+000

2.42514650641661e+005,-1.68519483413088e+001,-5.32477922123479e+000

2.45900029006080e+005,-1.68522965990362e+001,-5.39873764404449e+000

2.49332665491357e+005,-1.68526538193739e+001,-5.47371435640838e+000

2.52813219796278e+005,-1.68530202134217e+001,-5.54972308143898e+000

2.56342360828676e+005,-1.68533959963667e+001,-5.62677771950454e+000

2.59920766833993e+005,-1.68537813875269e+001,-5.70489235046217e+000

2.63549125525621e+005,-1.68541766103953e+001,-5.78408123592711e+000

2.67228134217075e+005,-1.68545818926837e+001,-5.86435882158245e+000

2.70958499956006e+005,-1.68549974663649e+001,-5.94573973952984e+000

2.74740939660078e+005,-1.68554235677164e+001,-6.02823881068218e+000

2.78576180254757e+005,-1.68558604373617e+001,-6.11187104720155e+000

2.82464958813007e+005,-1.68563083203130e+001,-6.19665165498174e+000

2.86408022696948e+005,-1.68567674660130e+001,-6.28259603617874e+000

2.90406129701488e+005,-1.68572381283766e+001,-6.36971979178951e+000

2.94460048199957e+005,-1.68577205658331e+001,-6.45803872428280e+000

2.98570557291775e+005,-1.68582150413674e+001,-6.54756884028100e+000

3.02738446952187e+005,-1.68587218225632e+001,-6.63832635329715e+000

3.06964518184081e+005,-1.68592411816449e+001,-6.73032768652811e+000

3.11249583171928e+005,-1.68597733955208e+001,-6.82358947570531e+000

3.15594465437872e+005,-1.68603187458276e+001,-6.91812857200537e+000

3.19999999999997e+005,-1.68608775189749e+001,-7.01396204502284e+000

3.24467033532806e+005,-1.68614500061911e+001,-7.11110718580598e+000

3.28996424529938e+005,-1.68620365035712e+001,-7.20958150995915e+000

3.33589043469155e+005,-1.68626373121256e+001,-7.30940276081109e+000

3.38245772979638e+005,-1.68632527378315e+001,-7.41058891265377e+000

3.42967508011610e+005,-1.68638830916859e+001,-7.51315817405161e+000

3.47755156008335e+005,-1.68645286897617e+001,-7.61712899122430e+000

3.52609637080511e+005,-1.68651898532664e+001,-7.72252005150417e+000

3.57531884183106e+005,-1.68658669086042e+001,-7.82935028686979e+000

3.62522843294651e+005,-1.68665601874419e+001,-7.93763887755763e+000

3.67583473599047e+005,-1.68672700267787e+001,-8.04740525575457e+000

3.72714747669902e+005,-1.68679967690210e+001,-8.15866910937022e+000

3.77917651657445e+005,-1.68687407620618e+001,-8.27145038589252e+000

3.83193185478053e+005,-1.68695023593654e+001,-8.38576929632804e+000

3.88542363006410e+005,-1.68702819200592e+001,-8.50164631922633e+000

3.93966212270369e+005,-1.68710798090313e+001,-8.61910220479064e+000

3.99465775648511e+005,-1.68718963970351e+001,-8.73815797907627e+000

4.05042110070485e+005,-1.68727320608024e+001,-8.85883494827611e+000

4.10696287220124e+005,-1.68735871831644e+001,-8.98115470309504e+000

4.16429393741414e+005,-1.68744621531820e+001,-9.10513912321181e+000

4.22242531447321e+005,-1.68753573662851e+001,-9.23081038183115e+000

4.28136817531551e+005,-1.68762732244236e+001,-9.35819095032326e+000

4.34113384783250e+005,-1.68772101362278e+001,-9.48730360295241e+000

4.40173381804713e+005,-1.68781685171821e+001,-9.61817142169235e+000

4.46317973232124e+005,-1.68791487898100e+001,-9.75081780112936e+000

4.52548339959385e+005,-1.68801513838727e+001,-9.88526645345088e+000

4.58865679365059e+005,-1.68811767365821e+001,-1.00215414135176e+001

4.65271205542494e+005,-1.68822252928277e+001,-1.01596670440187e+001

4.71766149533147e+005,-1.68832975054195e+001,-1.02996680407074e+001

4.78351759563174e+005,-1.68843938353469e+001,-1.04415694377151e+001

4.85029301283321e+005,-1.68855147520540e+001,-1.05853966129394e+001

4.91800058012158e+005,-1.68866607337338e+001,-1.07311752935064e+001

4.98665330982714e+005,-1.68878322676395e+001,-1.08789315613008e+001

5.05626439592555e+005,-1.68890298504154e+001,-1.10286918585617e+001

5.12684721657352e+005,-1.68902539884479e+001,-1.11804829935397e+001

5.19841533667984e+005,-1.68915051982361e+001,-1.13343321462108e+001

5.27098251051240e+005,-1.68927840067848e+001,-1.14902668740433e+001

5.34456268434150e+005,-1.68940909520178e+001,-1.16483151178103e+001

5.41916999912011e+005,-1.68954265832145e+001,-1.18085052074457e+001

