Freq.,VOut,OutRef

1.00000000000000e+004,-1.97980990487930e+001,-2.12129719109819e-001

1.01395947979003e+004,-1.97980999748031e+001,-2.15090893469151e-001

1.02811382665607e+004,-1.97981009268421e+001,-2.18093402321625e-001

1.04246576084112e+004,-1.97981019056416e+001,-2.21137822592442e-001

1.05701804056138e+004,-1.97981029119536e+001,-2.24224739256237e-001

1.07177346253629e+004,-1.97981039465511e+001,-2.27354745450896e-001

1.08673486252606e+004,-1.97981050102293e+001,-2.30528442588776e-001

1.10190511587661e+004,-1.97981061038055e+001,-2.33746440473760e-001

1.11728713807222e+004,-1.97981072281193e+001,-2.37009357421421e-001

1.13288388529580e+004,-1.97981083840351e+001,-2.40317820368862e-001

1.14869835499703e+004,-1.97981095724407e+001,-2.43672465004300e-001

1.16473358646846e+004,-1.97981107942491e+001,-2.47073935884556e-001

1.18099266142953e+004,-1.97981120503989e+001,-2.50522886558236e-001

1.19747870461893e+004,-1.97981133418552e+001,-2.54019979692809e-001

1.21419488439505e+004,-1.97981146696100e+001,-2.57565887199739e-001

1.23114441334492e+004,-1.97981160346834e+001,-2.61161290365834e-001

1.24833054890161e+004,-1.97981174381238e+001,-2.64806879981920e-001

1.26575659397028e+004,-1.97981188810094e+001,-2.68503356475846e-001

1.28342589756290e+004,-1.97981203644485e+001,-2.72251430047006e-001

1.30134185544193e+004,-1.97981218895806e+001,-2.76051820801096e-001

1.31950791077289e+004,-1.97981234575772e+001,-2.79905258890844e-001

1.33792755478611e+004,-1.97981250696425e+001,-2.83812484652938e-001

1.35660432744767e+004,-1.97981267270147e+001,-2.87774248753368e-001

1.37554181813974e+004,-1.97981284309668e+001,-2.91791312326735e-001

1.39474366635040e+004,-1.97981301828075e+001,-2.95864447125872e-001

1.41421356237309e+004,-1.97981319838820e+001,-2.99994435669399e-001

1.43395524801583e+004,-1.97981338355738e+001,-3.04182071388052e-001

1.45397251732031e+004,-1.97981357393047e+001,-3.08428158782101e-001

1.47426921729110e+004,-1.97981376965367e+001,-3.12733513570029e-001

1.49484924863494e+004,-1.97981397087728e+001,-3.17098962850068e-001

1.51571656651040e+004,-1.97981417775581e+001,-3.21525345254041e-001

1.53687518128801e+004,-1.97981439044812e+001,-3.26013511110004e-001

1.55832915932100e+004,-1.97981460911752e+001,-3.30564322605131e-001

1.58008262372675e+004,-1.97981483393190e+001,-3.35178653951506e-001

1.60213975517924e+004,-1.97981506506389e+001,-3.39857391550144e-001

1.62450479271247e+004,-1.97981530269092e+001,-3.44601434164709e-001

1.64718203453514e+004,-1.97981554699543e+001,-3.49411693092134e-001

1.67017583885674e+004,-1.97981579816497e+001,-3.54289092335122e-001

1.69349062472505e+004,-1.97981605639236e+001,-3.59234568781968e-001

1.71713087287550e+004,-1.97981632187581e+001,-3.64249072383014e-001

1.74110112659224e+004,-1.97981659481912e+001,-3.69333566334987e-001

1.76540599258131e+004,-1.97981687543179e+001,-3.74489027262931e-001

1.79005014185594e+004,-1.97981716392919e+001,-3.79716445408257e-001

1.81503831063432e+004,-1.97981746053275e+001,-3.85016824817980e-001

1.84037530124975e+004,-1.97981776547011e+001,-3.90391183536703e-001

1.86606598307361e+004,-1.97981807897526e+001,-3.95840553800646e-001

1.89211529345119e+004,-1.97981840128883e+001,-4.01365982234008e-001

1.91852823865052e+004,-1.97981873265810e+001,-4.06968530053316e-001

1.94530989482457e+004,-1.97981907333735e+001,-4.12649273265195e-001

1.97246540898671e+004,-1.97981942358798e+001,-4.18409302873500e-001

1.99999999999999e+004,-1.97981978367870e+001,-4.24249725089910e-001

2.02791895958005e+004,-1.97982015388578e+001,-4.30171661541498e-001

2.05622765331213e+004,-1.97982053449320e+001,-4.36176249487833e-001

2.08493152168224e+004,-1.97982092579295e+001,-4.42264642036326e-001

2.11403608112276e+004,-1.97982132808514e+001,-4.48438008364472e-001

2.14354692507258e+004,-1.97982174167837e+001,-4.54697533939523e-001

2.17346972505211e+004,-1.97982216688980e+001,-4.61044420748944e-001

2.20381023175322e+004,-1.97982260404557e+001,-4.67479887524908e-001

2.23457427614443e+004,-1.97982305348087e+001,-4.74005169981799e-001

2.26576777059159e+004,-1.97982351554033e+001,-4.80621521048098e-001

2.29739670999406e+004,-1.97982399057825e+001,-4.87330211105253e-001

2.32946717293690e+004,-1.97982447895881e+001,-4.94132528233694e-001

2.36198532285905e+004,-1.97982498105643e+001,-5.01029778452711e-001

2.39495740923785e+004,-1.97982549725598e+001,-5.08023285974987e-001

2.42838976879009e+004,-1.97982602795313e+001,-5.15114393453473e-001

2.46228882668982e+004,-1.97982657355462e+001,-5.22304462241181e-001

2.49666109780322e+004,-1.97982713447858e+001,-5.29594872648189e-001

2.53151318794055e+004,-1.97982771115487e+001,-5.36987024203458e-001

2.56685179512580e+004,-1.97982830402533e+001,-5.44482335924790e-001

2.60268371088386e+004,-1.97982891354420e+001,-5.52082246584967e-001

2.63901582154578e+004,-1.97982954017842e+001,-5.59788214986843e-001

2.67585510957221e+004,-1.97983018440800e+001,-5.67601720240938e-001

2.71320865489533e+004,-1.97983084672639e+001,-5.75524262045301e-001

2.75108363627948e+004,-1.97983152764081e+001,-5.83557360972721e-001

2.78948733270080e+004,-1.97983222767270e+001,-5.91702558756177e-001

2.82842712474618e+004,-1.97983294735805e+001,-5.99961418585199e-001

2.86791049603164e+004,-1.97983368724786e+001,-6.08335525400000e-001

2.90794503464061e+004,-1.97983444790852e+001,-6.16826486191996e-001

2.94853843458219e+004,-1.97983522992227e+001,-6.25435930310565e-001

2.98969849726987e+004,-1.97983603388758e+001,-6.34165509771006e-001

3.03143313302078e+004,-1.97983686041969e+001,-6.43016899566525e-001

3.07375036257601e+004,-1.97983771015100e+001,-6.51991797987196e-001

3.11665831864199e+004,-1.97983858373157e+001,-6.61091926939928e-001

3.16016524745350e+004,-1.97983948182963e+001,-6.70319032276150e-001

3.20427951035848e+004,-1.97984040513207e+001,-6.79674884120976e-001

3.24900958542493e+004,-1.97984135434491e+001,-6.89161277208703e-001

3.29436406907028e+004,-1.97984233019395e+001,-6.98780031220148e-001

3.34035167771346e+004,-1.97984333342518e+001,-7.08532991129594e-001

3.38698124945009e+004,-1.97984436480542e+001,-7.18422027550141e-001

3.43426174575100e+004,-1.97984542512291e+001,-7.28449037089024e-001

3.48220225318448e+004,-1.97984651518781e+001,-7.38615942704658e-001

3.53081198516260e+004,-1.97984763583291e+001,-7.48924694069674e-001

3.58010028371187e+004,-1.97984878791421e+001,-7.59377267936204e-001

3.63007662126863e+004,-1.97984997231155e+001,-7.69975668511486e-001

3.68075060249948e+004,-1.97985118992928e+001,-7.80721927833603e-001

3.73213196614721e+004,-1.97985244169696e+001,-7.91618106153561e-001

3.78423058690237e+004,-1.97985372857000e+001,-8.02666292323158e-001

3.83705647730104e+004,-1.97985505153045e+001,-8.13868604186910e-001

3.89061978964912e+004,-1.97985641158764e+001,-8.25227188982126e-001

3.94493081797342e+004,-1.97985780977902e+001,-8.36744223737775e-001

3.99999999999998e+004,-1.97985924717088e+001,-8.48421915687661e-001

4.05583791916010e+004,-1.97986072485915e+001,-8.60262502679602e-001

4.11245530662425e+004,-1.97986224397024e+001,-8.72268253598976e-001

4.16986304336447e+004,-1.97986380566185e+001,-8.84441468789691e-001

4.22807216224550e+004,-1.97986541112384e+001,-8.96784480486421e-001

4.28709385014515e+004,-1.97986706157912e+001,-9.09299653251019e-001

4.34693945010421e+004,-1.97986875828453e+001,-9.21989384411662e-001

4.40762046350642e+004,-1.97987050253180e+001,-9.34856104514432e-001

4.46914855228886e+004,-1.97987229564850e+001,-9.47902277770684e-001

4.53153554118317e+004,-1.97987413899898e+001,-9.61130402522658e-001

4.59479341998812e+004,-1.97987603398544e+001,-9.74543011703863e-001

4.65893434587380e+004,-1.97987798204892e+001,-9.88142673311739e-001

4.72397064571810e+004,-1.97987998467037e+001,-1.00193199088496e+000

4.78991481847569e+004,-1.97988204337174e+001,-1.01591360398738e+000

4.85677953758016e+004,-1.97988415971708e+001,-1.03009018869646e+000

4.92457765337964e+004,-1.97988633531374e+001,-1.04446445809900e+000

4.99332219560642e+004,-1.97988857181346e+001,-1.05903916279554e+000

5.06302637588109e+004,-1.97989087091367e+001,-1.07381709140630e+000

5.13370359025159e+004,-1.97989323435864e+001,-1.08880107108817e+000

5.20536742176771e+004,-1.97989566394085e+001,-1.10399396805487e+000

5.27803164309155e+004,-1.97989816150218e+001,-1.11939868810750e+000

5.35171021914442e+004,-1.97990072893535e+001,-1.13501817716764e+000

5.42641730979066e+004,-1.97990336818523e+001,-1.15085542181919e+000

5.50216727255895e+004,-1.97990608125027e+001,-1.16691344985847e+000

5.57897466540159e+004,-1.97990887018395e+001,-1.18319533084737e+000

5.65685424949235e+004,-1.97991173709624e+001,-1.19970417667817e+000

5.73582099206328e+004,-1.97991468415516e+001,-1.21644314214147e+000

5.81589006928121e+004,-1.97991771358829e+001,-1.23341542550342e+000

5.89707686916437e+004,-1.97992082768440e+001,-1.25062426908812e+000

5.97939699453972e+004,-1.97992402879506e+001,-1.26807295987085e+000

6.06286626604156e+004,-1.97992731933640e+001,-1.28576483007316e+000

6.14750072515201e+004,-1.97993070179070e+001,-1.30370325777132e+000

6.23331663728396e+004,-1.97993417870828e+001,-1.32189166750790e+000

6.32033049490698e+004,-1.97993775270925e+001,-1.34033353091086e+000

6.40855902071694e+004,-1.97994142648538e+001,-1.35903236732370e+000

6.49801917084985e+004,-1.97994520280199e+001,-1.37799174444006e+000

6.58872813814055e+004,-1.97994908449993e+001,-1.39721527894639e+000

6.68070335542691e+004,-1.97995307449756e+001,-1.41670663717303e+000

6.77396249890018e+004,-1.97995717579278e+001,-1.43646953575303e+000

6.86852349150199e+004,-1.97996139146517e+001,-1.45650774228868e+000

6.96440450636895e+004,-1.97996572467810e+001,-1.47682507602583e+000

7.06162397032520e+004,-1.97997017868097e+001,-1.49742540853542e+000

7.16020056742374e+004,-1.97997475681140e+001,-1.51831266440563e+000

7.26015324253724e+004,-1.97997946249764e+001,-1.53949082193759e+000

7.36150120499896e+004,-1.97998429926085e+001,-1.56096391385441e+000

7.46426393229441e+004,-1.97998927071755e+001,-1.58273602801420e+000

7.56846117380472e+004,-1.97999438058211e+001,-1.60481130813410e+000

7.67411295460207e+004,-1.97999963266930e+001,-1.62719395451975e+000

7.78123957929823e+004,-1.98000503089682e+001,-1.64988822480698e+000

7.88986163594682e+004,-1.98001057928805e+001,-1.67289843470795e+000

7.99999999999995e+004,-1.98001628197473e+001,-1.69622895876788e+000

8.11167583832018e+004,-1.98002214319973e+001,-1.71988423113035e+000

8.22491061324848e+004,-1.98002816731992e+001,-1.74386874630955e+000

8.33972608672892e+004,-1.98003435880908e+001,-1.76818705997308e+000

8.45614432449099e+004,-1.98004072226088e+001,-1.79284378973147e+000

8.57418770029029e+004,-1.98004726239192e+001,-1.81784361593806e+000

8.69387890020841e+004,-1.98005398404485e+001,-1.84319128249590e+000

8.81524092701283e+004,-1.98006089219155e+001,-1.86889159767486e+000

8.93829710457770e+004,-1.98006799193642e+001,-1.89494943493585e+000

9.06307108236633e+004,-1.98007528851964e+001,-1.92136973376590e+000

9.18958683997622e+004,-1.98008278732064e+001,-1.94815750052059e+000

9.31786869174758e+004,-1.98009049386152e+001,-1.97531780927444e+000

9.44794129143618e+004,-1.98009841381062e+001,-2.00285580268329e+000

9.57982963695136e+004,-1.98010655298613e+001,-2.03077669285245e+000

9.71355907516031e+004,-1.98011491735980e+001,-2.05908576221468e+000

9.84915530675926e+004,-1.98012351306073e+001,-2.08778836441841e+000

9.98664439121282e+004,-1.98013234637915e+001,-2.11688992522384e+000

1.01260527517622e+005,-1.98014142377043e+001,-2.14639594340685e+000

1.02674071805032e+005,-1.98015075185906e+001,-2.17631199167435e+000

1.04107348435354e+005,-1.98016033744272e+001,-2.20664371758704e+000

1.05560632861831e+005,-1.98017018749647e+001,-2.23739684449177e+000

1.07034204382888e+005,-1.98018030917699e+001,-2.26857717246253e+000

1.08528346195813e+005,-1.98019070982692e+001,-2.30019057925060e+000

1.10043345451179e+005,-1.98020139697924e+001,-2.33224302124480e+000

1.11579493308032e+005,-1.98021237836181e+001,-2.36474053443852e+000

1.13137084989847e+005,-1.98022366190192e+001,-2.39768923540849e+000

1.14716419841265e+005,-1.98023525573092e+001,-2.43109532230079e+000

1.16317801385624e+005,-1.98024716818903e+001,-2.46496507582616e+000

1.17941537383287e+005,-1.98025940783012e+001,-2.49930486026550e+000

1.19587939890794e+005,-1.98027198342657e+001,-2.53412112448381e+000

1.21257325320831e+005,-1.98028490397436e+001,-2.56942040295207e+000

1.22950014503040e+005,-1.98029817869805e+001,-2.60520931678088e+000

1.24666332745679e+005,-1.98031181705599e+001,-2.64149457476057e+000

1.26406609898139e+005,-1.98032582874550e+001,-2.67828297441126e+000

1.28171180414339e+005,-1.98034022370822e+001,-2.71558140304402e+000

1.29960383416997e+005,-1.98035501213550e+001,-2.75339683882794e+000

1.31774562762811e+005,-1.98037020447382e+001,-2.79173635186870e+000

1.33614067108538e+005,-1.98038581143042e+001,-2.83060710529442e+000

1.35479249978003e+005,-1.98040184397884e+001,-2.87001635635391e+000

1.37370469830040e+005,-1.98041831336469e+001,-2.90997145751962e+000

1.39288090127379e+005,-1.98043523111133e+001,-2.95047985760421e+000

1.41232479406504e+005,-1.98045260902585e+001,-2.99154910288253e+000

1.43204011348474e+005,-1.98047045920481e+001,-3.03318683822717e+000

1.45203064850745e+005,-1.98048879404041e+001,-3.07540080824783e+000

1.47230024099979e+005,-1.98050762622634e+001,-3.11819885844666e+000

1.49285278645888e+005,-1.98052696876406e+001,-3.16158893637630e+000

1.51369223476094e+005,-1.98054683496884e+001,-3.20557909281361e+000

1.53482259092041e+005,-1.98056723847610e+001,-3.25017748293752e+000

1.55624791585964e+005,-1.98058819324758e+001,-3.29539236752091e+000

1.57797232718936e+005,-1.98060971357774e+001,-3.34123211412986e+000

1.59999999999999e+005,-1.98063181410015e+001,-3.38770519833323e+000

1.62233516766403e+005,-1.98065450979385e+001,-3.43482020492275e+000

1.64498212264969e+005,-1.98067781598990e+001,-3.48258582914265e+000

1.66794521734578e+005,-1.98070174837778e+001,-3.53101087792998e+000

1.69122886489819e+005,-1.98072632301204e+001,-3.58010427116507e+000

1.71483754005805e+005,-1.98075155631877e+001,-3.62987504293352e+000

1.73877578004168e+005,-1.98077746510220e+001,-3.68033234279769e+000

1.76304818540256e+005,-1.98080406655135e+001,-3.73148543708082e+000

1.78765942091554e+005,-1.98083137824660e+001,-3.78334371016101e+000

1.81261421647326e+005,-1.98085941816632e+001,-3.83591666577840e+000

1.83791736799524e+005,-1.98088820469349e+001,-3.88921392835369e+000

1.86357373834951e+005,-1.98091775662234e+001,-3.94324524431862e+000

1.88958825828723e+005,-1.98094809316497e+001,-3.99802048345963e+000

1.91596592739027e+005,-1.98097923395790e+001,-4.05354964027514e+000

1.94271181503206e+005,-1.98101119906867e+001,-4.10984283534534e+000

1.96983106135185e+005,-1.98104400900241e+001,-4.16691031671745e+000

1.99732887824256e+005,-1.98107768470832e+001,-4.22476246130438e+000

2.02521055035243e+005,-1.98111224758616e+001,-4.28340977629912e+000

2.05348143610063e+005,-1.98114771949264e+001,-4.34286290060552e+000

2.08214696870707e+005,-1.98118412274787e+001,-4.40313260628436e+000

2.11121265723661e+005,-1.98122148014157e+001,-4.46422980001806e+000

2.14068408765776e+005,-1.98125981493941e+001,-4.52616552459212e+000

2.17056692391625e+005,-1.98129915088912e+001,-4.58895096039624e+000

2.20086690902357e+005,-1.98133951222660e+001,-4.65259742694516e+000

2.23158986616063e+005,-1.98138092368192e+001,-4.71711638441901e+000

2.26274169979693e+005,-1.98142341048529e+001,-4.78251943522714e+000

2.29432839682530e+005,-1.98146699837280e+001,-4.84881832559311e+000

2.32635602771247e+005,-1.98151171359218e+001,-4.91602494716415e+000

2.35883074766574e+005,-1.98155758290843e+001,-4.98415133864589e+000

2.39175879781588e+005,-1.98160463360928e+001,-5.05320968746283e+000

2.42514650641661e+005,-1.98165289351061e+001,-5.12321233144713e+000

2.45900029006080e+005,-1.98170239096171e+001,-5.19417176055541e+000

2.49332665491357e+005,-1.98175315485040e+001,-5.26610061861732e+000

2.52813219796278e+005,-1.98180521460811e+001,-5.33901170511560e+000

2.56342360828676e+005,-1.98185860021470e+001,-5.41291797699956e+000

2.59920766833993e+005,-1.98191334220333e+001,-5.48783255053437e+000

2.63549125525621e+005,-1.98196947166506e+001,-5.56376870318755e+000

2.67228134217075e+005,-1.98202702025337e+001,-5.64073987555419e+000

2.70958499956006e+005,-1.98208602018862e+001,-5.71875967332393e+000

2.74740939660078e+005,-1.98214650426235e+001,-5.79784186928967e+000

2.78576180254757e+005,-1.98220850584144e+001,-5.87800040540211e+000

2.82464958813007e+005,-1.98227205887227e+001,-5.95924939487205e+000

2.86408022696948e+005,-1.98233719788469e+001,-6.04160312432019e+000

2.90406129701488e+005,-1.98240395799596e+001,-6.12507605598147e+000

2.94460048199957e+005,-1.98247237491467e+001,-6.20968282995972e+000

2.98570557291775e+005,-1.98254248494451e+001,-6.29543826654262e+000

3.02738446952187e+005,-1.98261432498810e+001,-6.38235736857241e+000

3.06964518184081e+005,-1.98268793255077e+001,-6.47045532387946e+000

3.11249583171928e+005,-1.98276334574437e+001,-6.55974750777875e+000

3.15594465437872e+005,-1.98284060329112e+001,-6.65024948563382e+000

3.19999999999997e+005,-1.98291974452747e+001,-6.74197701548853e+000

3.24467033532806e+005,-1.98300080940816e+001,-6.83494605077081e+000

3.28996424529938e+005,-1.98308383851033e+001,-6.92917274307015e+000

3.33589043469155e+005,-1.98316887303784e+001,-7.02467344499211e+000

3.38245772979638e+005,-1.98325595482578e+001,-7.12146471309173e+000

3.42967508011610e+005,-1.98334512634523e+001,-7.21956331088831e+000

3.47755156008335e+005,-1.98343643070835e+001,-7.31898621196504e+000

3.52609637080511e+005,-1.98352991167376e+001,-7.41975060315377e+000

3.57531884183106e+005,-1.98362561365241e+001,-7.52187388781060e+000

3.62522843294651e+005,-1.98372358171384e+001,-7.62537368918009e+000

3.67583473599047e+005,-1.98382386159299e+001,-7.73026785385466e+000

3.72714747669902e+005,-1.98392649969761e+001,-7.83657445532755e+000

3.77917651657445e+005,-1.98403154311629e+001,-7.94431179764319e+000

3.83193185478053e+005,-1.98413903962726e+001,-8.05349841914678e+000

3.88542363006410e+005,-1.98424903770798e+001,-8.16415309633243e+000

3.93966212270369e+005,-1.98436158654560e+001,-8.27629484779350e+000

3.99465775648511e+005,-1.98447673604843e+001,-8.38994293827457e+000

4.05042110070485e+005,-1.98459453685837e+001,-8.50511688282736e+000

4.10696287220124e+005,-1.98471504036463e+001,-8.62183645106860e+000

4.16429393741414e+005,-1.98483829871854e+001,-8.74012167154253e+000

4.22242531447321e+005,-1.98496436484976e+001,-8.85999283618660e+000

4.28136817531551e+005,-1.98509329248397e+001,-8.98147050490013e+000

4.34113384783250e+005,-1.98522513616194e+001,-9.10457551021527e+000

4.40173381804713e+005,-1.98535995126041e+001,-9.22932896206843e+000

4.46317973232124e+005,-1.98549779401456e+001,-9.35575225267186e+000

4.52548339959385e+005,-1.98563872154242e+001,-9.48386706148100e+000

4.58865679365059e+005,-1.98578279187117e+001,-9.61369536025915e+000

4.65271205542494e+005,-1.98593006396555e+001,-9.74525941823121e+000

4.71766149533147e+005,-1.98608059775838e+001,-9.87858180732752e+000

4.78351759563174e+005,-1.98623445418337e+001,-1.00136854075125e+001

4.85029301283321e+005,-1.98639169521035e+001,-1.01505934121925e+001

4.91800058012158e+005,-1.98655238388294e+001,-1.02893293337004e+001

4.98665330982714e+005,-1.98671658435884e+001,-1.04299170088491e+001

5.05626439592555e+005,-1.98688436195276e+001,-1.05723806045500e+001

5.12684721657352e+005,-1.98705578318224e+001,-1.07167446234898e+001

5.19841533667984e+005,-1.98723091581625e+001,-1.08630339098571e+001

5.27098251051240e+005,-1.98740982892685e+001,-1.10112736551141e+001

5.34456268434150e+005,-1.98759259294391e+001,-1.11614894038033e+001

5.41916999912011e+005,-1.98777927971292e+001,-1.13137070593826e+001

