Freq.,VOut,OutRef

1.00000000000000e+004,-1.28774699607111e-001,-1.94365833775442e-002

1.01395947979003e+004,-1.28774689022884e-001,-1.97079088844568e-002

1.02811382665607e+004,-1.28774678141386e-001,-1.99830219918781e-002

1.04246576084112e+004,-1.28774666953951e-001,-2.02619755765711e-002

1.05701804056138e+004,-1.28774655452111e-001,-2.05448232501859e-002

1.07177346253629e+004,-1.28774643627030e-001,-2.08316193740734e-002

1.08673486252606e+004,-1.28774631469607e-001,-2.11224190684820e-002

1.10190511587661e+004,-1.28774618970460e-001,-2.14172782237132e-002

1.11728713807222e+004,-1.28774606120153e-001,-2.17162535083399e-002

1.13288388529580e+004,-1.28774592908770e-001,-2.20194023841121e-002

1.14869835499703e+004,-1.28774579326024e-001,-2.23267831152084e-002

1.16473358646846e+004,-1.28774565361606e-001,-2.26384547775499e-002

1.18099266142953e+004,-1.28774551004831e-001,-2.29544772726499e-002

1.19747870461893e+004,-1.28774536244528e-001,-2.32749113393249e-002

1.21419488439505e+004,-1.28774521069508e-001,-2.35998185621531e-002

1.23114441334492e+004,-1.28774505468100e-001,-2.39292613873755e-002

1.24833054890161e+004,-1.28774489428229e-001,-2.42633031327259e-002

1.26575659397028e+004,-1.28774472937606e-001,-2.46020079997673e-002

1.28342589756290e+004,-1.28774455983704e-001,-2.49454410854423e-002

1.30134185544193e+004,-1.28774438553404e-001,-2.52936683971341e-002

1.31950791077289e+004,-1.28774420633363e-001,-2.56467568627927e-002

1.33792755478611e+004,-1.28774402209748e-001,-2.60047743455073e-002

1.35660432744767e+004,-1.28774383268467e-001,-2.63677896553248e-002

1.37554181813974e+004,-1.28774363795082e-001,-2.67358725622055e-002

1.39474366635040e+004,-1.28774343774507e-001,-2.71090938121272e-002

1.41421356237309e+004,-1.28774323191362e-001,-2.74875251380301e-002

1.43395524801583e+004,-1.28774302030114e-001,-2.78712392722805e-002

1.45397251732031e+004,-1.28774280274264e-001,-2.82603099665200e-002

1.47426921729110e+004,-1.28774257907176e-001,-2.86548119997584e-002

1.49484924863494e+004,-1.28774234911666e-001,-2.90548211953601e-002

1.51571656651040e+004,-1.28774211270160e-001,-2.94604144354785e-002

1.53687518128801e+004,-1.28774186964509e-001,-2.98716696755777e-002

1.55832915932100e+004,-1.28774161976112e-001,-3.02886659597402e-002

1.58008262372675e+004,-1.28774136285721e-001,-3.07114834360976e-002

1.60213975517924e+004,-1.28774109873787e-001,-3.11402033702347e-002

1.62450479271247e+004,-1.28774082719791e-001,-3.15749081653882e-002

1.64718203453514e+004,-1.28774054803042e-001,-3.20156813730093e-002

1.67017583885674e+004,-1.28774026102251e-001,-3.24626077107859e-002

1.69349062472505e+004,-1.28773996595308e-001,-3.29157730808328e-002

1.71713087287550e+004,-1.28773966259446e-001,-3.33752645850246e-002

1.74110112659224e+004,-1.28773935071754e-001,-3.38411705388743e-002

1.76540599258131e+004,-1.28773903007950e-001,-3.43135804946527e-002

1.79005014185594e+004,-1.28773870043723e-001,-3.47925852514707e-002

1.81503831063432e+004,-1.28773836153729e-001,-3.52782768788855e-002

1.84037530124975e+004,-1.28773801311960e-001,-3.57707487309760e-002

1.86606598307361e+004,-1.28773765491768e-001,-3.62700954656388e-002

1.89211529345119e+004,-1.28773728665728e-001,-3.67764130620420e-002

1.91852823865052e+004,-1.28773690805482e-001,-3.72897988410245e-002

1.94530989482457e+004,-1.28773651882200e-001,-3.78103514804807e-002

1.97246540898671e+004,-1.28773611865999e-001,-3.83381710374809e-002

1.99999999999999e+004,-1.28773570726220e-001,-3.88733589658301e-002

2.02791895958005e+004,-1.28773528431307e-001,-3.94160181370584e-002

2.05622765331213e+004,-1.28773484949011e-001,-3.99662528572986e-002

2.08493152168224e+004,-1.28773440245938e-001,-4.05241688909442e-002

2.11403608112276e+004,-1.28773394287910e-001,-4.10898734789884e-002

2.14354692507258e+004,-1.28773347039671e-001,-4.16634753598392e-002

2.17346972505211e+004,-1.28773298465124e-001,-4.22450847902763e-002

2.20381023175322e+004,-1.28773248527021e-001,-4.28348135674380e-002

2.23457427614443e+004,-1.28773197187369e-001,-4.34327750480713e-002

2.26576777059159e+004,-1.28773144406609e-001,-4.40390841751122e-002

2.29739670999406e+004,-1.28773090144528e-001,-4.46538574935648e-002

2.32946717293690e+004,-1.28773034359587e-001,-4.52772131780807e-002

2.36198532285905e+004,-1.28772977009061e-001,-4.59092710530454e-002

2.39495740923785e+004,-1.28772918049145e-001,-4.65501526164258e-002

2.42838976879009e+004,-1.28772857434850e-001,-4.71999810623669e-002

2.46228882668982e+004,-1.28772795119706e-001,-4.78588813071015e-002

2.49666109780322e+004,-1.28772731056106e-001,-4.85269800107271e-002

2.53151318794055e+004,-1.28772665195186e-001,-4.92044056019271e-002

2.56685179512580e+004,-1.28772597486530e-001,-4.98912883041056e-002

2.60268371088386e+004,-1.28772527878392e-001,-5.05877601592108e-002

2.63901582154578e+004,-1.28772456317821e-001,-5.12939550521941e-002

2.67585510957221e+004,-1.28772382749821e-001,-5.20100087414202e-002

2.71320865489533e+004,-1.28772307118550e-001,-5.27360588774414e-002

2.75108363627948e+004,-1.28772229366110e-001,-5.34722450365165e-002

2.78948733270080e+004,-1.28772149433156e-001,-5.42187087436286e-002

2.82842712474618e+004,-1.28772067258710e-001,-5.49755935007447e-002

2.86791049603164e+004,-1.28771982780147e-001,-5.57430448138694e-002

2.90794503464061e+004,-1.28771895932963e-001,-5.65212102224691e-002

2.94853843458219e+004,-1.28771806650950e-001,-5.73102393271565e-002

2.98969849726987e+004,-1.28771714866084e-001,-5.81102838173499e-002

3.03143313302078e+004,-1.28771620508316e-001,-5.89214975028040e-002

3.07375036257601e+004,-1.28771523505808e-001,-5.97440363414562e-002

3.11665831864199e+004,-1.28771423784731e-001,-6.05780584697986e-002

3.16016524745350e+004,-1.28771321268986e-001,-6.14237242348658e-002

3.20427951035848e+004,-1.28771215880578e-001,-6.22811962231227e-002

3.24900958542493e+004,-1.28771107539308e-001,-6.31506392921320e-002

3.29436406907028e+004,-1.28770996162714e-001,-6.40322206041263e-002

3.34035167771346e+004,-1.28770881666110e-001,-6.49261096556640e-002

3.38698124945009e+004,-1.28770763962333e-001,-6.58324783129614e-002

3.43426174575100e+004,-1.28770642961891e-001,-6.67515008432440e-002

3.48220225318448e+004,-1.28770518572844e-001,-6.76833539486032e-002

3.53081198516260e+004,-1.28770390700693e-001,-6.86282168004298e-002

3.58010028371187e+004,-1.28770259248210e-001,-6.95862710745195e-002

3.63007662126863e+004,-1.28770124115749e-001,-7.05577009841575e-002

3.68075060249948e+004,-1.28769985200588e-001,-7.15426933188824e-002

3.73213196614721e+004,-1.28769842397399e-001,-7.25414374773046e-002

3.78423058690237e+004,-1.28769695597785e-001,-7.35541255059763e-002

3.83705647730104e+004,-1.28769544690480e-001,-7.45809521352467e-002

3.89061978964912e+004,-1.28769389561062e-001,-7.56221148171504e-002

3.94493081797342e+004,-1.28769230092094e-001,-7.66778137632294e-002

3.99999999999998e+004,-1.28769066162692e-001,-7.77482519847676e-002

4.05583791916010e+004,-1.28768897648822e-001,-7.88336353295931e-002

4.11245530662425e+004,-1.28768724423017e-001,-7.99341725234253e-002

4.16986304336447e+004,-1.28768546354146e-001,-8.10500752107928e-002

4.22807216224550e+004,-1.28768363307650e-001,-8.21815579937042e-002

4.28709385014515e+004,-1.28768175145208e-001,-8.33288384752503e-002

4.34693945010421e+004,-1.28767981724616e-001,-8.44921373011826e-002

4.40762046350642e+004,-1.28767782900040e-001,-8.56716782007850e-002

4.46914855228886e+004,-1.28767578521315e-001,-8.68676880335122e-002

4.53153554118317e+004,-1.28767368434370e-001,-8.80803968296779e-002

4.59479341998812e+004,-1.28767152480893e-001,-8.93100378366868e-002

4.65893434587380e+004,-1.28766930498083e-001,-9.05568475647412e-002

4.72397064571810e+004,-1.28766702319018e-001,-9.18210658293292e-002

4.78991481847569e+004,-1.28766467771803e-001,-9.31029358029727e-002

4.85677953758016e+004,-1.28766226680207e-001,-9.44027040565423e-002

4.92457765337964e+004,-1.28765978863021e-001,-9.57206206113634e-002

4.99332219560642e+004,-1.28765724134173e-001,-9.70569389852861e-002

5.06302637588109e+004,-1.28765462302391e-001,-9.84119162435587e-002

5.13370359025159e+004,-1.28765193171331e-001,-9.97858130469235e-002

5.20536742176771e+004,-1.28764916539337e-001,-1.01178893702503e-001

5.27803164309155e+004,-1.28764632199188e-001,-1.02591426216206e-001

5.35171021914442e+004,-1.28764339938156e-001,-1.04023682342975e-001

5.42641730979066e+004,-1.28764039537551e-001,-1.05475937641888e-001

5.50216727255895e+004,-1.28763730773041e-001,-1.06948471526444e-001

5.57897466540159e+004,-1.28763413414038e-001,-1.08441567321539e-001

5.65685424949235e+004,-1.28763087223748e-001,-1.09955512317221e-001

5.73582099206328e+004,-1.28762751959087e-001,-1.11490597824298e-001

5.81589006928121e+004,-1.28762407370359e-001,-1.13047119231568e-001

5.89707686916437e+004,-1.28762053201206e-001,-1.14625376062539e-001

5.97939699453972e+004,-1.28761689188299e-001,-1.16225672034659e-001

6.06286626604156e+004,-1.28761315061309e-001,-1.17848315116826e-001

6.14750072515201e+004,-1.28760930542650e-001,-1.19493617590752e-001

6.23331663728396e+004,-1.28760535347371e-001,-1.21161896110583e-001

6.32033049490698e+004,-1.28760129182811e-001,-1.22853471765240e-001

6.40855902071694e+004,-1.28759711748549e-001,-1.24568670140460e-001

6.49801917084985e+004,-1.28759282736214e-001,-1.26307821382480e-001

6.58872813814055e+004,-1.28758841829105e-001,-1.28071260261985e-001

6.68070335542691e+004,-1.28758388702358e-001,-1.29859326239200e-001

6.77396249890018e+004,-1.28757923022213e-001,-1.31672363531321e-001

6.86852349150199e+004,-1.28757444446310e-001,-1.33510721177389e-001

6.96440450636895e+004,-1.28756952623104e-001,-1.35374753108770e-001

7.06162397032520e+004,-1.28756447191927e-001,-1.37264818215634e-001

7.16020056742374e+004,-1.28755927782468e-001,-1.39181280419687e-001

7.26015324253724e+004,-1.28755394014786e-001,-1.41124508743034e-001

7.36150120499896e+004,-1.28754845499033e-001,-1.43094877381093e-001

7.46426393229441e+004,-1.28754281835039e-001,-1.45092765776312e-001

7.56846117380472e+004,-1.28753702612306e-001,-1.47118558690872e-001

7.67411295460207e+004,-1.28753107409600e-001,-1.49172646283249e-001

7.78123957929823e+004,-1.28752495794862e-001,-1.51255424183414e-001

7.88986163594682e+004,-1.28751867324527e-001,-1.53367293572144e-001

7.99999999999995e+004,-1.28751221544035e-001,-1.55508661256154e-001

8.11167583832018e+004,-1.28750557986643e-001,-1.57679939751941e-001

8.22491061324848e+004,-1.28749876173976e-001,-1.59881547363016e-001

8.33972608672892e+004,-1.28749175615191e-001,-1.62113908264243e-001

8.45614432449099e+004,-1.28748455806855e-001,-1.64377452583982e-001

8.57418770029029e+004,-1.28747716232927e-001,-1.66672616488227e-001

8.69387890020841e+004,-1.28746956363983e-001,-1.68999842267551e-001

8.81524092701283e+004,-1.28746175657344e-001,-1.71359578422293e-001

8.93829710457770e+004,-1.28745373556639e-001,-1.73752279751619e-001

9.06307108236633e+004,-1.28744549491295e-001,-1.76178407443491e-001

9.18958683997622e+004,-1.28743702876599e-001,-1.78638429163896e-001

9.31786869174758e+004,-1.28742833113190e-001,-1.81132819149942e-001

9.44794129143618e+004,-1.28741939586633e-001,-1.83662058303091e-001

9.57982963695136e+004,-1.28741021667416e-001,-1.86226634283600e-001

9.71355907516031e+004,-1.28740078710299e-001,-1.88827041607059e-001

9.84915530675926e+004,-1.28739110054251e-001,-1.91463781741285e-001

9.98664439121282e+004,-1.28738115021917e-001,-1.94137363206396e-001

1.01260527517622e+005,-1.28737092919476e-001,-1.96848301673599e-001

1.02674071805032e+005,-1.28736043036142e-001,-1.99597120068741e-001

1.04107348435354e+005,-1.28734964644008e-001,-2.02384348674326e-001

1.05560632861831e+005,-1.28733856997504e-001,-2.05210525235691e-001

1.07034204382888e+005,-1.28732719333233e-001,-2.08076195065766e-001

1.08528346195813e+005,-1.28731550869573e-001,-2.10981911154860e-001

1.10043345451179e+005,-1.28730350806244e-001,-2.13928234279519e-001

1.11579493308032e+005,-1.28729118324176e-001,-2.16915733112382e-001

1.13137084989847e+005,-1.28727852584950e-001,-2.19944984337757e-001

1.14716419841265e+005,-1.28726552730620e-001,-2.23016572763649e-001

1.16317801385624e+005,-1.28725217883305e-001,-2.26131091438782e-001

1.17941537383287e+005,-1.28723847144818e-001,-2.29289141771040e-001

1.19587939890794e+005,-1.28722439596337e-001,-2.32491333646573e-001

1.21257325320831e+005,-1.28720994298215e-001,-2.35738285550833e-001

1.22950014503040e+005,-1.28719510289415e-001,-2.39030624692367e-001

1.24666332745679e+005,-1.28717986587343e-001,-2.42368987127673e-001

1.26406609898139e+005,-1.28716422187527e-001,-2.45754017887461e-001

1.28171180414339e+005,-1.28714816063161e-001,-2.49186371106454e-001

1.29960383416997e+005,-1.28713167165004e-001,-2.52666710152591e-001

1.31774562762811e+005,-1.28711474420861e-001,-2.56195707761222e-001

1.33614067108538e+005,-1.28709736735382e-001,-2.59774046168222e-001

1.35479249978003e+005,-1.28707952989816e-001,-2.63402417247076e-001

1.37370469830040e+005,-1.28706122041693e-001,-2.67081522646962e-001

1.39288090127379e+005,-1.28704242724506e-001,-2.70812073934156e-001

1.41232479406504e+005,-1.28702313847497e-001,-2.74594792733582e-001

1.43204011348474e+005,-1.28700334195423e-001,-2.78430410874380e-001

1.45203064850745e+005,-1.28698302528337e-001,-2.82319670536098e-001

1.47230024099979e+005,-1.28696217581244e-001,-2.86263324398685e-001

1.49285278645888e+005,-1.28694078064120e-001,-2.90262135792271e-001

1.51369223476094e+005,-1.28691882661522e-001,-2.94316878851844e-001

1.53482259092041e+005,-1.28689630032596e-001,-2.98428338672212e-001

1.55624791585964e+005,-1.28687318810769e-001,-3.02597311466596e-001

1.57797232718936e+005,-1.28684947603759e-001,-3.06824604726639e-001

1.59999999999999e+005,-1.28682514993484e-001,-3.11111037384576e-001

1.62233516766403e+005,-1.28680019535872e-001,-3.15457439979321e-001

1.64498212264969e+005,-1.28677459760848e-001,-3.19864654823479e-001

1.66794521734578e+005,-1.28674834172483e-001,-3.24333536172576e-001

1.69122886489819e+005,-1.28672141248931e-001,-3.28864950398118e-001

1.71483754005805e+005,-1.28669379442217e-001,-3.33459776163220e-001

1.73877578004168e+005,-1.28666547178797e-001,-3.38118904598508e-001

1.76304818540256e+005,-1.28663642859336e-001,-3.42843239482993e-001

1.78765942091554e+005,-1.28660664859010e-001,-3.47633697426836e-001

1.81261421647326e+005,-1.28657611527660e-001,-3.52491208056479e-001

1.83791736799524e+005,-1.28654481190090e-001,-3.57416714202373e-001

1.86357373834951e+005,-1.28651272146317e-001,-3.62411172089735e-001

1.88958825828723e+005,-1.28647982672066e-001,-3.67475551532017e-001

1.91596592739027e+005,-1.28644611018912e-001,-3.72610836127160e-001

1.94271181503206e+005,-1.28641155414987e-001,-3.77818023456224e-001

1.96983106135185e+005,-1.28637614065362e-001,-3.83098125285470e-001

1.99732887824256e+005,-1.28633985152652e-001,-3.88452167770591e-001

2.02521055035243e+005,-1.28630266837641e-001,-3.93881191664886e-001

2.05348143610063e+005,-1.28626457260041e-001,-3.99386252528756e-001

2.08214696870707e+005,-1.28622554539202e-001,-4.04968420943991e-001

2.11121265723661e+005,-1.28618556774959e-001,-4.10628782729436e-001

2.14068408765776e+005,-1.28614462048563e-001,-4.16368439160812e-001

2.17056692391625e+005,-1.28610268423790e-001,-4.22188507192268e-001

2.20086690902357e+005,-1.28605973947785e-001,-4.28090119683036e-001

2.23158986616063e+005,-1.28601576652478e-001,-4.34074425624641e-001

2.26274169979693e+005,-1.28597074555588e-001,-4.40142590373134e-001

2.29432839682530e+005,-1.28592465662221e-001,-4.46295795883567e-001

2.32635602771247e+005,-1.28587747966070e-001,-4.52535240948212e-001

2.35883074766574e+005,-1.28582919451084e-001,-4.58862141436685e-001

2.39175879781588e+005,-1.28577978093074e-001,-4.65277730541027e-001

2.42514650641661e+005,-1.28572921861379e-001,-4.71783259022469e-001

2.45900029006080e+005,-1.28567748720774e-001,-4.78379995462331e-001

2.49332665491357e+005,-1.28562456633367e-001,-4.85069226515698e-001

2.52813219796278e+005,-1.28557043560702e-001,-4.91852257168561e-001

2.56342360828676e+005,-1.28551507465841e-001,-4.98730410997984e-001

2.59920766833993e+005,-1.28545846315696e-001,-5.05705030436157e-001

2.63549125525621e+005,-1.28540058083393e-001,-5.12777477036627e-001

2.67228134217075e+005,-1.28534140750856e-001,-5.19949131745280e-001

2.70958499956006e+005,-1.28528092311292e-001,-5.27221395173336e-001

2.74740939660078e+005,-1.28521910772114e-001,-5.34595687874401e-001

2.78576180254757e+005,-1.28515594157762e-001,-5.42073450624487e-001

2.82464958813007e+005,-1.28509140512591e-001,-5.49656144705837e-001

2.86408022696948e+005,-1.28502547904158e-001,-5.57345252193634e-001

2.90406129701488e+005,-1.28495814426360e-001,-5.65142276245913e-001

2.94460048199957e+005,-1.28488938202847e-001,-5.73048741397829e-001

2.98570557291775e+005,-1.28481917390564e-001,-5.81066193857789e-001

3.02738446952187e+005,-1.28474750183275e-001,-5.89196201808344e-001

3.06964518184081e+005,-1.28467434815394e-001,-5.97440355709447e-001

3.11249583171928e+005,-1.28459969565771e-001,-6.05800268605558e-001

3.15594465437872e+005,-1.28452352761747e-001,-6.14277576436175e-001

3.19999999999997e+005,-1.28444582783257e-001,-6.22873938349299e-001

3.24467033532806e+005,-1.28436658066874e-001,-6.31591037018649e-001

3.28996424529938e+005,-1.28428577110341e-001,-6.40430578964201e-001

3.33589043469155e+005,-1.28420338476835e-001,-6.49394294875843e-001

3.38245772979638e+005,-1.28411940799594e-001,-6.58483939940503e-001

3.42967508011610e+005,-1.28403382786423e-001,-6.67701294173134e-001

3.47755156008335e+005,-1.28394663224428e-001,-6.77048162750390e-001

3.52609637080511e+005,-1.28385780984841e-001,-6.86526376347591e-001

3.57531884183106e+005,-1.28376735027726e-001,-6.96137791480289e-001

3.62522843294651e+005,-1.28367524407042e-001,-7.05884290847787e-001

3.67583473599047e+005,-1.28358148275479e-001,-7.15767783680885e-001

3.72714747669902e+005,-1.28348605889470e-001,-7.25790206093063e-001

3.77917651657445e+005,-1.28338896614286e-001,-7.35953521434504e-001

3.83193185478053e+005,-1.28329019929059e-001,-7.46259720650674e-001

3.88542363006410e+005,-1.28318975431801e-001,-7.56710822643059e-001

3.93966212270369e+005,-1.28308762844454e-001,-7.67308874634935e-001

3.99465775648511e+005,-1.28298382018022e-001,-7.78055952539356e-001

4.05042110070485e+005,-1.28287832937460e-001,-7.88954161331640e-001

4.10696287220124e+005,-1.28277115726707e-001,-8.00005635425162e-001

4.16429393741414e+005,-1.28266230653457e-001,-8.11212539051360e-001

4.22242531447321e+005,-1.28255178134128e-001,-8.22577066642498e-001

4.28136817531551e+005,-1.28243958738558e-001,-8.34101443219510e-001

4.34113384783250e+005,-1.28232573194470e-001,-8.45787924782853e-001

4.40173381804713e+005,-1.28221022392016e-001,-8.57638798708343e-001

4.46317973232124e+005,-1.28209307388250e-001,-8.69656384145680e-001

4.52548339959385e+005,-1.28197429411070e-001,-8.81843032422783e-001

4.58865679365059e+005,-1.28185389863263e-001,-8.94201127453619e-001

4.65271205542494e+005,-1.28173190326438e-001,-9.06733086150268e-001

4.71766149533147e+005,-1.28160832564295e-001,-9.19441358840283e-001

4.78351759563174e+005,-1.28148318526172e-001,-9.32328429688370e-001

4.85029301283321e+005,-1.28135650349985e-001,-9.45396817122922e-001

4.91800058012158e+005,-1.28122830365010e-001,-9.58649074267814e-001

4.98665330982714e+005,-1.28109861094530e-001,-9.72087789379179e-001

5.05626439592555e+005,-1.28096745257737e-001,-9.85715586287919e-001

5.12684721657352e+005,-1.28083485771741e-001,-9.99535124847536e-001

5.19841533667984e+005,-1.28070085753184e-001,-1.01354910138755e+000

5.27098251051240e+005,-1.28056548519111e-001,-1.02776024917394e+000

5.34456268434150e+005,-1.28042877588020e-001,-1.04217133887430e+000

5.41916999912011e+005,-1.28029076680081e-001,-1.05678517903100e+000

