Freq.,VOut,OutRef

1.00000000000000e+004,-4.70163018564047e+000,-8.01073687370664e-002

1.01395947979003e+004,-4.70163022243895e+000,-8.12256182586012e-002

1.02811382665607e+004,-4.70163026027112e+000,-8.23594776356904e-002

1.04246576084112e+004,-4.70163029916598e+000,-8.35091647601556e-002

1.05701804056138e+004,-4.70163033915333e+000,-8.46749005649261e-002

1.07177346253629e+004,-4.70163038026367e+000,-8.58569090673402e-002

1.08673486252606e+004,-4.70163042252893e+000,-8.70554174070758e-002

1.10190511587661e+004,-4.70163046598126e+000,-8.82706558990976e-002

1.11728713807222e+004,-4.70163051065392e+000,-8.95028580703770e-002

1.13288388529580e+004,-4.70163055658110e+000,-9.07522607079761e-002

1.14869835499703e+004,-4.70163060379818e+000,-9.20191039016302e-002

1.16473358646846e+004,-4.70163065234136e+000,-9.33036310932976e-002

1.18099266142953e+004,-4.70163070224765e+000,-9.46060891231120e-002

1.19747870461893e+004,-4.70163075355548e+000,-9.59267282743785e-002

1.21419488439505e+004,-4.70163080630405e+000,-9.72658023246945e-002

1.23114441334492e+004,-4.70163086053382e+000,-9.86235685929404e-002

1.24833054890161e+004,-4.70163091628634e+000,-1.00000287988455e-001

1.26575659397028e+004,-4.70163097360403e+000,-1.01396225064675e-001

1.28342589756290e+004,-4.70163103253138e+000,-1.02811648060289e-001

1.30134185544193e+004,-4.70163109311288e+000,-1.04246828965855e-001

1.31950791077289e+004,-4.70163115539533e+000,-1.05702043561084e-001

1.33792755478611e+004,-4.70163121942619e+000,-1.07177571477987e-001

1.35660432744767e+004,-4.70163128525473e+000,-1.08673696247675e-001

1.37554181813974e+004,-4.70163135293085e+000,-1.10190705363050e-001

1.39474366635040e+004,-4.70163142250705e+000,-1.11728890321119e-001

1.41421356237309e+004,-4.70163149403581e+000,-1.13288546695896e-001

1.43395524801583e+004,-4.70163156757249e+000,-1.14869974177007e-001

1.45397251732031e+004,-4.70163164317301e+000,-1.16473476642808e-001

1.47426921729110e+004,-4.70163172089529e+000,-1.18099362208556e-001

1.49484924863494e+004,-4.70163180079852e+000,-1.19747943291743e-001

1.51571656651040e+004,-4.70163188294425e+000,-1.21419536664507e-001

1.53687518128801e+004,-4.70163196739506e+000,-1.23114463523917e-001

1.55832915932100e+004,-4.70163205421532e+000,-1.24833049547884e-001

1.58008262372675e+004,-4.70163214347185e+000,-1.26575624955434e-001

1.60213975517924e+004,-4.70163223523234e+000,-1.28342524578925e-001

1.62450479271247e+004,-4.70163232956735e+000,-1.30134087916334e-001

1.64718203453514e+004,-4.70163242654854e+000,-1.31950659208699e-001

1.67017583885674e+004,-4.70163252625022e+000,-1.33792587495714e-001

1.69349062472505e+004,-4.70163262874858e+000,-1.35660226688203e-001

1.71713087287550e+004,-4.70163273412172e+000,-1.37553935636306e-001

1.74110112659224e+004,-4.70163284245011e+000,-1.39474078195993e-001

1.76540599258131e+004,-4.70163295381666e+000,-1.41421023297884e-001

1.79005014185594e+004,-4.70163306830577e+000,-1.43395145025457e-001

1.81503831063432e+004,-4.70163318600538e+000,-1.45396822673412e-001

1.84037530124975e+004,-4.70163330700497e+000,-1.47426440834220e-001

1.86606598307361e+004,-4.70163343139702e+000,-1.49484389462370e-001

1.89211529345119e+004,-4.70163355927607e+000,-1.51571063955752e-001

1.91852823865052e+004,-4.70163369073982e+000,-1.53686865224899e-001

1.94530989482457e+004,-4.70163382588830e+000,-1.55832199775916e-001

1.97246540898671e+004,-4.70163396482446e+000,-1.58007479784703e-001

1.99999999999999e+004,-4.70163410765423e+000,-1.60213123175613e-001

2.02791895958005e+004,-4.70163425448642e+000,-1.62449553704562e-001

2.05622765331213e+004,-4.70163440543245e+000,-1.64717201039733e-001

2.08493152168224e+004,-4.70163456060766e+000,-1.67016500838529e-001

2.11403608112276e+004,-4.70163472012972e+000,-1.69347894840239e-001

2.14354692507258e+004,-4.70163488412018e+000,-1.71711830941669e-001

2.17346972505211e+004,-4.70163505270368e+000,-1.74108763289399e-001

2.20381023175322e+004,-4.70163522600826e+000,-1.76539152364063e-001

2.23457427614443e+004,-4.70163540416569e+000,-1.79003465067669e-001

2.26576777059159e+004,-4.70163558731138e+000,-1.81502174814726e-001

2.29739670999406e+004,-4.70163577558423e+000,-1.84035761623405e-001

2.32946717293690e+004,-4.70163596912708e+000,-1.86604712206274e-001

2.36198532285905e+004,-4.70163616808708e+000,-1.89209520060978e-001

2.39495740923785e+004,-4.70163637261503e+000,-1.91850685570271e-001

2.42838976879009e+004,-4.70163658286598e+000,-1.94528716093950e-001

2.46228882668982e+004,-4.70163679899910e+000,-1.97244126068250e-001

2.49666109780322e+004,-4.70163702117840e+000,-1.99997437100041e-001

2.53151318794055e+004,-4.70163724957197e+000,-2.02789178072433e-001

2.56685179512580e+004,-4.70163748435281e+000,-2.05619885240983e-001

2.60268371088386e+004,-4.70163772569867e+000,-2.08490102338998e-001

2.63901582154578e+004,-4.70163797379168e+000,-2.11400380683718e-001

2.67585510957221e+004,-4.70163822881989e+000,-2.14351279273368e-001

2.71320865489533e+004,-4.70163849097561e+000,-2.17343364905719e-001

2.75108363627948e+004,-4.70163876045691e+000,-2.20377212276791e-001

2.78948733270080e+004,-4.70163903746741e+000,-2.23453404094272e-001

2.82842712474618e+004,-4.70163932221584e+000,-2.26572531191664e-001

2.86791049603164e+004,-4.70163961491710e+000,-2.29735192635744e-001

2.90794503464061e+004,-4.70163991579154e+000,-2.32941995846555e-001

2.94853843458219e+004,-4.70164022506607e+000,-2.36193556707708e-001

2.98969849726987e+004,-4.70164054297343e+000,-2.39490499688831e-001

3.03143313302078e+004,-4.70164086975258e+000,-2.42833457964776e-001

3.07375036257601e+004,-4.70164120564954e+000,-2.46223073530742e-001

3.11665831864199e+004,-4.70164155091637e+000,-2.49659997333553e-001

3.16016524745350e+004,-4.70164190581253e+000,-2.53144889388185e-001

3.20427951035848e+004,-4.70164227060417e+000,-2.56678418909031e-001

3.24900958542493e+004,-4.70164264556493e+000,-2.60261264433846e-001

3.29436406907028e+004,-4.70164303097588e+000,-2.63894113954955e-001

3.34035167771346e+004,-4.70164342712543e+000,-2.67577665052440e-001

3.38698124945009e+004,-4.70164383431009e+000,-2.71312625023202e-001

3.43426174575100e+004,-4.70164425283424e+000,-2.75099711018915e-001

3.48220225318448e+004,-4.70164468301056e+000,-2.78939650180715e-001

3.53081198516260e+004,-4.70164512516004e+000,-2.82833179780303e-001

3.58010028371187e+004,-4.70164557961266e+000,-2.86781047356421e-001

3.63007662126863e+004,-4.70164604670690e+000,-2.90784010862146e-001

3.68075060249948e+004,-4.70164652679058e+000,-2.94842838805143e-001

3.73213196614721e+004,-4.70164702022069e+000,-2.98958310397324e-001

3.78423058690237e+004,-4.70164752736394e+000,-3.03131215700095e-001

3.83705647730104e+004,-4.70164804859684e+000,-3.07362355776832e-001

3.89061978964912e+004,-4.70164858430598e+000,-3.11652542844022e-001

3.94493081797342e+004,-4.70164913488818e+000,-3.16002600427596e-001

3.99999999999998e+004,-4.70164970075091e+000,-3.20413363517603e-001

4.05583791916010e+004,-4.70165028231264e+000,-3.24885678726800e-001

4.11245530662425e+004,-4.70165088000260e+000,-3.29420404454627e-001

4.16986304336447e+004,-4.70165149426183e+000,-3.34018411045909e-001

4.22807216224550e+004,-4.70165212554286e+000,-3.38680580959076e-001

4.28709385014515e+004,-4.70165277430994e+000,-3.43407808934837e-001

4.34693945010421e+004,-4.70165344104016e+000,-3.48201002160682e-001

4.40762046350642e+004,-4.70165412622261e+000,-3.53061080449835e-001

4.46914855228886e+004,-4.70165483035952e+000,-3.57988976410857e-001

4.53153554118317e+004,-4.70165555396635e+000,-3.62985635625884e-001

4.59479341998812e+004,-4.70165629757188e+000,-3.68052016830804e-001

4.65893434587380e+004,-4.70165706171887e+000,-3.73189092095667e-001

4.72397064571810e+004,-4.70165784696405e+000,-3.78397847009887e-001

4.78991481847569e+004,-4.70165865387892e+000,-3.83679280867133e-001

4.85677953758016e+004,-4.70165948304950e+000,-3.89034406856651e-001

4.92457765337964e+004,-4.70166033507711e+000,-3.94464252253949e-001

4.99332219560642e+004,-4.70166121057877e+000,-3.99969858613416e-001

5.06302637588109e+004,-4.70166211018701e+000,-4.05552281969182e-001

5.13370359025159e+004,-4.70166303455101e+000,-4.11212593029817e-001

5.20536742176771e+004,-4.70166398433639e+000,-4.16951877383841e-001

5.27803164309155e+004,-4.70166496022554e+000,-4.22771235705292e-001

5.35171021914442e+004,-4.70166596291875e+000,-4.28671783956850e-001

5.42641730979066e+004,-4.70166699313363e+000,-4.34654653605501e-001

5.50216727255895e+004,-4.70166805160616e+000,-4.40720991832323e-001

5.57897466540159e+004,-4.70166913909086e+000,-4.46871961750365e-001

5.65685424949235e+004,-4.70167025636110e+000,-4.53108742623023e-001

5.73582099206328e+004,-4.70167140420967e+000,-4.59432530086457e-001

5.81589006928121e+004,-4.70167258344934e+000,-4.65844536372114e-001

5.89707686916437e+004,-4.70167379491267e+000,-4.72345990539242e-001

5.97939699453972e+004,-4.70167503945325e+000,-4.78938138700377e-001

6.06286626604156e+004,-4.70167631794538e+000,-4.85622244259921e-001

6.14750072515201e+004,-4.70167763128502e+000,-4.92399588148362e-001

6.23331663728396e+004,-4.70167898038982e+000,-4.99271469063760e-001

6.32033049490698e+004,-4.70168036620005e+000,-5.06239203713309e-001

6.40855902071694e+004,-4.70168178967851e+000,-5.13304127062752e-001

6.49801917084985e+004,-4.70168325181118e+000,-5.20467592584576e-001

6.58872813814055e+004,-4.70168475360780e+000,-5.27730972510213e-001

6.68070335542691e+004,-4.70168629610204e+000,-5.35095658088959e-001

6.77396249890018e+004,-4.70168788035214e+000,-5.42563059845353e-001

6.86852349150199e+004,-4.70168950744127e+000,-5.50134607843538e-001

6.96440450636895e+004,-4.70169117847796e+000,-5.57811751954153e-001

7.06162397032520e+004,-4.70169289459648e+000,-5.65595962124113e-001

7.16020056742374e+004,-4.70169465695729e+000,-5.73488728650569e-001

7.26015324253724e+004,-4.70169646674768e+000,-5.81491562456642e-001

7.36150120499896e+004,-4.70169832518187e+000,-5.89605995374512e-001

7.46426393229441e+004,-4.70170023350138e+000,-5.97833580429788e-001

7.56846117380472e+004,-4.70170219297607e+000,-6.06175892125874e-001

7.67411295460207e+004,-4.70170420490352e+000,-6.14634526742147e-001

7.78123957929823e+004,-4.70170627061036e+000,-6.23211102623974e-001

7.88986163594682e+004,-4.70170839145206e+000,-6.31907260485474e-001

7.99999999999995e+004,-4.70171056881350e+000,-6.40724663712045e-001

8.11167583832018e+004,-4.70171280410944e+000,-6.49664998666007e-001

8.22491061324848e+004,-4.70171509878443e+000,-6.58729975001123e-001

8.33972608672892e+004,-4.70171745431369e+000,-6.67921325974045e-001

8.45614432449099e+004,-4.70171987220279e+000,-6.77240808767330e-001

8.57418770029029e+004,-4.70172235398846e+000,-6.86690204808984e-001

8.69387890020841e+004,-4.70172490123854e+000,-6.96271320102217e-001

8.81524092701283e+004,-4.70172751555232e+000,-7.05985985555756e-001

8.93829710457770e+004,-4.70173019856055e+000,-7.15836057321117e-001

9.06307108236633e+004,-4.70173295192572e+000,-7.25823417131193e-001

9.18958683997622e+004,-4.70173577734241e+000,-7.35949972643868e-001

9.31786869174758e+004,-4.70173867653697e+000,-7.46217657792919e-001

9.44794129143618e+004,-4.70174165126759e+000,-7.56628433140430e-001

9.57982963695136e+004,-4.70174470332477e+000,-7.67184286231814e-001

9.71355907516031e+004,-4.70174783453083e+000,-7.77887231960565e-001

9.84915530675926e+004,-4.70175104673980e+000,-7.88739312933962e-001

9.98664439121282e+004,-4.70175434183760e+000,-7.99742599843132e-001

1.01260527517622e+005,-4.70175772174161e+000,-8.10899191839553e-001

1.02674071805032e+005,-4.70176118840019e+000,-8.22211216916153e-001

1.04107348435354e+005,-4.70176474379288e+000,-8.33680832289857e-001

1.05560632861831e+005,-4.70176838992943e+000,-8.45310224794170e-001

1.07034204382888e+005,-4.70177212884961e+000,-8.57101611272183e-001

1.08528346195813e+005,-4.70177596262249e+000,-8.69057238976788e-001

1.10043345451179e+005,-4.70177989334603e+000,-8.81179385973826e-001

1.11579493308032e+005,-4.70178392314579e+000,-8.93470361554149e-001

1.13137084989847e+005,-4.70178805417466e+000,-9.05932506645060e-001

1.14716419841265e+005,-4.70179228861129e+000,-9.18568194232429e-001

1.16317801385624e+005,-4.70179662865976e+000,-9.31379829782057e-001

1.17941537383287e+005,-4.70180107654747e+000,-9.44369851674075e-001

1.19587939890794e+005,-4.70180563452433e+000,-9.57540731634092e-001

1.21257325320831e+005,-4.70181030486142e+000,-9.70894975174504e-001

1.22950014503040e+005,-4.70181508984869e+000,-9.84435122042544e-001

1.24666332745679e+005,-4.70181999179374e+000,-9.98163746668934e-001

1.26406609898139e+005,-4.70182501301967e+000,-1.01208345862523e+000

1.28171180414339e+005,-4.70183015586311e+000,-1.02619690308564e+000

1.29960383416997e+005,-4.70183542267121e+000,-1.04050676129752e+000

1.31774562762811e+005,-4.70184081580014e+000,-1.05501575105052e+000

1.33614067108538e+005,-4.70184633761152e+000,-1.06972662715954e+000

1.35479249978003e+005,-4.70185199046982e+000,-1.08464218194835e+000

1.37370469830040e+005,-4.70185777673910e+000,-1.09976524573998e+000

1.39288090127379e+005,-4.70186369877950e+000,-1.11509868735549e+000

1.41232479406504e+005,-4.70186975894363e+000,-1.13064541461463e+000

1.43204011348474e+005,-4.70187595957237e+000,-1.14640837484737e+000

1.45203064850745e+005,-4.70188230299099e+000,-1.16239055540639e+000

1.47230024099979e+005,-4.70188879150406e+000,-1.17859498419175e+000

1.49285278645888e+005,-4.70189542739088e+000,-1.19502473017632e+000

1.51369223476094e+005,-4.70190221290003e+000,-1.21168290394167e+000

1.53482259092041e+005,-4.70190915024395e+000,-1.22857265821771e+000

1.55624791585964e+005,-4.70191624159286e+000,-1.24569718843110e+000

1.57797232718936e+005,-4.70192348906805e+000,-1.26305973326064e+000

1.59999999999999e+005,-4.70193089473573e+000,-1.28066357519525e+000

1.62233516766403e+005,-4.70193846059914e+000,-1.29851204110588e+000

1.64498212264969e+005,-4.70194618859117e+000,-1.31660850281823e+000

1.66794521734578e+005,-4.70195408056619e+000,-1.33495637769531e+000

1.69122886489819e+005,-4.70196213829107e+000,-1.35355912922907e+000

1.71483754005805e+005,-4.70197036343638e+000,-1.37242026763485e+000

1.73877578004168e+005,-4.70197875756621e+000,-1.39154335045835e+000

1.76304818540256e+005,-4.70198732212804e+000,-1.41093198318706e+000

1.78765942091554e+005,-4.70199605844168e+000,-1.43058981987109e+000

1.81261421647326e+005,-4.70200496768779e+000,-1.45052056375090e+000

1.83791736799524e+005,-4.70201405089535e+000,-1.47072796789518e+000

1.86357373834951e+005,-4.70202330892911e+000,-1.49121583584430e+000

1.88958825828723e+005,-4.70203274247556e+000,-1.51198802226515e+000

1.91596592739027e+005,-4.70204235202872e+000,-1.53304843361256e+000

1.94271181503206e+005,-4.70205213787477e+000,-1.55440102880169e+000

1.96983106135185e+005,-4.70206210007623e+000,-1.57604981988694e+000

1.99732887824256e+005,-4.70207223845499e+000,-1.59799887275304e+000

2.02521055035243e+005,-4.70208255257451e+000,-1.62025230781398e+000

2.05348143610063e+005,-4.70209304172126e+000,-1.64281430072236e+000

2.08214696870707e+005,-4.70210370488519e+000,-1.66568908308818e+000

2.11121265723661e+005,-4.70211454073884e+000,-1.68888094321062e+000

2.14068408765776e+005,-4.70212554761613e+000,-1.71239422681501e+000

2.17056692391625e+005,-4.70213672348938e+000,-1.73623333780829e+000

2.20086690902357e+005,-4.70214806594568e+000,-1.76040273903871e+000

2.23158986616063e+005,-4.70215957216202e+000,-1.78490695307140e+000

2.26274169979693e+005,-4.70217123887916e+000,-1.80975056297420e+000

2.29432839682530e+005,-4.70218306237459e+000,-1.83493821311568e+000

2.32635602771247e+005,-4.70219503843355e+000,-1.86047460997794e+000

2.35883074766574e+005,-4.70220716231984e+000,-1.88636452297874e+000

2.39175879781588e+005,-4.70221942874426e+000,-1.91261278531036e+000

2.42514650641661e+005,-4.70223183183234e+000,-1.93922429479102e+000

2.45900029006080e+005,-4.70224436509062e+000,-1.96620401472966e+000

2.49332665491357e+005,-4.70225702137096e+000,-1.99355697480854e+000

2.52813219796278e+005,-4.70226979283435e+000,-2.02128827197666e+000

2.56342360828676e+005,-4.70228267091212e+000,-2.04940307136353e+000

2.59920766833993e+005,-4.70229564626651e+000,-2.07790660720551e+000

2.63549125525621e+005,-4.70230870874936e+000,-2.10680418379055e+000

2.67228134217075e+005,-4.70232184735874e+000,-2.13610117642176e+000

2.70958499956006e+005,-4.70233505019491e+000,-2.16580303239474e+000

2.74740939660078e+005,-4.70234830441373e+000,-2.19591527199852e+000

2.78576180254757e+005,-4.70236159617879e+000,-2.22644348953186e+000

2.82464958813007e+005,-4.70237491061186e+000,-2.25739335434035e+000

2.86408022696948e+005,-4.70238823174150e+000,-2.28877061187509e+000

2.90406129701488e+005,-4.70240154244983e+000,-2.32058108477145e+000

2.94460048199957e+005,-4.70241482441777e+000,-2.35283067394901e+000

2.98570557291775e+005,-4.70242805806821e+000,-2.38552535973583e+000

3.02738446952187e+005,-4.70244122250769e+000,-2.41867120301383e+000

3.06964518184081e+005,-4.70245429546590e+000,-2.45227434639021e+000

3.11249583171928e+005,-4.70246725323370e+000,-2.48634101539219e+000

3.15594465437872e+005,-4.70248007059923e+000,-2.52087751968752e+000

3.19999999999997e+005,-4.70249272078203e+000,-2.55589025433130e+000

3.24467033532806e+005,-4.70250517536554e+000,-2.59138570104142e+000

3.28996424529938e+005,-4.70251740422795e+000,-2.62737042949795e+000

3.33589043469155e+005,-4.70252937547080e+000,-2.66385109867652e+000

3.38245772979638e+005,-4.70254105534624e+000,-2.70083445820714e+000

3.42967508011610e+005,-4.70255240818239e+000,-2.73832734976504e+000

3.47755156008335e+005,-4.70256339630717e+000,-2.77633670849219e+000

3.52609637080511e+005,-4.70257397997008e+000,-2.81486956445220e+000

3.57531884183106e+005,-4.70258411726282e+000,-2.85393304411526e+000

3.62522843294651e+005,-4.70259376403804e+000,-2.89353437188011e+000

3.67583473599047e+005,-4.70260287382647e+000,-2.93368087162826e+000

3.72714747669902e+005,-4.70261139775312e+000,-2.97437996831391e+000

3.77917651657445e+005,-4.70261928445136e+000,-3.01563918959024e+000

3.83193185478053e+005,-4.70262647997613e+000,-3.05746616747276e+000

3.88542363006410e+005,-4.70263292771578e+000,-3.09986864004005e+000

3.93966212270369e+005,-4.70263856830264e+000,-3.14285445317205e+000

3.99465775648511e+005,-4.70264333952266e+000,-3.18643156232871e+000

4.05042110070485e+005,-4.70264717622381e+000,-3.23060803436736e+000

4.10696287220124e+005,-4.70265001022381e+000,-3.27539204940050e+000

4.16429393741414e+005,-4.70265177021674e+000,-3.32079190269566e+000

4.22242531447321e+005,-4.70265238167921e+000,-3.36681600661462e+000

4.28136817531551e+005,-4.70265176677590e+000,-3.41347289259625e+000

4.34113384783250e+005,-4.70264984426431e+000,-3.46077121318170e+000

4.40173381804713e+005,-4.70264652939932e+000,-3.50871974408168e+000

4.46317973232124e+005,-4.70264173383772e+000,-3.55732738628686e+000

4.52548339959385e+005,-4.70263536554177e+000,-3.60660316822410e+000

4.58865679365059e+005,-4.70262732868387e+000,-3.65655624795203e+000

4.65271205542494e+005,-4.70261752355013e+000,-3.70719591540526e+000

4.71766149533147e+005,-4.70260584644496e+000,-3.75853159467966e+000

4.78351759563174e+005,-4.70259218959537e+000,-3.81057284636296e+000

4.85029301283321e+005,-4.70257644105615e+000,-3.86332936990890e+000

4.91800058012158e+005,-4.70255848461516e+000,-3.91681100605586e+000

4.98665330982714e+005,-4.70253819969940e+000,-3.97102773928908e+000

5.05626439592555e+005,-4.70251546128171e+000,-4.02598970034731e+000

5.12684721657352e+005,-4.70249013978846e+000,-4.08170716877075e+000

5.19841533667984e+005,-4.70246210100766e+000,-4.13819057549552e+000

5.27098251051240e+005,-4.70243120599843e+000,-4.19545050548783e+000

5.34456268434150e+005,-4.70239731100149e+000,-4.25349770042052e+000

5.41916999912011e+005,-4.70236026735016e+000,-4.31234306139384e+000

