Freq.,VOut,OutRef

1.00000000000000e+004,-1.83465870126220e+001,-3.05098735387642e-001

1.01395947979003e+004,-1.83465881396638e+001,-3.09357716506608e-001

1.02811382665607e+004,-1.83465892983876e+001,-3.13676149151442e-001

1.04246576084112e+004,-1.83465904896841e+001,-3.18054863164753e-001

1.05701804056138e+004,-1.83465917144688e+001,-3.22494699970721e-001

1.07177346253629e+004,-1.83465929736827e+001,-3.26996512737215e-001

1.08673486252606e+004,-1.83465942682939e+001,-3.31561166536332e-001

1.10190511587661e+004,-1.83465955992971e+001,-3.36189538515300e-001

1.11728713807222e+004,-1.83465969677152e+001,-3.40882518060992e-001

1.13288388529580e+004,-1.83465983745999e+001,-3.45641006971964e-001

1.14869835499703e+004,-1.83465998210322e+001,-3.50465919632613e-001

1.16473358646846e+004,-1.83466013081237e+001,-3.55358183187054e-001

1.18099266142953e+004,-1.83466028370172e+001,-3.60318737717035e-001

1.19747870461893e+004,-1.83466044088877e+001,-3.65348536424294e-001

1.21419488439505e+004,-1.83466060249428e+001,-3.70448545812472e-001

1.23114441334492e+004,-1.83466076864245e+001,-3.75619745871601e-001

1.24833054890161e+004,-1.83466093946095e+001,-3.80863130266909e-001

1.26575659397028e+004,-1.83466111508105e+001,-3.86179706529687e-001

1.28342589756290e+004,-1.83466129563768e+001,-3.91570496251659e-001

1.30134185544193e+004,-1.83466148126958e+001,-3.97036535278554e-001

1.31950791077289e+004,-1.83466167211940e+001,-4.02578873910827e-001

1.33792755478611e+004,-1.83466186833378e+001,-4.08198577104419e-001

1.35660432744767e+004,-1.83466207006347e+001,-4.13896724676457e-001

1.37554181813974e+004,-1.83466227746349e+001,-4.19674411508671e-001

1.39474366635040e+004,-1.83466249069317e+001,-4.25532747762976e-001

1.41421356237309e+004,-1.83466270991635e+001,-4.31472859089651e-001

1.43395524801583e+004,-1.83466293530147e+001,-4.37495886845417e-001

1.45397251732031e+004,-1.83466316702167e+001,-4.43602988312792e-001

1.47426921729110e+004,-1.83466340525501e+001,-4.49795336919692e-001

1.49484924863494e+004,-1.83466365018450e+001,-4.56074122468514e-001

1.51571656651040e+004,-1.83466390199830e+001,-4.62440551360291e-001

1.53687518128801e+004,-1.83466416088987e+001,-4.68895846828810e-001

1.55832915932100e+004,-1.83466442705811e+001,-4.75441249172475e-001

1.58008262372675e+004,-1.83466470070748e+001,-4.82078015995870e-001

1.60213975517924e+004,-1.83466498204820e+001,-4.88807422447414e-001

1.62450479271247e+004,-1.83466527129640e+001,-4.95630761465741e-001

1.64718203453514e+004,-1.83466556867426e+001,-5.02549344026975e-001

1.67017583885674e+004,-1.83466587441021e+001,-5.09564499396297e-001

1.69349062472505e+004,-1.83466618873909e+001,-5.16677575382517e-001

1.71713087287550e+004,-1.83466651190235e+001,-5.23889938597169e-001

1.74110112659224e+004,-1.83466684414821e+001,-5.31202974714654e-001

1.76540599258131e+004,-1.83466718573186e+001,-5.38618088739677e-001

1.79005014185594e+004,-1.83466753691564e+001,-5.46136705276512e-001

1.81503831063432e+004,-1.83466789796928e+001,-5.53760268799311e-001

1.84037530124975e+004,-1.83466826917008e+001,-5.61490243932847e-001

1.86606598307361e+004,-1.83466865080311e+001,-5.69328115730372e-001

1.89211529345119e+004,-1.83466904316146e+001,-5.77275389958000e-001

1.91852823865052e+004,-1.83466944654643e+001,-5.85333593385384e-001

1.94530989482457e+004,-1.83466986126780e+001,-5.93504274076025e-001

1.97246540898671e+004,-1.83467028764402e+001,-6.01789001685042e-001

1.99999999999999e+004,-1.83467072600252e+001,-6.10189367757523e-001

2.02791895958005e+004,-1.83467117667987e+001,-6.18706986037550e-001

2.05622765331213e+004,-1.83467164002211e+001,-6.27343492772441e-001

2.08493152168224e+004,-1.83467211638501e+001,-6.36100547029660e-001

2.11403608112276e+004,-1.83467260613429e+001,-6.44979831011941e-001

2.14354692507258e+004,-1.83467310964597e+001,-6.53983050380177e-001

2.17346972505211e+004,-1.83467362730659e+001,-6.63111934580407e-001

2.20381023175322e+004,-1.83467415951355e+001,-6.72368237174487e-001

2.23457427614443e+004,-1.83467470667539e+001,-6.81753736174500e-001

2.26576777059159e+004,-1.83467526921216e+001,-6.91270234383770e-001

2.29739670999406e+004,-1.83467584755561e+001,-7.00919559742804e-001

2.32946717293690e+004,-1.83467644214968e+001,-7.10703565677075e-001

2.36198532285905e+004,-1.83467705345073e+001,-7.20624131451673e-001

2.39495740923785e+004,-1.83467768192791e+001,-7.30683162532358e-001

2.42838976879009e+004,-1.83467832806356e+001,-7.40882590947337e-001

2.46228882668982e+004,-1.83467899235354e+001,-7.51224375658380e-001

2.49666109780322e+004,-1.83467967530758e+001,-7.61710502935808e-001

2.53151318794055e+004,-1.83468037744977e+001,-7.72342986735428e-001

2.56685179512580e+004,-1.83468109931884e+001,-7.83123869085302e-001

2.60268371088386e+004,-1.83468184146865e+001,-7.94055220475938e-001

2.63901582154578e+004,-1.83468260446859e+001,-8.05139140254995e-001

2.67585510957221e+004,-1.83468338890400e+001,-8.16377757028141e-001

2.71320865489533e+004,-1.83468419537665e+001,-8.27773229066266e-001

2.75108363627948e+004,-1.83468502450516e+001,-8.39327744715846e-001

2.78948733270080e+004,-1.83468587692550e+001,-8.51043522819479e-001

2.82842712474618e+004,-1.83468675329145e+001,-8.62922813136577e-001

2.86791049603164e+004,-1.83468765427513e+001,-8.74967896773552e-001

2.90794503464061e+004,-1.83468858056748e+001,-8.87181086619352e-001

2.94853843458219e+004,-1.83468953287880e+001,-8.99564727786392e-001

2.98969849726987e+004,-1.83469051193931e+001,-9.12121198056749e-001

3.03143313302078e+004,-1.83469151849966e+001,-9.24852908336602e-001

3.07375036257601e+004,-1.83469255333154e+001,-9.37762303115583e-001

3.11665831864199e+004,-1.83469361722824e+001,-9.50851860931907e-001

3.16016524745350e+004,-1.83469471100528e+001,-9.64124094845353e-001

3.20427951035848e+004,-1.83469583550102e+001,-9.77581552914767e-001

3.24900958542493e+004,-1.83469699157727e+001,-9.91226818683759e-001

3.29436406907028e+004,-1.83469818012000e+001,-1.00506251167373e+000

3.34035167771346e+004,-1.83469940203995e+001,-1.01909128787980e+000

3.38698124945009e+004,-1.83470065827336e+001,-1.03331584027869e+000

3.43426174575100e+004,-1.83470194978267e+001,-1.04773889933907e+000

3.48220225318448e+004,-1.83470327755728e+001,-1.06236323354121e+000

3.53081198516260e+004,-1.83470464261421e+001,-1.07719164990426e+000

3.58010028371187e+004,-1.83470604599898e+001,-1.09222699451824e+000

3.63007662126863e+004,-1.83470748878635e+001,-1.10747215308489e+000

3.68075060249948e+004,-1.83470897208111e+001,-1.12293005146724e+000

3.73213196614721e+004,-1.83471049701897e+001,-1.13860365624228e+000

3.78423058690237e+004,-1.83471206476738e+001,-1.15449597526706e+000

3.83705647730104e+004,-1.83471367652641e+001,-1.17061005824684e+000

3.89061978964912e+004,-1.83471533352971e+001,-1.18694899731462e+000

3.94493081797342e+004,-1.83471703704535e+001,-1.20351592761746e+000

3.99999999999998e+004,-1.83471878837689e+001,-1.22031402790990e+000

4.05583791916010e+004,-1.83472058886425e+001,-1.23734652115655e+000

4.11245530662425e+004,-1.83472243988482e+001,-1.25461667514203e+000

4.16986304336447e+004,-1.83472434285441e+001,-1.27212780308995e+000

4.22807216224550e+004,-1.83472629922840e+001,-1.28988326428964e+000

4.28709385014515e+004,-1.83472831050277e+001,-1.30788646473101e+000

4.34693945010421e+004,-1.83473037821524e+001,-1.32614085774940e+000

4.40762046350642e+004,-1.83473250394648e+001,-1.34464994467590e+000

4.46914855228886e+004,-1.83473468932123e+001,-1.36341727550124e+000

4.53153554118317e+004,-1.83473693600953e+001,-1.38244644954470e+000

4.59479341998812e+004,-1.83473924572802e+001,-1.40174111613228e+000

4.65893434587380e+004,-1.83474162024116e+001,-1.42130497528699e+000

4.72397064571810e+004,-1.83474406136265e+001,-1.44114177842421e+000

4.78991481847569e+004,-1.83474657095666e+001,-1.46125532905901e+000

4.85677953758016e+004,-1.83474915093934e+001,-1.48164948352292e+000

4.92457765337964e+004,-1.83475180328018e+001,-1.50232815168917e+000

4.99332219560642e+004,-1.83475453000354e+001,-1.52329529770701e+000

5.06302637588109e+004,-1.83475733319010e+001,-1.54455494074833e+000

5.13370359025159e+004,-1.83476021497845e+001,-1.56611115576194e+000

5.20536742176771e+004,-1.83476317756670e+001,-1.58796807423763e+000

5.27803164309155e+004,-1.83476622321406e+001,-1.61012988498276e+000

5.35171021914442e+004,-1.83476935424259e+001,-1.63260083490604e+000

5.42641730979066e+004,-1.83477257303888e+001,-1.65538522981441e+000

5.50216727255895e+004,-1.83477588205584e+001,-1.67848743521842e+000

5.57897466540159e+004,-1.83477928381450e+001,-1.70191187714890e+000

5.65685424949235e+004,-1.83478278090592e+001,-1.72566304298511e+000

5.73582099206328e+004,-1.83478637599310e+001,-1.74974548229128e+000

5.81589006928121e+004,-1.83479007181289e+001,-1.77416380766854e+000

5.89707686916437e+004,-1.83479387117809e+001,-1.79892269561223e+000

5.97939699453972e+004,-1.83479777697952e+001,-1.82402688738552e+000

6.06286626604156e+004,-1.83480179218807e+001,-1.84948118990188e+000

6.14750072515201e+004,-1.83480591985701e+001,-1.87529047661791e+000

6.23331663728396e+004,-1.83481016312413e+001,-1.90145968844165e+000

6.32033049490698e+004,-1.83481452521413e+001,-1.92799383464786e+000

6.40855902071694e+004,-1.83481900944092e+001,-1.95489799380920e+000

6.49801917084985e+004,-1.83482361921009e+001,-1.98217731473639e+000

6.58872813814055e+004,-1.83482835802139e+001,-2.00983701743269e+000

6.68070335542691e+004,-1.83483322947129e+001,-2.03788239405864e+000

6.77396249890018e+004,-1.83483823725563e+001,-2.06631880991116e+000

6.86852349150199e+004,-1.83484338517225e+001,-2.09515170441330e+000

6.96440450636895e+004,-1.83484867712383e+001,-2.12438659211779e+000

7.06162397032520e+004,-1.83485411712068e+001,-2.15402906372320e+000

7.16020056742374e+004,-1.83485970928367e+001,-2.18408478710183e+000

7.26015324253724e+004,-1.83486545784723e+001,-2.21455950834210e+000

7.36150120499896e+004,-1.83487136716236e+001,-2.24545905280388e+000

7.46426393229441e+004,-1.83487744169982e+001,-2.27678932618602e+000

7.56846117380472e+004,-1.83488368605337e+001,-2.30855631560756e+000

7.67411295460207e+004,-1.83489010494302e+001,-2.34076609070395e+000

7.78123957929823e+004,-1.83489670321847e+001,-2.37342480473417e+000

7.88986163594682e+004,-1.83490348586254e+001,-2.40653869570511e+000

7.99999999999995e+004,-1.83491045799480e+001,-2.44011408750670e+000

8.11167583832018e+004,-1.83491762487517e+001,-2.47415739106219e+000

8.22491061324848e+004,-1.83492499190771e+001,-2.50867510549386e+000

8.33972608672892e+004,-1.83493256464444e+001,-2.54367381930063e+000

8.45614432449099e+004,-1.83494034878929e+001,-2.57916021155262e+000

8.57418770029029e+004,-1.83494835020214e+001,-2.61514105309772e+000

8.69387890020841e+004,-1.83495657490297e+001,-2.65162320778520e+000

8.81524092701283e+004,-1.83496502907610e+001,-2.68861363370234e+000

8.93829710457770e+004,-1.83497371907454e+001,-2.72611938442729e+000

9.06307108236633e+004,-1.83498265142445e+001,-2.76414761029548e+000

9.18958683997622e+004,-1.83499183282971e+001,-2.80270555968307e+000

9.31786869174758e+004,-1.83500127017660e+001,-2.84180058030419e+000

9.44794129143618e+004,-1.83501097053861e+001,-2.88144012052452e+000

9.57982963695136e+004,-1.83502094118132e+001,-2.92163173068921e+000

9.71355907516031e+004,-1.83503118956749e+001,-2.96238306446815e+000

9.84915530675926e+004,-1.83504172336215e+001,-3.00370188021643e+000

9.98664439121282e+004,-1.83505255043794e+001,-3.04559604234877e+000

1.01260527517622e+005,-1.83506367888047e+001,-3.08807352273342e+000

1.02674071805032e+005,-1.83507511699389e+001,-3.13114240209998e+000

1.04107348435354e+005,-1.83508687330654e+001,-3.17481087146280e+000

1.05560632861831e+005,-1.83509895657676e+001,-3.21908723356369e+000

1.07034204382888e+005,-1.83511137579884e+001,-3.26397990432759e+000

1.08528346195813e+005,-1.83512414020906e+001,-3.30949741433786e+000

1.10043345451179e+005,-1.83513725929198e+001,-3.35564841032579e+000

1.11579493308032e+005,-1.83515074278673e+001,-3.40244165667916e+000

1.13137084989847e+005,-1.83516460069360e+001,-3.44988603696562e+000

1.14716419841265e+005,-1.83517884328061e+001,-3.49799055547525e+000

1.16317801385624e+005,-1.83519348109045e+001,-3.54676433877794e+000

1.17941537383287e+005,-1.83520852494733e+001,-3.59621663730017e+000

1.19587939890794e+005,-1.83522398596417e+001,-3.64635682691820e+000

1.21257325320831e+005,-1.83523987554990e+001,-3.69719441056768e+000

1.22950014503040e+005,-1.83525620541688e+001,-3.74873901987332e+000

1.24666332745679e+005,-1.83527298758855e+001,-3.80100041679365e+000

1.26406609898139e+005,-1.83529023440716e+001,-3.85398849528543e+000

1.28171180414339e+005,-1.83530795854180e+001,-3.90771328298470e+000

1.29960383416997e+005,-1.83532617299648e+001,-3.96218494290636e+000

1.31774562762811e+005,-1.83534489111846e+001,-4.01741377516222e+000

1.33614067108538e+005,-1.83536412660670e+001,-4.07341021869617e+000

1.35479249978003e+005,-1.83538389352059e+001,-4.13018485303873e+000

1.37370469830040e+005,-1.83540420628872e+001,-4.18774840007908e+000

1.39288090127379e+005,-1.83542507971799e+001,-4.24611172585657e+000

1.41232479406504e+005,-1.83544652900276e+001,-4.30528584236957e+000

1.43204011348474e+005,-1.83546856973433e+001,-4.36528190940444e+000

1.45203064850745e+005,-1.83549121791051e+001,-4.42611123638194e+000

1.47230024099979e+005,-1.83551448994541e+001,-4.48778528422377e+000

1.49285278645888e+005,-1.83553840267950e+001,-4.55031566723712e+000

1.51369223476094e+005,-1.83556297338974e+001,-4.61371415501954e+000

1.53482259092041e+005,-1.83558821980001e+001,-4.67799267438172e+000

1.55624791585964e+005,-1.83561416009176e+001,-4.74316331129042e+000

1.57797232718936e+005,-1.83564081291474e+001,-4.80923831283141e+000

1.59999999999999e+005,-1.83566819739810e+001,-4.87623008919106e+000

1.62233516766403e+005,-1.83569633316159e+001,-4.94415121565796e+000

1.64498212264969e+005,-1.83572524032699e+001,-5.01301443464545e+000

1.66794521734578e+005,-1.83575493952981e+001,-5.08283265773307e+000

1.69122886489819e+005,-1.83578545193117e+001,-5.15361896772843e+000

1.71483754005805e+005,-1.83581679922986e+001,-5.22538662075012e+000

1.73877578004168e+005,-1.83584900367468e+001,-5.29814904833078e+000

1.76304818540256e+005,-1.83588208807700e+001,-5.37191985954117e+000

1.78765942091554e+005,-1.83591607582351e+001,-5.44671284313453e+000

1.81261421647326e+005,-1.83595099088923e+001,-5.52254196971324e+000

1.83791736799524e+005,-1.83598685785069e+001,-5.59942139391603e+000

1.86357373834951e+005,-1.83602370189946e+001,-5.67736545662716e+000

1.88958825828723e+005,-1.83606154885576e+001,-5.75638868720722e+000

1.91596592739027e+005,-1.83610042518243e+001,-5.83650580574640e+000

1.94271181503206e+005,-1.83614035799905e+001,-5.91773172534047e+000

1.96983106135185e+005,-1.83618137509638e+001,-6.00008155438784e+000

1.99732887824256e+005,-1.83622350495097e+001,-6.08357059891251e+000

2.02521055035243e+005,-1.83626677674002e+001,-6.16821436490716e+000

2.05348143610063e+005,-1.83631122035654e+001,-6.25402856070289e+000

2.08214696870707e+005,-1.83635686642470e+001,-6.34102909936033e+000

2.11121265723661e+005,-1.83640374631544e+001,-6.42923210108750e+000

2.14068408765776e+005,-1.83645189216237e+001,-6.51865389568175e+000

2.17056692391625e+005,-1.83650133687787e+001,-6.60931102499624e+000

2.20086690902357e+005,-1.83655211416948e+001,-6.70122024543371e+000

2.23158986616063e+005,-1.83660425855656e+001,-6.79439853046501e+000

2.26274169979693e+005,-1.83665780538719e+001,-6.88886307317602e+000

2.29432839682530e+005,-1.83671279085536e+001,-6.98463128884087e+000

2.32635602771247e+005,-1.83676925201838e+001,-7.08172081752339e+000

2.35883074766574e+005,-1.83682722681469e+001,-7.18014952670727e+000

2.39175879781588e+005,-1.83688675408180e+001,-7.27993551395546e+000

2.42514650641661e+005,-1.83694787357462e+001,-7.38109710959904e+000

2.45900029006080e+005,-1.83701062598408e+001,-7.48365287945726e+000

2.49332665491357e+005,-1.83707505295597e+001,-7.58762162758841e+000

2.52813219796278e+005,-1.83714119711022e+001,-7.69302239907299e+000

2.56342360828676e+005,-1.83720910206036e+001,-7.79987448282916e+000

2.59920766833993e+005,-1.83727881243340e+001,-7.90819741446316e+000

2.63549125525621e+005,-1.83735037389003e+001,-8.01801097915261e+000

2.67228134217075e+005,-1.83742383314509e+001,-8.12933521456616e+000

2.70958499956006e+005,-1.83749923798853e+001,-8.24219041381937e+000

2.74740939660078e+005,-1.83757663730665e+001,-8.35659712846692e+000

2.78576180254757e+005,-1.83765608110369e+001,-8.47257617153437e+000

2.82464958813007e+005,-1.83773762052394e+001,-8.59014862058741e+000

2.86408022696948e+005,-1.83782130787415e+001,-8.70933582084204e+000

2.90406129701488e+005,-1.83790719664645e+001,-8.83015938831625e+000

2.94460048199957e+005,-1.83799534154167e+001,-8.95264121302191e+000

2.98570557291775e+005,-1.83808579849315e+001,-9.07680346220171e+000

3.02738446952187e+005,-1.83817862469105e+001,-9.20266858360911e+000

3.06964518184081e+005,-1.83827387860720e+001,-9.33025930883275e+000

3.11249583171928e+005,-1.83837162002039e+001,-9.45959865666805e+000

3.15594465437872e+005,-1.83847191004241e+001,-9.59070993653495e+000

3.19999999999997e+005,-1.83857481114448e+001,-9.72361675194330e+000

3.24467033532806e+005,-1.83868038718451e+001,-9.85834300400800e+000

3.28996424529938e+005,-1.83878870343484e+001,-9.99491289501242e+000

3.33589043469155e+005,-1.83889982661084e+001,-1.01333509320235e+001

3.38245772979638e+005,-1.83901382490012e+001,-1.02736819305568e+001

3.42967508011610e+005,-1.83913076799260e+001,-1.04159310182944e+001

3.47755156008335e+005,-1.83925072711133e+001,-1.05601236388544e+001

3.52609637080511e+005,-1.83937377504426e+001,-1.07062855556137e+001

3.57531884183106e+005,-1.83949998617678e+001,-1.08544428555845e+001

3.62522843294651e+005,-1.83962943652538e+001,-1.10046219533424e+001

3.67583473599047e+005,-1.83976220377218e+001,-1.11568495950116e+001

3.72714747669902e+005,-1.83989836730061e+001,-1.13111528623000e+001

3.77917651657445e+005,-1.84003800823212e+001,-1.14675591765903e+001

3.83193185478053e+005,-1.84018120946415e+001,-1.16260963030833e+001

3.88542363006410e+005,-1.84032805570928e+001,-1.17867923549933e+001

3.93966212270369e+005,-1.84047863353570e+001,-1.19496757977969e+001

3.99465775648511e+005,-1.84063303140900e+001,-1.21147754535305e+001

4.05042110070485e+005,-1.84079133973542e+001,-1.22821205051386e+001

4.10696287220124e+005,-1.84095365090659e+001,-1.24517405008705e+001

4.16429393741414e+005,-1.84112005934581e+001,-1.26236653587225e+001

4.22242531447321e+005,-1.84129066155598e+001,-1.27979253709240e+001

4.28136817531551e+005,-1.84146555616923e+001,-1.29745512084674e+001

4.34113384783250e+005,-1.84164484399828e+001,-1.31535739256751e+001

4.40173381804713e+005,-1.84182862808974e+001,-1.33350249648037e+001

4.46317973232124e+005,-1.84201701377928e+001,-1.35189361606813e+001

4.52548339959385e+005,-1.84221010874874e+001,-1.37053397453727e+001

4.58865679365059e+005,-1.84240802308544e+001,-1.38942683528708e+001

4.65271205542494e+005,-1.84261086934355e+001,-1.40857550238077e+001

4.71766149533147e+005,-1.84281876260765e+001,-1.42798332101814e+001

4.78351759563174e+005,-1.84303182055867e+001,-1.44765367800923e+001

4.85029301283321e+005,-1.84325016354215e+001,-1.46759000224847e+001

4.91800058012158e+005,-1.84347391463886e+001,-1.48779576518859e+001

4.98665330982714e+005,-1.84370319973804e+001,-1.50827448131369e+001

5.05626439592555e+005,-1.84393814761311e+001,-1.52902970861073e+001

5.12684721657352e+005,-1.84417888999999e+001,-1.55006504903872e+001

5.19841533667984e+005,-1.84442556167813e+001,-1.57138414899487e+001

5.27098251051240e+005,-1.84467830055428e+001,-1.59299069977666e+001

5.34456268434150e+005,-1.84493724774892e+001,-1.61488843803907e+001

5.41916999912011e+005,-1.84520254768568e+001,-1.63708114624625e+001

