Freq.,VOut,OutRef

1.00000000000000e+004,-1.95765399187169e+001,-3.18833738307787e-001

1.01395947979003e+004,-1.95765413583597e+001,-3.23284438873042e-001

1.02811382665607e+004,-1.95765428384717e+001,-3.27797266671265e-001

1.04246576084112e+004,-1.95765443601903e+001,-3.32373088871913e-001

1.05701804056138e+004,-1.95765459246851e+001,-3.37012784744654e-001

1.07177346253629e+004,-1.95765475331583e+001,-3.41717245829817e-001

1.08673486252606e+004,-1.95765491868460e+001,-3.46487376109574e-001

1.10190511587661e+004,-1.95765508870192e+001,-3.51324092178431e-001

1.11728713807222e+004,-1.95765526349841e+001,-3.56228323424496e-001

1.13288388529580e+004,-1.95765544320842e+001,-3.61201012200763e-001

1.14869835499703e+004,-1.95765562797003e+001,-3.66243114014718e-001

1.16473358646846e+004,-1.95765581792525e+001,-3.71355597701287e-001

1.18099266142953e+004,-1.95765601322001e+001,-3.76539445619654e-001

1.19747870461893e+004,-1.95765621400441e+001,-3.81795653831381e-001

1.21419488439505e+004,-1.95765642043271e+001,-3.87125232300619e-001

1.23114441334492e+004,-1.95765663266355e+001,-3.92529205081715e-001

1.24833054890161e+004,-1.95765685085998e+001,-3.98008610517797e-001

1.26575659397028e+004,-1.95765707518970e+001,-4.03564501439237e-001

1.28342589756290e+004,-1.95765730582506e+001,-4.09197945367256e-001

1.30134185544193e+004,-1.95765754294325e+001,-4.14910024718305e-001

1.31950791077289e+004,-1.95765778672648e+001,-4.20701837008861e-001

1.33792755478611e+004,-1.95765803736205e+001,-4.26574495069099e-001

1.35660432744767e+004,-1.95765829504255e+001,-4.32529127255240e-001

1.37554181813974e+004,-1.95765855996594e+001,-4.38566877665835e-001

1.39474366635040e+004,-1.95765883233576e+001,-4.44688906362155e-001

1.41421356237309e+004,-1.95765911236127e+001,-4.50896389588172e-001

1.43395524801583e+004,-1.95765940025760e+001,-4.57190519997987e-001

1.45397251732031e+004,-1.95765969624595e+001,-4.63572506884597e-001

1.47426921729110e+004,-1.95766000055369e+001,-4.70043576411217e-001

1.49484924863494e+004,-1.95766031341460e+001,-4.76604971845602e-001

1.51571656651040e+004,-1.95766063506904e+001,-4.83257953799502e-001

1.53687518128801e+004,-1.95766096576409e+001,-4.90003800470111e-001

1.55832915932100e+004,-1.95766130575378e+001,-4.96843807884039e-001

1.58008262372675e+004,-1.95766165529929e+001,-5.03779290146528e-001

1.60213975517924e+004,-1.95766201466912e+001,-5.10811579693660e-001

1.62450479271247e+004,-1.95766238413931e+001,-5.17942027546133e-001

1.64718203453514e+004,-1.95766276399365e+001,-5.25172003570173e-001

1.67017583885674e+004,-1.95766315452391e+001,-5.32502896737402e-001

1.69349062472505e+004,-1.95766355603006e+001,-5.39936115392866e-001

1.71713087287550e+004,-1.95766396882045e+001,-5.47473087524764e-001

1.74110112659224e+004,-1.95766439321212e+001,-5.55115261036962e-001

1.76540599258131e+004,-1.95766482953104e+001,-5.62864104025810e-001

1.79005014185594e+004,-1.95766527811226e+001,-5.70721105063240e-001

1.81503831063432e+004,-1.95766573930031e+001,-5.78687773479511e-001

1.84037530124975e+004,-1.95766621344934e+001,-5.86765639654172e-001

1.86606598307361e+004,-1.95766670092347e+001,-5.94956255306962e-001

1.89211529345119e+004,-1.95766720209703e+001,-6.03261193796666e-001

1.91852823865052e+004,-1.95766771735484e+001,-6.11682050421393e-001

1.94530989482457e+004,-1.95766824709257e+001,-6.20220442723262e-001

1.97246540898671e+004,-1.95766879171695e+001,-6.28878010798069e-001

1.99999999999999e+004,-1.95766935164616e+001,-6.37656417610089e-001

2.02791895958005e+004,-1.95766992731007e+001,-6.46557349309690e-001

2.05622765331213e+004,-1.95767051915066e+001,-6.55582515554157e-001

2.08493152168224e+004,-1.95767112762228e+001,-6.64733649837556e-001

2.11403608112276e+004,-1.95767175319206e+001,-6.74012509819539e-001

2.14354692507258e+004,-1.95767239634022e+001,-6.83420877662502e-001

2.17346972505211e+004,-1.95767305756045e+001,-6.92960560371811e-001

2.20381023175322e+004,-1.95767373736029e+001,-7.02633390142891e-001

2.23457427614443e+004,-1.95767443626153e+001,-7.12441224707548e-001

2.26576777059159e+004,-1.95767515480060e+001,-7.22385947692936e-001

2.29739670999406e+004,-1.95767589352896e+001,-7.32469468978777e-001

2.32946717293690e+004,-1.95767665301356e+001,-7.42693725062541e-001

2.36198532285905e+004,-1.95767743383723e+001,-7.53060679430515e-001

2.39495740923785e+004,-1.95767823659915e+001,-7.63572322931145e-001

2.42838976879009e+004,-1.95767906191533e+001,-7.74230674155282e-001

2.46228882668982e+004,-1.95767991041901e+001,-7.85037779822450e-001

2.49666109780322e+004,-1.95768078276122e+001,-7.95995715169922e-001

2.53151318794055e+004,-1.95768167961123e+001,-8.07106584349387e-001

2.56685179512580e+004,-1.95768260165709e+001,-8.18372520828238e-001

2.60268371088386e+004,-1.95768354960610e+001,-8.29795687796987e-001

2.63901582154578e+004,-1.95768452418543e+001,-8.41378278579457e-001

2.67585510957221e+004,-1.95768552614259e+001,-8.53122517053719e-001

2.71320865489533e+004,-1.95768655624609e+001,-8.65030658073965e-001

2.75108363627948e+004,-1.95768761528593e+001,-8.77104987900028e-001

2.78948733270080e+004,-1.95768870407428e+001,-8.89347824634424e-001

2.82842712474618e+004,-1.95768982344604e+001,-9.01761518661536e-001

2.86791049603164e+004,-1.95769097425952e+001,-9.14348453097543e-001

2.90794503464061e+004,-1.95769215739706e+001,-9.27111044241083e-001

2.94853843458219e+004,-1.95769337376574e+001,-9.40051742035418e-001

2.98969849726987e+004,-1.95769462429801e+001,-9.53173030533757e-001

3.03143313302078e+004,-1.95769590995246e+001,-9.66477428370570e-001

3.07375036257601e+004,-1.95769723171451e+001,-9.79967489241051e-001

3.11665831864199e+004,-1.95769859059717e+001,-9.93645802388251e-001

3.16016524745350e+004,-1.95769998764183e+001,-1.00751499309061e+000

3.20427951035848e+004,-1.95770142391900e+001,-1.02157772316521e+000

3.24900958542493e+004,-1.95770290052916e+001,-1.03583669147052e+000

3.29436406907028e+004,-1.95770441860362e+001,-1.05029463441871e+000

3.34035167771346e+004,-1.95770597930530e+001,-1.06495432649597e+000

3.38698124945009e+004,-1.95770758382968e+001,-1.07981858078729e+000

3.43426174575100e+004,-1.95770923340568e+001,-1.09489024951161e+000

3.48220225318448e+004,-1.95771092929659e+001,-1.11017222456004e+000

3.53081198516260e+004,-1.95771267280104e+001,-1.12566743804569e+000

3.58010028371187e+004,-1.95771446525396e+001,-1.14137886285800e+000

3.63007662126863e+004,-1.95771630802760e+001,-1.15730951322567e+000

3.68075060249948e+004,-1.95771820253259e+001,-1.17346244528599e+000

3.73213196614721e+004,-1.95772015021896e+001,-1.18984075766539e+000

3.78423058690237e+004,-1.95772215257728e+001,-1.20644759206265e+000

3.83705647730104e+004,-1.95772421113975e+001,-1.22328613384308e+000

3.89061978964912e+004,-1.95772632748138e+001,-1.24035961264113e+000

3.94493081797342e+004,-1.95772850322119e+001,-1.25767130296913e+000

3.99999999999998e+004,-1.95773074002337e+001,-1.27522452483560e+000

4.05583791916010e+004,-1.95773303959861e+001,-1.29302264437125e+000

4.11245530662425e+004,-1.95773540370533e+001,-1.31106907446250e+000

4.16986304336447e+004,-1.95773783415103e+001,-1.32936727539699e+000

4.22807216224550e+004,-1.95774033279367e+001,-1.34792075551122e+000

4.28709385014515e+004,-1.95774290154299e+001,-1.36673307185482e+000

4.34693945010421e+004,-1.95774554236204e+001,-1.38580783085643e+000

4.40762046350642e+004,-1.95774825726859e+001,-1.40514868900265e+000

4.46914855228886e+004,-1.95775104833667e+001,-1.42475935352560e+000

4.53153554118317e+004,-1.95775391769812e+001,-1.44464358309698e+000

4.59479341998812e+004,-1.95775686754416e+001,-1.46480518853586e+000

4.65893434587380e+004,-1.95775990012709e+001,-1.48524803351958e+000

4.72397064571810e+004,-1.95776301776191e+001,-1.50597603531119e+000

4.78991481847569e+004,-1.95776622282809e+001,-1.52699316549008e+000

4.85677953758016e+004,-1.95776951777135e+001,-1.54830345069596e+000

4.92457765337964e+004,-1.95777290510543e+001,-1.56991097338277e+000

4.99332219560642e+004,-1.95777638741406e+001,-1.59181987257854e+000

5.06302637588109e+004,-1.95777996735279e+001,-1.61403434466053e+000

5.13370359025159e+004,-1.95778364765103e+001,-1.63655864413669e+000

5.20536742176771e+004,-1.95778743111403e+001,-1.65939708443768e+000

5.27803164309155e+004,-1.95779132062500e+001,-1.68255403872246e+000

5.35171021914442e+004,-1.95779531914727e+001,-1.70603394068897e+000

5.42641730979066e+004,-1.95779942972641e+001,-1.72984128539945e+000

5.50216727255895e+004,-1.95780365549258e+001,-1.75398063011532e+000

5.57897466540159e+004,-1.95780799966275e+001,-1.77845659514293e+000

5.65685424949235e+004,-1.95781246554316e+001,-1.80327386468854e+000

5.73582099206328e+004,-1.95781705653173e+001,-1.82843718772649e+000

5.81589006928121e+004,-1.95782177612056e+001,-1.85395137887785e+000

5.89707686916437e+004,-1.95782662789848e+001,-1.87982131929947e+000

5.97939699453972e+004,-1.95783161555377e+001,-1.90605195758492e+000

6.06286626604156e+004,-1.95783674287677e+001,-1.93264831067716e+000

6.14750072515201e+004,-1.95784201376273e+001,-1.95961546479263e+000

6.23331663728396e+004,-1.95784743221466e+001,-1.98695857635626e+000

6.32033049490698e+004,-1.95785300234622e+001,-2.01468287294905e+000

6.40855902071694e+004,-1.95785872838478e+001,-2.04279365426800e+000

6.49801917084985e+004,-1.95786461467446e+001,-2.07129629309664e+000

6.58872813814055e+004,-1.95787066567933e+001,-2.10019623628876e+000

6.68070335542691e+004,-1.95787688598664e+001,-2.12949900576425e+000

6.77396249890018e+004,-1.95788328031015e+001,-2.15921019951723e+000

6.86852349150199e+004,-1.95788985349360e+001,-2.18933549263604e+000

6.96440450636895e+004,-1.95789661051413e+001,-2.21988063833748e+000

7.06162397032520e+004,-1.95790355648598e+001,-2.25085146901092e+000

7.16020056742374e+004,-1.95791069666410e+001,-2.28225389727915e+000

7.26015324253724e+004,-1.95791803644798e+001,-2.31409391706780e+000

7.36150120499896e+004,-1.95792558138555e+001,-2.34637760469145e+000

7.46426393229441e+004,-1.95793333717712e+001,-2.37911111995080e+000

7.56846117380472e+004,-1.95794130967949e+001,-2.41230070724321e+000

7.67411295460207e+004,-1.95794950491016e+001,-2.44595269668845e+000

7.78123957929823e+004,-1.95795792905159e+001,-2.48007350526489e+000

7.88986163594682e+004,-1.95796658845565e+001,-2.51466963796197e+000

7.99999999999995e+004,-1.95797548964806e+001,-2.54974768894518e+000

8.11167583832018e+004,-1.95798463933315e+001,-2.58531434273401e+000

8.22491061324848e+004,-1.95799404439845e+001,-2.62137637539621e+000

8.33972608672892e+004,-1.95800371191970e+001,-2.65794065575281e+000

8.45614432449099e+004,-1.95801364916574e+001,-2.69501414660002e+000

8.57418770029029e+004,-1.95802386360367e+001,-2.73260390594416e+000

8.69387890020841e+004,-1.95803436290407e+001,-2.77071708825024e+000

8.81524092701283e+004,-1.95804515494636e+001,-2.80936094570600e+000

8.93829710457770e+004,-1.95805624782432e+001,-2.84854282949976e+000

9.06307108236633e+004,-1.95806764985171e+001,-2.88827019111301e+000

9.18958683997622e+004,-1.95807936956806e+001,-2.92855058362787e+000

9.31786869174758e+004,-1.95809141574452e+001,-2.96939166304863e+000

9.44794129143618e+004,-1.95810379739001e+001,-3.01080118963844e+000

9.57982963695136e+004,-1.95811652375735e+001,-3.05278702927108e+000

9.71355907516031e+004,-1.95812960434961e+001,-3.09535715479742e+000

9.84915530675926e+004,-1.95814304892665e+001,-3.13851964742681e+000

9.98664439121282e+004,-1.95815686751173e+001,-3.18228269812427e+000

1.01260527517622e+005,-1.95817107039837e+001,-3.22665460902141e+000

1.02674071805032e+005,-1.95818566815727e+001,-3.27164379484434e+000

1.04107348435354e+005,-1.95820067164347e+001,-3.31725878435546e+000

1.05560632861831e+005,-1.95821609200369e+001,-3.36350822181120e+000

1.07034204382888e+005,-1.95823194068369e+001,-3.41040086843558e+000

1.08528346195813e+005,-1.95824822943605e+001,-3.45794560390872e+000

1.10043345451179e+005,-1.95826497032789e+001,-3.50615142787050e+000

1.11579493308032e+005,-1.95828217574888e+001,-3.55502746144117e+000

1.13137084989847e+005,-1.95829985841945e+001,-3.60458294875574e+000

1.14716419841265e+005,-1.95831803139913e+001,-3.65482725851631e+000

1.16317801385624e+005,-1.95833670809509e+001,-3.70576988555750e+000

1.17941537383287e+005,-1.95835590227088e+001,-3.75742045243012e+000

1.19587939890794e+005,-1.95837562805536e+001,-3.80978871099901e+000

1.21257325320831e+005,-1.95839589995182e+001,-3.86288454405764e+000

1.22950014503040e+005,-1.95841673284732e+001,-3.91671796695774e+000

1.24666332745679e+005,-1.95843814202220e+001,-3.97129912925600e+000

1.26406609898139e+005,-1.95846014315978e+001,-4.02663831637538e+000

1.28171180414339e+005,-1.95848275235635e+001,-4.08274595128364e+000

1.29960383416997e+005,-1.95850598613128e+001,-4.13963259618726e+000

1.31774562762811e+005,-1.95852986143736e+001,-4.19730895424071e+000

1.33614067108538e+005,-1.95855439567141e+001,-4.25578587127341e+000

1.35479249978003e+005,-1.95857960668505e+001,-4.31507433753162e+000

1.37370469830040e+005,-1.95860551279568e+001,-4.37518548943633e+000

1.39288090127379e+005,-1.95863213279778e+001,-4.43613061135786e+000

1.41232479406504e+005,-1.95865948597427e+001,-4.49792113740665e+000

1.43204011348474e+005,-1.95868759210828e+001,-4.56056865323908e+000

1.45203064850745e+005,-1.95871647149500e+001,-4.62408489788156e+000

1.47230024099979e+005,-1.95874614495387e+001,-4.68848176556833e+000

1.49285278645888e+005,-1.95877663384091e+001,-4.75377130759817e+000

1.51369223476094e+005,-1.95880796006136e+001,-4.81996573420467e+000

1.53482259092041e+005,-1.95884014608252e+001,-4.88707741644552e+000

1.55624791585964e+005,-1.95887321494686e+001,-4.95511888810584e+000

1.57797232718936e+005,-1.95890719028532e+001,-5.02410284761952e+000

1.59999999999999e+005,-1.95894209633091e+001,-5.09404216000603e+000

1.62233516766403e+005,-1.95897795793248e+001,-5.16494985882481e+000

1.64498212264969e+005,-1.95901480056886e+001,-5.23683914814484e+000

1.66794521734578e+005,-1.95905265036313e+001,-5.30972340453176e+000

1.69122886489819e+005,-1.95909153409715e+001,-5.38361617905211e+000

1.71483754005805e+005,-1.95913147922644e+001,-5.45853119929313e+000

1.73877578004168e+005,-1.95917251389518e+001,-5.53448237140085e+000

1.76304818540256e+005,-1.95921466695156e+001,-5.61148378213420e+000

1.78765942091554e+005,-1.95925796796336e+001,-5.68954970093662e+000

1.81261421647326e+005,-1.95930244723373e+001,-5.76869458202541e+000

1.83791736799524e+005,-1.95934813581729e+001,-5.84893306649803e+000

1.86357373834951e+005,-1.95939506553649e+001,-5.93027998445601e+000

1.88958825828723e+005,-1.95944326899815e+001,-6.01275035714731e+000

1.91596592739027e+005,-1.95949277961037e+001,-6.09635939912603e+000

1.94271181503206e+005,-1.95954363159959e+001,-6.18112252043072e+000

1.96983106135185e+005,-1.95959586002797e+001,-6.26705532878155e+000

1.99732887824256e+005,-1.95964950081106e+001,-6.35417363179576e+000

2.02521055035243e+005,-1.95970459073564e+001,-6.44249343922262e+000

2.05348143610063e+005,-1.95976116747786e+001,-6.53203096519791e+000

2.08214696870707e+005,-1.95981926962176e+001,-6.62280263051770e+000

2.11121265723661e+005,-1.95987893667781e+001,-6.71482506493373e+000

2.14068408765776e+005,-1.95994020910196e+001,-6.80811510946722e+000

2.17056692391625e+005,-1.96000312831484e+001,-6.90268981874632e+000

2.20086690902357e+005,-1.96006773672121e+001,-6.99856646336344e+000

2.23158986616063e+005,-1.96013407772973e+001,-7.09576253225528e+000

2.26274169979693e+005,-1.96020219577301e+001,-7.19429573510588e+000

2.29432839682530e+005,-1.96027213632792e+001,-7.29418400477261e+000

2.32635602771247e+005,-1.96034394593614e+001,-7.39544549973606e+000

2.35883074766574e+005,-1.96041767222509e+001,-7.49809860657517e+000

2.39175879781588e+005,-1.96049336392903e+001,-7.60216194246725e+000

2.42514650641661e+005,-1.96057107091056e+001,-7.70765435771400e+000

2.45900029006080e+005,-1.96065084418235e+001,-7.81459493829495e+000

2.49332665491357e+005,-1.96073273592922e+001,-7.92300300844883e+000

2.52813219796278e+005,-1.96081679953046e+001,-8.03289813328273e+000

2.56342360828676e+005,-1.96090308958258e+001,-8.14430012141182e+000

2.59920766833993e+005,-1.96099166192229e+001,-8.25722902762959e+000

2.63549125525621e+005,-1.96108257364986e+001,-8.37170515560907e+000

2.67228134217075e+005,-1.96117588315284e+001,-8.48774906063684e+000

2.70958499956006e+005,-1.96127165013012e+001,-8.60538155238212e+000

2.74740939660078e+005,-1.96136993561636e+001,-8.72462369769854e+000

2.78576180254757e+005,-1.96147080200686e+001,-8.84549682346344e+000

2.82464958813007e+005,-1.96157431308277e+001,-8.96802251945454e+000

2.86408022696948e+005,-1.96168053403677e+001,-9.09222264126358e+000

2.90406129701488e+005,-1.96178953149921e+001,-9.21811931325070e+000

2.94460048199957e+005,-1.96190137356463e+001,-9.34573493153995e+000

2.98570557291775e+005,-1.96201612981892e+001,-9.47509216705539e+000

3.02738446952187e+005,-1.96213387136684e+001,-9.60621396860236e+000

3.06964518184081e+005,-1.96225467086019e+001,-9.73912356599213e+000

3.11249583171928e+005,-1.96237860252655e+001,-9.87384447321221e+000

3.15594465437872e+005,-1.96250574219857e+001,-1.00104004916447e+001

3.19999999999997e+005,-1.96263616734392e+001,-1.01488157133318e+001

3.24467033532806e+005,-1.96276995709599e+001,-1.02891145242910e+001

3.28996424529938e+005,-1.96290719228525e+001,-1.04313216078809e+001

3.33589043469155e+005,-1.96304795547137e+001,-1.05754619482174e+001

3.38245772979638e+005,-1.96319233097617e+001,-1.07215608336437e+001

3.42967508011610e+005,-1.96334040491747e+001,-1.08696438602518e+001

3.47755156008335e+005,-1.96349226524375e+001,-1.10197369354588e+001

3.52609637080511e+005,-1.96364800176990e+001,-1.11718662816376e+001

3.57531884183106e+005,-1.96380770621390e+001,-1.13260584398020e+001

3.62522843294651e+005,-1.96397147223462e+001,-1.14823402733474e+001

3.67583473599047e+005,-1.96413939547077e+001,-1.16407389718466e+001

3.72714747669902e+005,-1.96431157358109e+001,-1.18012820549011e+001

3.77917651657445e+005,-1.96448810628576e+001,-1.19639973760463e+001

3.83193185478053e+005,-1.96466909540923e+001,-1.21289131267136e+001

3.88542363006410e+005,-1.96485464492444e+001,-1.22960578402425e+001

3.93966212270369e+005,-1.96504486099862e+001,-1.24654603959490e+001

3.99465775648511e+005,-1.96523985204055e+001,-1.26371500232421e+001

4.05042110070485e+005,-1.96543972874965e+001,-1.28111563057920e+001

4.10696287220124e+005,-1.96564460416673e+001,-1.29875091857453e+001

4.16429393741414e+005,-1.96585459372660e+001,-1.31662389679842e+001

4.22242531447321e+005,-1.96606981531265e+001,-1.33473763244295e+001

4.28136817531551e+005,-1.96629038931344e+001,-1.35309522983825e+001

4.34113384783250e+005,-1.96651643868135e+001,-1.37169983089015e+001

4.40173381804713e+005,-1.96674808899359e+001,-1.39055461552110e+001

4.46317973232124e+005,-1.96698546851531e+001,-1.40966280211374e+001

4.52548339959385e+005,-1.96722870826529e+001,-1.42902764795666e+001

4.58865679365059e+005,-1.96747794208400e+001,-1.44865244969178e+001

4.65271205542494e+005,-1.96773330670428e+001,-1.46854054376286e+001

4.71766149533147e+005,-1.96799494182472e+001,-1.48869530686429e+001

4.78351759563174e+005,-1.96826299018574e+001,-1.50912015638961e+001

4.85029301283321e+005,-1.96853759764854e+001,-1.52981855087894e+001

4.91800058012158e+005,-1.96881891327700e+001,-1.55079399046443e+001

4.98665330982714e+005,-1.96910708942255e+001,-1.57205001731295e+001

5.05626439592555e+005,-1.96940228181214e+001,-1.59359021606506e+001

5.12684721657352e+005,-1.96970464963937e+001,-1.61541821426918e+001

5.19841533667984e+005,-1.97001435565881e+001,-1.63753768281004e+001

5.27098251051240e+005,-1.97033156628363e+001,-1.65995233633013e+001

5.34456268434150e+005,-1.97065645168650e+001,-1.68266593364321e+001

5.41916999912011e+005,-1.97098918590395e+001,-1.70568227813841e+001

