Freq.,VOut,OutRef

1.00000000000000e+004,-2.43931545571060e+001,-3.45438679663804e-001

1.01395947979003e+004,-2.43931566517704e+001,-3.50260748293963e-001

1.02811382665607e+004,-2.43931588053172e+001,-3.55150127282474e-001

1.04246576084112e+004,-2.43931610194018e+001,-3.60107756109616e-001

1.05701804056138e+004,-2.43931632957254e+001,-3.65134587367171e-001

1.07177346253629e+004,-2.43931656360376e+001,-3.70231586935124e-001

1.08673486252606e+004,-2.43931680421367e+001,-3.75399734173141e-001

1.10190511587661e+004,-2.43931705158719e+001,-3.80640022104847e-001

1.11728713807222e+004,-2.43931730591442e+001,-3.85953457608403e-001

1.13288388529580e+004,-2.43931756739081e+001,-3.91341061611366e-001

1.14869835499703e+004,-2.43931783621728e+001,-3.96803869284691e-001

1.16473358646846e+004,-2.43931811260042e+001,-4.02342930242125e-001

1.18099266142953e+004,-2.43931839675262e+001,-4.07959308742466e-001

1.19747870461893e+004,-2.43931868889223e+001,-4.13654083891186e-001

1.21419488439505e+004,-2.43931898924374e+001,-4.19428349849092e-001

1.23114441334492e+004,-2.43931929803793e+001,-4.25283216042886e-001

1.24833054890161e+004,-2.43931961551211e+001,-4.31219807375180e-001

1.26575659397028e+004,-2.43931994191020e+001,-4.37239264443008e-001

1.28342589756290e+004,-2.43932027748302e+001,-4.43342743753396e-001

1.30134185544193e+004,-2.43932062248840e+001,-4.49531417949310e-001

1.31950791077289e+004,-2.43932097719144e+001,-4.55806476030230e-001

1.33792755478611e+004,-2.43932134186468e+001,-4.62169123581320e-001

1.35660432744767e+004,-2.43932171678831e+001,-4.68620583007390e-001

1.37554181813974e+004,-2.43932210225039e+001,-4.75162093761716e-001

1.39474366635040e+004,-2.43932249854708e+001,-4.81794912588215e-001

1.41421356237309e+004,-2.43932290598287e+001,-4.88520313759122e-001

1.43395524801583e+004,-2.43932332487078e+001,-4.95339589321745e-001

1.45397251732031e+004,-2.43932375553262e+001,-5.02254049344241e-001

1.47426921729110e+004,-2.43932419829927e+001,-5.09265022166470e-001

1.49484924863494e+004,-2.43932465351089e+001,-5.16373854655147e-001

1.51571656651040e+004,-2.43932512151717e+001,-5.23581912461662e-001

1.53687518128801e+004,-2.43932560267766e+001,-5.30890580283388e-001

1.55832915932100e+004,-2.43932609736198e+001,-5.38301262128817e-001

1.58008262372675e+004,-2.43932660595014e+001,-5.45815381585798e-001

1.60213975517924e+004,-2.43932712883284e+001,-5.53434382095644e-001

1.62450479271247e+004,-2.43932766641171e+001,-5.61159727227445e-001

1.64718203453514e+004,-2.43932821909970e+001,-5.68992900960230e-001

1.67017583885674e+004,-2.43932878732135e+001,-5.76935407964433e-001

1.69349062472505e+004,-2.43932937151310e+001,-5.84988773891572e-001

1.71713087287550e+004,-2.43932997212365e+001,-5.93154545666792e-001

1.74110112659224e+004,-2.43933058961433e+001,-6.01434291781890e-001

1.76540599258131e+004,-2.43933122445939e+001,-6.09829602598489e-001

1.79005014185594e+004,-2.43933187714640e+001,-6.18342090650269e-001

1.81503831063432e+004,-2.43933254817662e+001,-6.26973390952215e-001

1.84037530124975e+004,-2.43933323806542e+001,-6.35725161311629e-001

1.86606598307361e+004,-2.43933394734257e+001,-6.44599082647718e-001

1.89211529345119e+004,-2.43933467655277e+001,-6.53596859310423e-001

1.91852823865052e+004,-2.43933542625598e+001,-6.62720219407153e-001

1.94530989482457e+004,-2.43933619702790e+001,-6.71970915132394e-001

1.97246540898671e+004,-2.43933698946037e+001,-6.81350723103932e-001

1.99999999999999e+004,-2.43933780416184e+001,-6.90861444700527e-001

2.02791895958005e+004,-2.43933864175787e+001,-7.00504906406410e-001

2.05622765331213e+004,-2.43933950289153e+001,-7.10282960160078e-001

2.08493152168224e+004,-2.43934038822398e+001,-7.20197483707954e-001

2.11403608112276e+004,-2.43934129843491e+001,-7.30250380962759e-001

2.14354692507258e+004,-2.43934223422308e+001,-7.40443582366992e-001

2.17346972505211e+004,-2.43934319630689e+001,-7.50779045259874e-001

2.20381023175322e+004,-2.43934418542483e+001,-7.61258754253916e-001

2.23457427614443e+004,-2.43934520233619e+001,-7.71884721609300e-001

2.26576777059159e+004,-2.43934624782151e+001,-7.82658987620492e-001

2.29739670999406e+004,-2.43934732268323e+001,-7.93583621004363e-001

2.32946717293690e+004,-2.43934842774634e+001,-8.04660719293253e-001

2.36198532285905e+004,-2.43934956385891e+001,-8.15892409237437e-001

2.39495740923785e+004,-2.43935073189286e+001,-8.27280847206893e-001

2.42838976879009e+004,-2.43935193274451e+001,-8.38828219604534e-001

2.46228882668982e+004,-2.43935316733537e+001,-8.50536743280588e-001

2.49666109780322e+004,-2.43935443661273e+001,-8.62408665957589e-001

2.53151318794055e+004,-2.43935574155050e+001,-8.74446266653105e-001

2.56685179512580e+004,-2.43935708314985e+001,-8.86651856118699e-001

2.60268371088386e+004,-2.43935846244007e+001,-8.99027777275396e-001

2.63901582154578e+004,-2.43935988047926e+001,-9.11576405661188e-001

2.67585510957221e+004,-2.43936133835519e+001,-9.24300149882738e-001

2.71320865489533e+004,-2.43936283718616e+001,-9.37201452070640e-001

2.75108363627948e+004,-2.43936437812176e+001,-9.50282788346163e-001

2.78948733270080e+004,-2.43936596234383e+001,-9.63546669290875e-001

2.82842712474618e+004,-2.43936759106731e+001,-9.76995640421146e-001

2.86791049603164e+004,-2.43936926554120e+001,-9.90632282674143e-001

2.90794503464061e+004,-2.43937098704949e+001,-1.00445921289453e+000

2.94853843458219e+004,-2.43937275691212e+001,-1.01847908433355e+000

2.98969849726987e+004,-2.43937457648603e+001,-1.03269458714959e+000

3.03143313302078e+004,-2.43937644716615e+001,-1.04710844891943e+000

3.07375036257601e+004,-2.43937837038651e+001,-1.06172343515355e+000

3.11665831864199e+004,-2.43938034762124e+001,-1.07654234982120e+000

3.16016524745350e+004,-2.43938238038580e+001,-1.09156803588038e+000

3.20427951035848e+004,-2.43938447023805e+001,-1.10680337581497e+000

3.24900958542493e+004,-2.43938661877947e+001,-1.12225129218072e+000

3.29436406907028e+004,-2.43938882765637e+001,-1.13791474815748e+000

3.34035167771346e+004,-2.43939109856111e+001,-1.15379674810845e+000

3.38698124945009e+004,-2.43939343323344e+001,-1.16990033814776e+000

3.43426174575100e+004,-2.43939583346179e+001,-1.18622860671543e+000

3.48220225318448e+004,-2.43939830108458e+001,-1.20278468516057e+000

3.53081198516260e+004,-2.43940083799171e+001,-1.21957174833020e+000

3.58010028371187e+004,-2.43940344612589e+001,-1.23659301516863e+000

3.63007662126863e+004,-2.43940612748418e+001,-1.25385174932396e+000

3.68075060249948e+004,-2.43940888411950e+001,-1.27135125976052e+000

3.73213196614721e+004,-2.43941171814211e+001,-1.28909490138445e+000

3.78423058690237e+004,-2.43941463172130e+001,-1.30708607567113e+000

3.83705647730104e+004,-2.43941762708695e+001,-1.32532823130665e+000

3.89061978964912e+004,-2.43942070653127e+001,-1.34382486483414e+000

3.94493081797342e+004,-2.43942387241051e+001,-1.36257952131010e+000

3.99999999999998e+004,-2.43942712714672e+001,-1.38159579496977e+000

4.05583791916010e+004,-2.43943047322961e+001,-1.40087732989998e+000

4.11245530662425e+004,-2.43943391321839e+001,-1.42042782072123e+000

4.16986304336447e+004,-2.43943744974373e+001,-1.44025101328042e+000

4.22807216224550e+004,-2.43944108550973e+001,-1.46035070534989e+000

4.28709385014515e+004,-2.43944482329592e+001,-1.48073074733789e+000

4.34693945010421e+004,-2.43944866595942e+001,-1.50139504300682e+000

4.40762046350642e+004,-2.43945261643701e+001,-1.52234755020222e+000

4.46914855228886e+004,-2.43945667774739e+001,-1.54359228158943e+000

4.53153554118317e+004,-2.43946085299344e+001,-1.56513330540166e+000

4.59479341998812e+004,-2.43946514536451e+001,-1.58697474619720e+000

4.65893434587380e+004,-2.43946955813884e+001,-1.60912078562526e+000

4.72397064571810e+004,-2.43947409468600e+001,-1.63157566320405e+000

4.78991481847569e+004,-2.43947875846945e+001,-1.65434367710530e+000

4.85677953758016e+004,-2.43948355304906e+001,-1.67742918495371e+000

4.92457765337964e+004,-2.43948848208384e+001,-1.70083660463137e+000

4.99332219560642e+004,-2.43949354933461e+001,-1.72457041509741e+000

5.06302637588109e+004,-2.43949875866685e+001,-1.74863515721404e+000

5.13370359025159e+004,-2.43950411405358e+001,-1.77303543458549e+000

5.20536742176771e+004,-2.43950961957828e+001,-1.79777591440693e+000

5.27803164309155e+004,-2.43951527943798e+001,-1.82286132832380e+000

5.35171021914442e+004,-2.43952109794632e+001,-1.84829647330309e+000

5.42641730979066e+004,-2.43952707953679e+001,-1.87408621251406e+000

5.50216727255895e+004,-2.43953322876604e+001,-1.90023547622084e+000

5.57897466540159e+004,-2.43953955031722e+001,-1.92674926268629e+000

5.65685424949235e+004,-2.43954604900343e+001,-1.95363263908757e+000

5.73582099206328e+004,-2.43955272977135e+001,-1.98089074244059e+000

5.81589006928121e+004,-2.43955959770483e+001,-2.00852878053978e+000

5.89707686916437e+004,-2.43956665802866e+001,-2.03655203290716e+000

5.97939699453972e+004,-2.43957391611245e+001,-2.06496585175170e+000

6.06286626604156e+004,-2.43958137747452e+001,-2.09377566294472e+000

6.14750072515201e+004,-2.43958904778604e+001,-2.12298696700219e+000

6.23331663728396e+004,-2.43959693287512e+001,-2.15260534008305e+000

6.32033049490698e+004,-2.43960503873113e+001,-2.18263643499715e+000

6.40855902071694e+004,-2.43961337150909e+001,-2.21308598222646e+000

6.49801917084985e+004,-2.43962193753414e+001,-2.24395979095814e+000

6.58872813814055e+004,-2.43963074330617e+001,-2.27526375013064e+000

6.68070335542691e+004,-2.43963979550462e+001,-2.30700382949030e+000

6.77396249890018e+004,-2.43964910099324e+001,-2.33918608066354e+000

6.86852349150199e+004,-2.43965866682517e+001,-2.37181663823970e+000

6.96440450636895e+004,-2.43966850024804e+001,-2.40490172086534e+000

7.06162397032520e+004,-2.43967860870922e+001,-2.43844763235518e+000

7.16020056742374e+004,-2.43968899986119e+001,-2.47246076281234e+000

7.26015324253724e+004,-2.43969968156712e+001,-2.50694758976359e+000

7.36150120499896e+004,-2.43971066190649e+001,-2.54191467930608e+000

7.46426393229441e+004,-2.43972194918097e+001,-2.57736868726895e+000

7.56846117380472e+004,-2.43973355192032e+001,-2.61331636038718e+000

7.67411295460207e+004,-2.43974547888858e+001,-2.64976453748807e+000

7.78123957929823e+004,-2.43975773909029e+001,-2.68672015069252e+000

7.88986163594682e+004,-2.43977034177697e+001,-2.72419022662898e+000

7.99999999999995e+004,-2.43978329645370e+001,-2.76218188765989e+000

8.11167583832018e+004,-2.43979661288589e+001,-2.80070235312382e+000

8.22491061324848e+004,-2.43981030110622e+001,-2.83975894058963e+000

8.33972608672892e+004,-2.43982437142176e+001,-2.87935906712396e+000

8.45614432449099e+004,-2.43983883442124e+001,-2.91951025057379e+000

8.57418770029029e+004,-2.43985370098256e+001,-2.96022011086160e+000

8.69387890020841e+004,-2.43986898228041e+001,-3.00149637129497e+000

8.81524092701283e+004,-2.43988468979415e+001,-3.04334685988900e+000

8.93829710457770e+004,-2.43990083531584e+001,-3.08577951070428e+000

9.06307108236633e+004,-2.43991743095848e+001,-3.12880236519650e+000

9.18958683997622e+004,-2.43993448916444e+001,-3.17242357358231e+000

9.31786869174758e+004,-2.43995202271418e+001,-3.21665139621629e+000

9.44794129143618e+004,-2.43997004473500e+001,-3.26149420498542e+000

9.57982963695136e+004,-2.43998856871021e+001,-3.30696048471355e+000

9.71355907516031e+004,-2.44000760848839e+001,-3.35305883458277e+000

9.84915530675926e+004,-2.44002717829289e+001,-3.39979796956779e+000

9.98664439121282e+004,-2.44004729273162e+001,-3.44718672188308e+000

1.01260527517622e+005,-2.44006796680698e+001,-3.49523404244534e+000

1.02674071805032e+005,-2.44008921592612e+001,-3.54394900235013e+000

1.04107348435354e+005,-2.44011105591138e+001,-3.59334079436029e+000

1.05560632861831e+005,-2.44013350301096e+001,-3.64341873441054e+000

1.07034204382888e+005,-2.44015657390994e+001,-3.69419226312421e+000

1.08528346195813e+005,-2.44018028574142e+001,-3.74567094734435e+000

1.10043345451179e+005,-2.44020465609803e+001,-3.79786448167920e+000

1.11579493308032e+005,-2.44022970304363e+001,-3.85078269005952e+000

1.13137084989847e+005,-2.44025544512533e+001,-3.90443552731119e+000

1.14716419841265e+005,-2.44028190138575e+001,-3.95883308074066e+000

1.16317801385624e+005,-2.44030909137558e+001,-4.01398557173345e+000

1.17941537383287e+005,-2.44033703516638e+001,-4.06990335736692e+000

1.19587939890794e+005,-2.44036575336370e+001,-4.12659693203553e+000

1.21257325320831e+005,-2.44039526712054e+001,-4.18407692908920e+000

1.22950014503040e+005,-2.44042559815098e+001,-4.24235412248568e+000

1.24666332745679e+005,-2.44045676874421e+001,-4.30143942845443e+000

1.26406609898139e+005,-2.44048880177885e+001,-4.36134390717505e+000

1.28171180414339e+005,-2.44052172073753e+001,-4.42207876446704e+000

1.29960383416997e+005,-2.44055554972185e+001,-4.48365535349250e+000

1.31774562762811e+005,-2.44059031346757e+001,-4.54608517647212e+000

1.33614067108538e+005,-2.44062603736026e+001,-4.60937988641243e+000

1.35479249978003e+005,-2.44066274745107e+001,-4.67355128884614e+000

1.37370469830040e+005,-2.44070047047307e+001,-4.73861134358330e+000

1.39288090127379e+005,-2.44073923385771e+001,-4.80457216647670e+000

1.41232479406504e+005,-2.44077906575174e+001,-4.87144603119613e+000

1.43204011348474e+005,-2.44081999503445e+001,-4.93924537101614e+000

1.45203064850745e+005,-2.44086205133522e+001,-5.00798278061598e+000

1.47230024099979e+005,-2.44090526505146e+001,-5.07767101788757e+000

1.49285278645888e+005,-2.44094966736687e+001,-5.14832300575881e+000

1.51369223476094e+005,-2.44099529027007e+001,-5.21995183402448e+000

1.53482259092041e+005,-2.44104216657361e+001,-5.29257076119000e+000

1.55624791585964e+005,-2.44109032993325e+001,-5.36619321632496e+000

1.57797232718936e+005,-2.44113981486778e+001,-5.44083280092734e+000

1.59999999999999e+005,-2.44119065677901e+001,-5.51650329079808e+000

1.62233516766403e+005,-2.44124289197226e+001,-5.59321863792620e+000

1.64498212264969e+005,-2.44129655767718e+001,-5.67099297238331e+000

1.66794521734578e+005,-2.44135169206895e+001,-5.74984060422854e+000

1.69122886489819e+005,-2.44140833428987e+001,-5.82977602542326e+000

1.71483754005805e+005,-2.44146652447130e+001,-5.91081391175459e+000

1.73877578004168e+005,-2.44152630375603e+001,-5.99296912477047e+000

1.76304818540256e+005,-2.44158771432099e+001,-6.07625671372115e+000

1.78765942091554e+005,-2.44165079940037e+001,-6.16069191751319e+000

1.81261421647326e+005,-2.44171560330913e+001,-6.24629016667024e+000

1.83791736799524e+005,-2.44178217146691e+001,-6.33306708530408e+000

1.86357373834951e+005,-2.44185055042227e+001,-6.42103849309516e+000

1.88958825828723e+005,-2.44192078787747e+001,-6.51022040728084e+000

1.91596592739027e+005,-2.44199293271344e+001,-6.60062904465436e+000

1.94271181503206e+005,-2.44206703501534e+001,-6.69228082357192e+000

1.96983106135185e+005,-2.44214314609842e+001,-6.78519236596853e+000

1.99732887824256e+005,-2.44222131853428e+001,-6.87938049938446e+000

2.02521055035243e+005,-2.44230160617757e+001,-6.97486225899927e+000

2.05348143610063e+005,-2.44238406419310e+001,-7.07165488967637e+000

2.08214696870707e+005,-2.44246874908327e+001,-7.16977584801686e+000

2.11121265723661e+005,-2.44255571871608e+001,-7.26924280442234e+000

2.14068408765776e+005,-2.44264503235334e+001,-7.37007364516884e+000

2.17056692391625e+005,-2.44273675067947e+001,-7.47228647448978e+000

2.20086690902357e+005,-2.44283093583060e+001,-7.57589961667018e+000

2.23158986616063e+005,-2.44292765142420e+001,-7.68093161815065e+000

2.26274169979693e+005,-2.44302696258898e+001,-7.78740124964383e+000

2.29432839682530e+005,-2.44312893599539e+001,-7.89532750826097e+000

2.32635602771247e+005,-2.44323363988640e+001,-8.00472961965128e+000

2.35883074766574e+005,-2.44334114410883e+001,-8.11562704015354e+000

2.39175879781588e+005,-2.44345152014505e+001,-8.22803945896077e+000

2.42514650641661e+005,-2.44356484114517e+001,-8.34198680029777e+000

2.45900029006080e+005,-2.44368118195963e+001,-8.45748922561427e+000

2.49332665491357e+005,-2.44380061917235e+001,-8.57456713579117e+000

2.52813219796278e+005,-2.44392323113422e+001,-8.69324117336399e+000

2.56342360828676e+005,-2.44404909799724e+001,-8.81353222476073e+000

2.59920766833993e+005,-2.44417830174896e+001,-8.93546142255974e+000

2.63549125525621e+005,-2.44431092624759e+001,-9.05905014776164e+000

2.67228134217075e+005,-2.44444705725756e+001,-9.18432003208393e+000

2.70958499956006e+005,-2.44458678248561e+001,-9.31129296027242e+000

2.74740939660078e+005,-2.44473019161746e+001,-9.43999107243517e+000

2.78576180254757e+005,-2.44487737635504e+001,-9.57043676639709e+000

2.82464958813007e+005,-2.44502843045429e+001,-9.70265270007749e+000

2.86408022696948e+005,-2.44518344976366e+001,-9.83666179389172e+000

2.90406129701488e+005,-2.44534253226314e+001,-9.97248723317662e+000

2.94460048199957e+005,-2.44550577810405e+001,-1.01101524706421e+001

2.98570557291775e+005,-2.44567328964948e+001,-1.02496812288503e+001

3.02738446952187e+005,-2.44584517151548e+001,-1.03910975027206e+001

3.06964518184081e+005,-2.44602153061303e+001,-1.05344255620655e+001

3.11249583171928e+005,-2.44620247619078e+001,-1.06796899541547e+001

3.15594465437872e+005,-2.44638811987869e+001,-1.08269155063099e+001

3.19999999999997e+005,-2.44657857573250e+001,-1.09761273285326e+001

3.24467033532806e+005,-2.44677396027920e+001,-1.11273508161617e+001

3.28996424529938e+005,-2.44697439256341e+001,-1.12806116525661e+001

3.33589043469155e+005,-2.44717999419494e+001,-1.14359358118694e+001

3.38245772979638e+005,-2.44739088939724e+001,-1.15933495617099e+001

3.42967508011610e+005,-2.44760720505726e+001,-1.17528794660332e+001

3.47755156008335e+005,-2.44782907077630e+001,-1.19145523879206e+001

3.52609637080511e+005,-2.44805661892233e+001,-1.20783954924516e+001

3.57531884183106e+005,-2.44828998468356e+001,-1.22444362495999e+001

3.62522843294651e+005,-2.44852930612356e+001,-1.24127024371638e+001

3.67583473599047e+005,-2.44877472423774e+001,-1.25832221437296e+001

3.72714747669902e+005,-2.44902638301162e+001,-1.27560237716661e+001

3.77917651657445e+005,-2.44928442948060e+001,-1.29311360401511e+001

3.83193185478053e+005,-2.44954901379168e+001,-1.31085879882254e+001

3.88542363006410e+005,-2.44982028926689e+001,-1.32884089778756e+001

3.93966212270369e+005,-2.45009841246883e+001,-1.34706286971397e+001

3.99465775648511e+005,-2.45038354326809e+001,-1.36552771632365e+001

4.05042110070485e+005,-2.45067584491305e+001,-1.38423847257119e+001

4.10696287220124e+005,-2.45097548410175e+001,-1.40319820696012e+001

4.16429393741414e+005,-2.45128263105623e+001,-1.42241002186018e+001

4.22242531447321e+005,-2.45159745959930e+001,-1.44187705382520e+001

4.28136817531551e+005,-2.45192014723392e+001,-1.46160247391101e+001

4.34113384783250e+005,-2.45225087522527e+001,-1.48158948799290e+001

4.40173381804713e+005,-2.45258982868558e+001,-1.50184133708185e+001

4.46317973232124e+005,-2.45293719666186e+001,-1.52236129763892e+001

4.52548339959385e+005,-2.45329317222670e+001,-1.54315268188698e+001

4.58865679365059e+005,-2.45365795257212e+001,-1.56421883811889e+001

4.65271205542494e+005,-2.45403173910670e+001,-1.58556315100140e+001

4.71766149533147e+005,-2.45441473755591e+001,-1.60718904187349e+001

4.78351759563174e+005,-2.45480715806601e+001,-1.62909996903838e+001

4.85029301283321e+005,-2.45520921531132e+001,-1.65129942804793e+001

4.91800058012158e+005,-2.45562112860514e+001,-1.67379095197820e+001

4.98665330982714e+005,-2.45604312201434e+001,-1.69657811169506e+001

5.05626439592555e+005,-2.45647542447766e+001,-1.71966451610831e+001

5.12684721657352e+005,-2.45691826992784e+001,-1.74305381241296e+001

5.19841533667984e+005,-2.45737189741757e+001,-1.76674968631626e+001

5.27098251051240e+005,-2.45783655124944e+001,-1.79075586224875e+001

5.34456268434150e+005,-2.45831248110969e+001,-1.81507610355784e+001

5.41916999912011e+005,-2.45879994220602e+001,-1.83971421268213e+001

