Freq.,VOut,OutRef

1.00000000000000e+004,-2.22910692578897e+001,-3.27458596512101e-001

1.01395947979003e+004,-2.22910710570004e+001,-3.32029681677119e-001

1.02811382665607e+004,-2.22910729066852e+001,-3.36664573989511e-001

1.04246576084112e+004,-2.22910748083655e+001,-3.41364164044414e-001

1.05701804056138e+004,-2.22910767635026e+001,-3.46129354864260e-001

1.07177346253629e+004,-2.22910787735994e+001,-3.50961062069516e-001

1.08673486252606e+004,-2.22910808402001e+001,-3.55860214060933e-001

1.10190511587661e+004,-2.22910829648933e+001,-3.60827752189436e-001

1.11728713807222e+004,-2.22910851493116e+001,-3.65864630942581e-001

1.13288388529580e+004,-2.22910873951335e+001,-3.70971818126054e-001

1.14869835499703e+004,-2.22910897040849e+001,-3.76150295048671e-001

1.16473358646846e+004,-2.22910920779402e+001,-3.81401056710644e-001

1.18099266142953e+004,-2.22910945185233e+001,-3.86725111995212e-001

1.19747870461893e+004,-2.22910970277099e+001,-3.92123483861033e-001

1.21419488439505e+004,-2.22910996074278e+001,-3.97597209540772e-001

1.23114441334492e+004,-2.22911022596595e+001,-4.03147340736324e-001

1.24833054890161e+004,-2.22911049864427e+001,-4.08774943822862e-001

1.26575659397028e+004,-2.22911077898728e+001,-4.14481100054069e-001

1.28342589756290e+004,-2.22911106721038e+001,-4.20266905767006e-001

1.30134185544193e+004,-2.22911136353503e+001,-4.26133472593583e-001

1.31950791077289e+004,-2.22911166818891e+001,-4.32081927674031e-001

1.33792755478611e+004,-2.22911198140609e+001,-4.38113413873271e-001

1.35660432744767e+004,-2.22911230342723e+001,-4.44229089998256e-001

1.37554181813974e+004,-2.22911263449973e+001,-4.50430131020692e-001

1.39474366635040e+004,-2.22911297487796e+001,-4.56717728303575e-001

1.41421356237309e+004,-2.22911332482344e+001,-4.63093089828120e-001

1.43395524801583e+004,-2.22911368460499e+001,-4.69557440426320e-001

1.45397251732031e+004,-2.22911405449903e+001,-4.76112022013570e-001

1.47426921729110e+004,-2.22911443478974e+001,-4.82758093829021e-001

1.49484924863494e+004,-2.22911482576925e+001,-4.89496932675625e-001

1.51571656651040e+004,-2.22911522773791e+001,-4.96329833165366e-001

1.53687518128801e+004,-2.22911564100453e+001,-5.03258107964783e-001

1.55832915932100e+004,-2.22911606588656e+001,-5.10283088050645e-001

1.58008262372675e+004,-2.22911650271038e+001,-5.17406122960610e-001

1.60213975517924e+004,-2.22911695181153e+001,-5.24628581055078e-001

1.62450479271247e+004,-2.22911741353498e+001,-5.31951849776647e-001

1.64718203453514e+004,-2.22911788823537e+001,-5.39377335916887e-001

1.67017583885674e+004,-2.22911837627733e+001,-5.46906465885280e-001

1.69349062472505e+004,-2.22911887803571e+001,-5.54540685982275e-001

1.71713087287550e+004,-2.22911939389586e+001,-5.62281462677395e-001

1.74110112659224e+004,-2.22911992425400e+001,-5.70130282886034e-001

1.76540599258131e+004,-2.22912046951744e+001,-5.78088654259700e-001

1.79005014185594e+004,-2.22912103010493e+001,-5.86158105468681e-001

1.81503831063432e+004,-2.22912160644699e+001,-5.94340186498089e-001

1.84037530124975e+004,-2.22912219898622e+001,-6.02636468943057e-001

1.86606598307361e+004,-2.22912280817763e+001,-6.11048546309478e-001

1.89211529345119e+004,-2.22912343448901e+001,-6.19578034319563e-001

1.91852823865052e+004,-2.22912407840130e+001,-6.28226571217852e-001

1.94530989482457e+004,-2.22912474040891e+001,-6.36995818088113e-001

1.97246540898671e+004,-2.22912542102017e+001,-6.45887459167519e-001

1.99999999999999e+004,-2.22912612075761e+001,-6.54903202171413e-001

2.02791895958005e+004,-2.22912684015848e+001,-6.64044778617704e-001

2.05622765331213e+004,-2.22912757977508e+001,-6.73313944157257e-001

2.08493152168224e+004,-2.22912834017523e+001,-6.82712478910650e-001

2.11403608112276e+004,-2.22912912194267e+001,-6.92242187807568e-001

2.14354692507258e+004,-2.22912992567752e+001,-7.01904900931023e-001

2.17346972505211e+004,-2.22913075199672e+001,-7.11702473867272e-001

2.20381023175322e+004,-2.22913160153455e+001,-7.21636788059746e-001

2.23457427614443e+004,-2.22913247494308e+001,-7.31709751166641e-001

2.26576777059159e+004,-2.22913337289264e+001,-7.41923297428692e-001

2.29739670999406e+004,-2.22913429607240e+001,-7.52279388033222e-001

2.32946717293690e+004,-2.22913524519084e+001,-7.62780011491362e-001

2.36198532285905e+004,-2.22913622097633e+001,-7.73427184017054e-001

2.39495740923785e+004,-2.22913722417763e+001,-7.84222949909675e-001

2.42838976879009e+004,-2.22913825556454e+001,-7.95169381944966e-001

2.46228882668982e+004,-2.22913931592842e+001,-8.06268581769798e-001

2.49666109780322e+004,-2.22914040608284e+001,-8.17522680301438e-001

2.53151318794055e+004,-2.22914152686415e+001,-8.28933838135038e-001

2.56685179512580e+004,-2.22914267913217e+001,-8.40504245954054e-001

2.60268371088386e+004,-2.22914386377082e+001,-8.52236124946572e-001

2.63901582154578e+004,-2.22914508168879e+001,-8.64131727228967e-001

2.67585510957221e+004,-2.22914633382024e+001,-8.76193336274717e-001

2.71320865489533e+004,-2.22914762112553e+001,-8.88423267346201e-001

2.75108363627948e+004,-2.22914894459189e+001,-9.00823867938855e-001

2.78948733270080e+004,-2.22915030523426e+001,-9.13397518222621e-001

2.82842712474618e+004,-2.22915170409598e+001,-9.26146631498608e-001

2.86791049603164e+004,-2.22915314224965e+001,-9.39073654654676e-001

2.90794503464061e+004,-2.22915462079790e+001,-9.52181068630584e-001

2.94853843458219e+004,-2.22915614087424e+001,-9.65471388890126e-001

2.98969849726987e+004,-2.22915770364393e+001,-9.78947165896220e-001

3.03143313302078e+004,-2.22915931030488e+001,-9.92610985597078e-001

3.07375036257601e+004,-2.22916096208850e+001,-1.00646546991478e+000

3.11665831864199e+004,-2.22916266026073e+001,-1.02051327724314e+000

3.16016524745350e+004,-2.22916440612291e+001,-1.03475710295076e+000

3.20427951035848e+004,-2.22916620101281e+001,-1.04919967989241e+000

3.24900958542493e+004,-2.22916804630568e+001,-1.06384377892485e+000

3.29436406907028e+004,-2.22916994341520e+001,-1.07869220943316e+000

3.34035167771346e+004,-2.22917189379464e+001,-1.09374781986053e+000

3.38698124945009e+004,-2.22917389893792e+001,-1.10901349824756e+000

3.43426174575100e+004,-2.22917596038075e+001,-1.12449217277786e+000

3.48220225318448e+004,-2.22917807970179e+001,-1.14018681233136e+000

3.53081198516260e+004,-2.22918025852385e+001,-1.15610042704415e+000

3.58010028371187e+004,-2.22918249851511e+001,-1.17223606887734e+000

3.63007662126863e+004,-2.22918480139040e+001,-1.18859683219281e+000

3.68075060249948e+004,-2.22918716891246e+001,-1.20518585433544e+000

3.73213196614721e+004,-2.22918960289333e+001,-1.22200631622530e+000

3.78423058690237e+004,-2.22919210519564e+001,-1.23906144295598e+000

3.83705647730104e+004,-2.22919467773411e+001,-1.25635450440192e+000

3.89061978964912e+004,-2.22919732247690e+001,-1.27388881583357e+000

3.94493081797342e+004,-2.22920004144715e+001,-1.29166773854036e+000

3.99999999999998e+004,-2.22920283672451e+001,-1.30969468046176e+000

4.05583791916010e+004,-2.22920571044667e+001,-1.32797309682783e+000

4.11245530662425e+004,-2.22920866481100e+001,-1.34650649080782e+000

4.16986304336447e+004,-2.22921170207619e+001,-1.36529841416518e+000

4.22807216224550e+004,-2.22921482456394e+001,-1.38435246792496e+000

4.28709385014515e+004,-2.22921803466074e+001,-1.40367230304759e+000

4.34693945010421e+004,-2.22922133481960e+001,-1.42326162111147e+000

4.40762046350642e+004,-2.22922472756196e+001,-1.44312417500520e+000

4.46914855228886e+004,-2.22922821547953e+001,-1.46326376962934e+000

4.53153554118317e+004,-2.22923180123626e+001,-1.48368426260534e+000

4.59479341998812e+004,-2.22923548757032e+001,-1.50438956499723e+000

4.65893434587380e+004,-2.22923927729618e+001,-1.52538364203767e+000

4.72397064571810e+004,-2.22924317330663e+001,-1.54667051386965e+000

4.78991481847569e+004,-2.22924717857508e+001,-1.56825425629056e+000

4.85677953758016e+004,-2.22925129615763e+001,-1.59013900151408e+000

4.92457765337964e+004,-2.22925552919546e+001,-1.61232893893403e+000

4.99332219560642e+004,-2.22925988091714e+001,-1.63482831590331e+000

5.06302637588109e+004,-2.22926435464099e+001,-1.65764143852136e+000

5.13370359025159e+004,-2.22926895377763e+001,-1.68077267243047e+000

5.20536742176771e+004,-2.22927368183242e+001,-1.70422644362473e+000

5.27803164309155e+004,-2.22927854240817e+001,-1.72800723926592e+000

5.35171021914442e+004,-2.22928353920772e+001,-1.75211960851416e+000

5.42641730979066e+004,-2.22928867603674e+001,-1.77656816336451e+000

5.50216727255895e+004,-2.22929395680652e+001,-1.80135757949870e+000

5.57897466540159e+004,-2.22929938553689e+001,-1.82649259714223e+000

5.65685424949235e+004,-2.22930496635914e+001,-1.85197802193846e+000

5.73582099206328e+004,-2.22931070351916e+001,-1.87781872582820e+000

5.81589006928121e+004,-2.22931660138046e+001,-1.90401964794352e+000

5.89707686916437e+004,-2.22932266442747e+001,-1.93058579551210e+000

5.97939699453972e+004,-2.22932889726879e+001,-1.95752224477216e+000

6.06286626604156e+004,-2.22933530464060e+001,-1.98483414189840e+000

6.14750072515201e+004,-2.22934189141012e+001,-2.01252670394156e+000

6.23331663728396e+004,-2.22934866257919e+001,-2.04060521977704e+000

6.32033049490698e+004,-2.22935562328792e+001,-2.06907505106594e+000

6.40855902071694e+004,-2.22936277881845e+001,-2.09794163322921e+000

6.49801917084985e+004,-2.22937013459879e+001,-2.12721047643157e+000

6.58872813814055e+004,-2.22937769620683e+001,-2.15688716657805e+000

6.68070335542691e+004,-2.22938546937430e+001,-2.18697736632399e+000

6.77396249890018e+004,-2.22939345999104e+001,-2.21748681609529e+000

6.86852349150199e+004,-2.22940167410919e+001,-2.24842133512196e+000

6.96440450636895e+004,-2.22941011794763e+001,-2.27978682248284e+000

7.06162397032520e+004,-2.22941879789645e+001,-2.31158925816439e+000

7.16020056742374e+004,-2.22942772052153e+001,-2.34383470413135e+000

7.26015324253724e+004,-2.22943689256936e+001,-2.37652930540873e+000

7.36150120499896e+004,-2.22944632097179e+001,-2.40967929117870e+000

7.46426393229441e+004,-2.22945601285109e+001,-2.44329097588812e+000

7.56846117380472e+004,-2.22946597552499e+001,-2.47737076037040e+000

7.67411295460207e+004,-2.22947621651192e+001,-2.51192513298042e+000

7.78123957929823e+004,-2.22948674353646e+001,-2.54696067074023e+000

7.88986163594682e+004,-2.22949756453471e+001,-2.58248404050048e+000

7.99999999999995e+004,-2.22950868766003e+001,-2.61850200011431e+000

8.11167583832018e+004,-2.22952012128878e+001,-2.65502139962302e+000

8.22491061324848e+004,-2.22953187402624e+001,-2.69204918245708e+000

8.33972608672892e+004,-2.22954395471272e+001,-2.72959238664886e+000

8.45614432449099e+004,-2.22955637242976e+001,-2.76765814605990e+000

8.57418770029029e+004,-2.22956913650651e+001,-2.80625369162124e+000

8.69387890020841e+004,-2.22958225652629e+001,-2.84538635258737e+000

8.81524092701283e+004,-2.22959574233324e+001,-2.88506355780328e+000

8.93829710457770e+004,-2.22960960403925e+001,-2.92529283698601e+000

9.06307108236633e+004,-2.22962385203096e+001,-2.96608182201927e+000

9.18958683997622e+004,-2.22963849697694e+001,-3.00743824826253e+000

9.31786869174758e+004,-2.22965354983510e+001,-3.04936995587254e+000

9.44794129143618e+004,-2.22966902186024e+001,-3.09188489114031e+000

9.57982963695136e+004,-2.22968492461177e+001,-3.13499110784075e+000

9.71355907516031e+004,-2.22970126996167e+001,-3.17869676859625e+000

9.84915530675926e+004,-2.22971807010254e+001,-3.22301014625563e+000

9.98664439121282e+004,-2.22973533755595e+001,-3.26793962528443e+000

1.01260527517622e+005,-2.22975308518096e+001,-3.31349370317160e+000

1.02674071805032e+005,-2.22977132618274e+001,-3.35968099184887e+000

1.04107348435354e+005,-2.22979007412155e+001,-3.40651021912432e+000

1.05560632861831e+005,-2.22980934292179e+001,-3.45399023012995e+000

1.07034204382888e+005,-2.22982914688135e+001,-3.50212998878295e+000

1.08528346195813e+005,-2.22984950068117e+001,-3.55093857926162e+000

1.10043345451179e+005,-2.22987041939490e+001,-3.60042520749448e+000

1.11579493308032e+005,-2.22989191849899e+001,-3.65059920266350e+000

1.13137084989847e+005,-2.22991401388279e+001,-3.70147001872163e+000

1.14716419841265e+005,-2.22993672185900e+001,-3.75304723592398e+000

1.16317801385624e+005,-2.22996005917438e+001,-3.80534056237233e+000

1.17941537383287e+005,-2.22998404302057e+001,-3.85835983557436e+000

1.19587939890794e+005,-2.23000869104525e+001,-3.91211502401611e+000

1.21257325320831e+005,-2.23003402136354e+001,-3.96661622874805e+000

1.22950014503040e+005,-2.23006005256959e+001,-4.02187368498563e+000

1.24666332745679e+005,-2.23008680374845e+001,-4.07789776372244e+000

1.26406609898139e+005,-2.23011429448824e+001,-4.13469897335767e+000

1.28171180414339e+005,-2.23014254489246e+001,-4.19228796133664e+000

1.29960383416997e+005,-2.23017157559269e+001,-4.25067551580565e+000

1.31774562762811e+005,-2.23020140776146e+001,-4.30987256727887e+000

1.33614067108538e+005,-2.23023206312546e+001,-4.36989019031982e+000

1.35479249978003e+005,-2.23026356397891e+001,-4.43073960523508e+000

1.37370469830040e+005,-2.23029593319735e+001,-4.49243217978302e+000

1.39288090127379e+005,-2.23032919425159e+001,-4.55497943089227e+000

1.41232479406504e+005,-2.23036337122197e+001,-4.61839302639710e+000

1.43204011348474e+005,-2.23039848881292e+001,-4.68268478678348e+000

1.45203064850745e+005,-2.23043457236779e+001,-4.74786668694818e+000

1.47230024099979e+005,-2.23047164788397e+001,-4.81395085797136e+000

1.49285278645888e+005,-2.23050974202829e+001,-4.88094958890130e+000

1.51369223476094e+005,-2.23054888215272e+001,-4.94887532855261e+000

1.53482259092041e+005,-2.23058909631037e+001,-5.01774068731599e+000

1.55624791585964e+005,-2.23063041327175e+001,-5.08755843898100e+000

1.57797232718936e+005,-2.23067286254141e+001,-5.15834152257181e+000

1.59999999999999e+005,-2.23071647437476e+001,-5.23010304419431e+000

1.62233516766403e+005,-2.23076127979529e+001,-5.30285627889646e+000

1.64498212264969e+005,-2.23080731061205e+001,-5.37661467254070e+000

1.66794521734578e+005,-2.23085459943749e+001,-5.45139184368754e+000

1.69122886489819e+005,-2.23090317970545e+001,-5.52720158549393e+000

1.71483754005805e+005,-2.23095308568969e+001,-5.60405786762099e+000

1.73877578004168e+005,-2.23100435252254e+001,-5.68197483815584e+000

1.76304818540256e+005,-2.23105701621392e+001,-5.76096682554493e+000

1.78765942091554e+005,-2.23111111367071e+001,-5.84104834053970e+000

1.81261421647326e+005,-2.23116668271640e+001,-5.92223407815428e+000

1.83791736799524e+005,-2.23122376211100e+001,-6.00453891963658e+000

1.86357373834951e+005,-2.23128239157137e+001,-6.08797793444980e+000

1.88958825828723e+005,-2.23134261179178e+001,-6.17256638226887e+000

1.91596592739027e+005,-2.23140446446484e+001,-6.25831971498709e+000

1.94271181503206e+005,-2.23146799230266e+001,-6.34525357873743e+000

1.96983106135185e+005,-2.23153323905846e+001,-6.43338381592629e+000

1.99732887824256e+005,-2.23160024954837e+001,-6.52272646727912e+000

2.02521055035243e+005,-2.23166906967359e+001,-6.61329777390080e+000

2.05348143610063e+005,-2.23173974644292e+001,-6.70511417935001e+000

2.08214696870707e+005,-2.23181232799554e+001,-6.79819233172546e+000

2.11121265723661e+005,-2.23188686362410e+001,-6.89254908576803e+000

2.14068408765776e+005,-2.23196340379824e+001,-6.98820150497745e+000

2.17056692391625e+005,-2.23204200018828e+001,-7.08516686374270e+000

2.20086690902357e+005,-2.23212270568936e+001,-7.18346264948932e+000

2.23158986616063e+005,-2.23220557444585e+001,-7.28310656484160e+000

2.26274169979693e+005,-2.23229066187606e+001,-7.38411652980172e+000

2.29432839682530e+005,-2.23237802469736e+001,-7.48651068394524e+000

2.32635602771247e+005,-2.23246772095157e+001,-7.59030738863524e+000

2.35883074766574e+005,-2.23255981003068e+001,-7.69552522925377e+000

2.39175879781588e+005,-2.23265435270302e+001,-7.80218301745263e+000

2.42514650641661e+005,-2.23275141113959e+001,-7.91029979342391e+000

2.45900029006080e+005,-2.23285104894094e+001,-8.01989482819091e+000

2.49332665491357e+005,-2.23295333116428e+001,-8.13098762592121e+000

2.52813219796278e+005,-2.23305832435099e+001,-8.24359792626004e+000

2.56342360828676e+005,-2.23316609655456e+001,-8.35774570669005e+000

2.59920766833993e+005,-2.23327671736881e+001,-8.47345118491161e+000

2.63549125525621e+005,-2.23339025795664e+001,-8.59073482125196e+000

2.67228134217075e+005,-2.23350679107905e+001,-8.70961732109797e+000

2.70958499956006e+005,-2.23362639112472e+001,-8.83011963735822e+000

2.74740939660078e+005,-2.23374913413992e+001,-8.95226297295256e+000

2.78576180254757e+005,-2.23387509785895e+001,-9.07606878333225e+000

2.82464958813007e+005,-2.23400436173503e+001,-9.20155877903099e+000

2.86408022696948e+005,-2.23413700697166e+001,-9.32875492824833e+000

2.90406129701488e+005,-2.23427311655457e+001,-9.45767945946703e+000

2.94460048199957e+005,-2.23441277528415e+001,-9.58835486410416e+000

2.98570557291775e+005,-2.23455606980852e+001,-9.72080389920038e+000

3.02738446952187e+005,-2.23470308865711e+001,-9.85504959014524e+000

3.06964518184081e+005,-2.23485392227498e+001,-9.99111523344146e+000

3.11249583171928e+005,-2.23500866305778e+001,-1.01290243995104e+001

3.15594465437872e+005,-2.23516740538737e+001,-1.02688009355376e+001

3.19999999999997e+005,-2.23533024566826e+001,-1.04104689683612e+001

3.24467033532806e+005,-2.23549728236484e+001,-1.05540529074046e+001

3.28996424529938e+005,-2.23566861603943e+001,-1.06995774476532e+001

3.33589043469155e+005,-2.23584434939123e+001,-1.08470675726767e+001

3.38245772979638e+005,-2.23602458729624e+001,-1.09965485576991e+001

3.42967508011610e+005,-2.23620943684817e+001,-1.11480459727147e+001

3.47755156008335e+005,-2.23639900740046e+001,-1.13015856856527e+001

3.52609637080511e+005,-2.23659341060939e+001,-1.14571938655905e+001

3.57531884183106e+005,-2.23679276047838e+001,-1.16148969860151e+001

3.62522843294651e+005,-2.23699717340367e+001,-1.17747218281336e+001

3.67583473599047e+005,-2.23720676822120e+001,-1.19366954842327e+001

3.72714747669902e+005,-2.23742166625505e+001,-1.21008453610857e+001

3.77917651657445e+005,-2.23764199136732e+001,-1.22671991834085e+001

3.83193185478053e+005,-2.23786787000964e+001,-1.24357849973601e+001

3.88542363006410e+005,-2.23809943127637e+001,-1.26066311740915e+001

3.93966212270369e+005,-2.23833680695952e+001,-1.27797664133357e+001

3.99465775648511e+005,-2.23858013160568e+001,-1.29552197470412e+001

4.05042110070485e+005,-2.23882954257475e+001,-1.31330205430450e+001

4.10696287220124e+005,-2.23908518010088e+001,-1.33131985087809e+001

4.16429393741414e+005,-2.23934718735555e+001,-1.34957836950234e+001

4.22242531447321e+005,-2.23961571051285e+001,-1.36808064996595e+001

4.28136817531551e+005,-2.23989089881733e+001,-1.38682976714866e+001

4.34113384783250e+005,-2.24017290465411e+001,-1.40582883140321e+001

4.40173381804713e+005,-2.24046188362179e+001,-1.42508098893871e+001

4.46317973232124e+005,-2.24075799460798e+001,-1.44458942220499e+001

4.52548339959385e+005,-2.24106139986765e+001,-1.46435735027737e+001

4.58865679365059e+005,-2.24137226510440e+001,-1.48438802924089e+001

4.65271205542494e+005,-2.24169075955481e+001,-1.50468475257341e+001

4.71766149533147e+005,-2.24201705607586e+001,-1.52525085152677e+001

4.78351759563174e+005,-2.24235133123566e+001,-1.54608969550490e+001

4.85029301283321e+005,-2.24269376540740e+001,-1.56720469243815e+001

4.91800058012158e+005,-2.24304454286685e+001,-1.58859928915260e+001

4.98665330982714e+005,-2.24340385189329e+001,-1.61027697173335e+001

5.05626439592555e+005,-2.24377188487404e+001,-1.63224126588071e+001

5.12684721657352e+005,-2.24414883841274e+001,-1.65449573725765e+001

5.19841533667984e+005,-2.24453491344126e+001,-1.67704399182772e+001

5.27098251051240e+005,-2.24493031533547e+001,-1.69988967618162e+001

5.34456268434150e+005,-2.24533525403487e+001,-1.72303647785130e+001

5.41916999912011e+005,-2.24574994416610e+001,-1.74648812560976e+001

