Freq.,VOut,OutRef

1.00000000000000e+004,-1.75473992877840e+001,-2.81237519959979e-001

1.01395947979003e+004,-1.75474002197993e+001,-2.85163414135689e-001

1.02811382665607e+004,-1.75474011780136e+001,-2.89144110253908e-001

1.04246576084112e+004,-1.75474021631638e+001,-2.93180373255797e-001

1.05701804056138e+004,-1.75474031760064e+001,-2.97272978761504e-001

1.07177346253629e+004,-1.75474042173201e+001,-3.01422713213201e-001

1.08673486252606e+004,-1.75474052879050e+001,-3.05630374028883e-001

1.10190511587661e+004,-1.75474063885840e+001,-3.09896769755108e-001

1.11728713807222e+004,-1.75474075202025e+001,-3.14222720223629e-001

1.13288388529580e+004,-1.75474086836304e+001,-3.18609056704736e-001

1.14869835499703e+004,-1.75474098797615e+001,-3.23056622071690e-001

1.16473358646846e+004,-1.75474111095151e+001,-3.27566270958194e-001

1.18099266142953e+004,-1.75474123738360e+001,-3.32138869925997e-001

1.19747870461893e+004,-1.75474136736959e+001,-3.36775297628566e-001

1.21419488439505e+004,-1.75474150100933e+001,-3.41476444982288e-001

1.23114441334492e+004,-1.75474163840554e+001,-3.46243215333111e-001

1.24833054890161e+004,-1.75474177966375e+001,-3.51076524637107e-001

1.26575659397028e+004,-1.75474192489252e+001,-3.55977301628531e-001

1.28342589756290e+004,-1.75474207420344e+001,-3.60946488001980e-001

1.30134185544193e+004,-1.75474222771121e+001,-3.65985038593800e-001

1.31950791077289e+004,-1.75474238553379e+001,-3.71093921563364e-001

1.33792755478611e+004,-1.75474254779242e+001,-3.76274118579351e-001

1.35660432744767e+004,-1.75474271461176e+001,-3.81526625009109e-001

1.37554181813974e+004,-1.75474288611999e+001,-3.86852450107452e-001

1.39474366635040e+004,-1.75474306244886e+001,-3.92252617213538e-001

1.41421356237309e+004,-1.75474324373383e+001,-3.97728163943978e-001

1.43395524801583e+004,-1.75474343011419e+001,-4.03280142392877e-001

1.45397251732031e+004,-1.75474362173308e+001,-4.08909619336197e-001

1.47426921729110e+004,-1.75474381873774e+001,-4.14617676431862e-001

1.49484924863494e+004,-1.75474402127949e+001,-4.20405410430566e-001

1.51571656651040e+004,-1.75474422951391e+001,-4.26273933385314e-001

1.53687518128801e+004,-1.75474444360096e+001,-4.32224372863648e-001

1.55832915932100e+004,-1.75474466370509e+001,-4.38257872165685e-001

1.58008262372675e+004,-1.75474488999535e+001,-4.44375590542187e-001

1.60213975517924e+004,-1.75474512264557e+001,-4.50578703416678e-001

1.62450479271247e+004,-1.75474536183443e+001,-4.56868402611306e-001

1.64718203453514e+004,-1.75474560774566e+001,-4.63245896574953e-001

1.67017583885674e+004,-1.75474586056810e+001,-4.69712410616265e-001

1.69349062472505e+004,-1.75474612049593e+001,-4.76269187137161e-001

1.71713087287550e+004,-1.75474638772879e+001,-4.82917485869647e-001

1.74110112659224e+004,-1.75474666247188e+001,-4.89658584120896e-001

1.76540599258131e+004,-1.75474694493620e+001,-4.96493777015452e-001

1.79005014185594e+004,-1.75474723533867e+001,-5.03424377743477e-001

1.81503831063432e+004,-1.75474753390228e+001,-5.10451717813585e-001

1.84037530124975e+004,-1.75474784085629e+001,-5.17577147307460e-001

1.86606598307361e+004,-1.75474815643640e+001,-5.24802035137397e-001

1.89211529345119e+004,-1.75474848088491e+001,-5.32127769311002e-001

1.91852823865052e+004,-1.75474881445093e+001,-5.39555757194625e-001

1.94530989482457e+004,-1.75474915739058e+001,-5.47087425783599e-001

1.97246540898671e+004,-1.75474950996714e+001,-5.54724221977003e-001

1.99999999999999e+004,-1.75474987245128e+001,-5.62467612852949e-001

2.02791895958005e+004,-1.75475024512128e+001,-5.70319085950867e-001

2.05622765331213e+004,-1.75475062826322e+001,-5.78280149554324e-001

2.08493152168224e+004,-1.75475102217120e+001,-5.86352332982538e-001

2.11403608112276e+004,-1.75475142714760e+001,-5.94537186880218e-001

2.14354692507258e+004,-1.75475184350324e+001,-6.02836283517747e-001

2.17346972505211e+004,-1.75475227155769e+001,-6.11251217088420e-001

2.20381023175322e+004,-1.75475271163947e+001,-6.19783604016396e-001

2.23457427614443e+004,-1.75475316408633e+001,-6.28435083264913e-001

2.26576777059159e+004,-1.75475362924548e+001,-6.37207316648071e-001

2.29739670999406e+004,-1.75475410747387e+001,-6.46101989152304e-001

2.32946717293690e+004,-1.75475459913847e+001,-6.55120809256724e-001

2.36198532285905e+004,-1.75475510461652e+001,-6.64265509258882e-001

2.39495740923785e+004,-1.75475562429585e+001,-6.73537845607784e-001

2.42838976879009e+004,-1.75475615857517e+001,-6.82939599238938e-001

2.46228882668982e+004,-1.75475670786436e+001,-6.92472575914804e-001

2.49666109780322e+004,-1.75475727258480e+001,-7.02138606569210e-001

2.53151318794055e+004,-1.75475785316965e+001,-7.11939547659715e-001

2.56685179512580e+004,-1.75475845006426e+001,-7.21877281518758e-001

2.60268371088386e+004,-1.75475906372642e+001,-7.31953716716603e-001

2.63901582154578e+004,-1.75475969462677e+001,-7.42170788423409e-001

2.67585510957221e+004,-1.75476034324913e+001,-7.52530458780017e-001

2.71320865489533e+004,-1.75476101009089e+001,-7.63034717272474e-001

2.75108363627948e+004,-1.75476169566335e+001,-7.73685581111894e-001

2.78948733270080e+004,-1.75476240049217e+001,-7.84485095618702e-001

2.82842712474618e+004,-1.75476312511768e+001,-7.95435334615437e-001

2.86791049603164e+004,-1.75476387009539e+001,-8.06538400818364e-001

2.90794503464061e+004,-1.75476463599637e+001,-8.17796426241410e-001

2.94853843458219e+004,-1.75476542340763e+001,-8.29211572603332e-001

2.98969849726987e+004,-1.75476623293266e+001,-8.40786031737666e-001

3.03143313302078e+004,-1.75476706519184e+001,-8.52522026012131e-001

3.07375036257601e+004,-1.75476792082290e+001,-8.64421808751543e-001

3.11665831864199e+004,-1.75476880048143e+001,-8.76487664667489e-001

3.16016524745350e+004,-1.75476970484137e+001,-8.88721910293462e-001

3.20427951035848e+004,-1.75477063459551e+001,-9.01126894426250e-001

3.24900958542493e+004,-1.75477159045602e+001,-9.13704998573138e-001

3.29436406907028e+004,-1.75477257315501e+001,-9.26458637404619e-001

3.34035167771346e+004,-1.75477358344503e+001,-9.39390259215379e-001

3.38698124945009e+004,-1.75477462209973e+001,-9.52502346387778e-001

3.43426174575100e+004,-1.75477568991434e+001,-9.65797415867128e-001

3.48220225318448e+004,-1.75477678770636e+001,-9.79278019637480e-001

3.53081198516260e+004,-1.75477791631611e+001,-9.92946745208619e-001

3.58010028371187e+004,-1.75477907660744e+001,-1.00680621610639e+000

3.63007662126863e+004,-1.75478026946829e+001,-1.02085909237213e+000

3.68075060249948e+004,-1.75478149581145e+001,-1.03510807106751e+000

3.73213196614721e+004,-1.75478275657517e+001,-1.04955588678705e+000

3.78423058690237e+004,-1.75478405272395e+001,-1.06420531217596e+000

3.83705647730104e+004,-1.75478538524917e+001,-1.07905915845733e+000

3.89061978964912e+004,-1.75478675516995e+001,-1.09412027596501e+000

3.94493081797342e+004,-1.75478816353380e+001,-1.10939155468371e+000

3.99999999999998e+004,-1.75478961141749e+001,-1.12487592479752e+000

4.05583791916010e+004,-1.75479109992784e+001,-1.14057635724361e+000

4.11245530662425e+004,-1.75479263020254e+001,-1.15649586427596e+000

4.16986304336447e+004,-1.75479420341102e+001,-1.17263750003549e+000

4.22807216224550e+004,-1.75479582075529e+001,-1.18900436112808e+000

4.28709385014515e+004,-1.75479748347090e+001,-1.20559958720913e+000

4.34693945010421e+004,-1.75479919282782e+001,-1.22242636157838e+000

4.40762046350642e+004,-1.75480095013143e+001,-1.23948791178123e+000

4.46914855228886e+004,-1.75480275672343e+001,-1.25678751021805e+000

4.53153554118317e+004,-1.75480461398293e+001,-1.27432847476140e+000

4.59479341998812e+004,-1.75480652332743e+001,-1.29211416938368e+000

4.65893434587380e+004,-1.75480848621388e+001,-1.31014800479045e+000

4.72397064571810e+004,-1.75481050413976e+001,-1.32843343906342e+000

4.78991481847569e+004,-1.75481257864424e+001,-1.34697397831262e+000

4.85677953758016e+004,-1.75481471130927e+001,-1.36577317733562e+000

4.92457765337964e+004,-1.75481690376081e+001,-1.38483464028742e+000

4.99332219560642e+004,-1.75481915767000e+001,-1.40416202135808e+000

5.06302637588109e+004,-1.75482147475439e+001,-1.42375902546005e+000

5.13370359025159e+004,-1.75482385677930e+001,-1.44362940892277e+000

5.20536742176771e+004,-1.75482630555900e+001,-1.46377698020017e+000

5.27803164309155e+004,-1.75482882295817e+001,-1.48420560058295e+000

5.35171021914442e+004,-1.75483141089321e+001,-1.50491918492457e+000

5.42641730979066e+004,-1.75483407133368e+001,-1.52592170237378e+000

5.50216727255895e+004,-1.75483680630376e+001,-1.54721717711801e+000

5.57897466540159e+004,-1.75483961788372e+001,-1.56880968913660e+000

5.65685424949235e+004,-1.75484250821147e+001,-1.59070337496359e+000

5.73582099206328e+004,-1.75484547948415e+001,-1.61290242846073e+000

5.81589006928121e+004,-1.75484853395968e+001,-1.63541110160062e+000

5.89707686916437e+004,-1.75485167395852e+001,-1.65823370525954e+000

5.97939699453972e+004,-1.75485490186526e+001,-1.68137461002212e+000

6.06286626604156e+004,-1.75485822013044e+001,-1.70483824699365e+000

6.14750072515201e+004,-1.75486163127231e+001,-1.72862910862646e+000

6.23331663728396e+004,-1.75486513787868e+001,-1.75275174955502e+000

6.32033049490698e+004,-1.75486874260881e+001,-1.77721078744099e+000

6.40855902071694e+004,-1.75487244819532e+001,-1.80201090383142e+000

6.49801917084985e+004,-1.75487625744621e+001,-1.82715684502646e+000

6.58872813814055e+004,-1.75488017324686e+001,-1.85265342295891e+000

6.68070335542691e+004,-1.75488419856215e+001,-1.87850551608500e+000

6.77396249890018e+004,-1.75488833643861e+001,-1.90471807028583e+000

6.86852349150199e+004,-1.75489259000658e+001,-1.93129609978161e+000

6.96440450636895e+004,-1.75489696248250e+001,-1.95824468805569e+000

7.06162397032520e+004,-1.75490145717120e+001,-1.98556898879397e+000

7.16020056742374e+004,-1.75490607746830e+001,-2.01327422683061e+000

7.26015324253724e+004,-1.75491082686264e+001,-2.04136569911150e+000

7.36150120499896e+004,-1.75491570893873e+001,-2.06984877566642e+000

7.46426393229441e+004,-1.75492072737938e+001,-2.09872890059326e+000

7.56846117380472e+004,-1.75492588596825e+001,-2.12801159305785e+000

7.67411295460207e+004,-1.75493118859260e+001,-2.15770244830238e+000

7.78123957929823e+004,-1.75493663924602e+001,-2.18780713866859e+000

7.88986163594682e+004,-1.75494224203126e+001,-2.21833141463350e+000

7.99999999999995e+004,-1.75494800116312e+001,-2.24928110585856e+000

8.11167583832018e+004,-1.75495392097143e+001,-2.28066212224918e+000

8.22491061324848e+004,-1.75496000590409e+001,-2.31248045503082e+000

8.33972608672892e+004,-1.75496626053018e+001,-2.34474217783630e+000

8.45614432449099e+004,-1.75497268954316e+001,-2.37745344780652e+000

8.57418770029029e+004,-1.75497929776415e+001,-2.41062050670540e+000

8.69387890020841e+004,-1.75498609014526e+001,-2.44424968204821e+000

8.81524092701283e+004,-1.75499307177308e+001,-2.47834738824227e+000

8.93829710457770e+004,-1.75500024787211e+001,-2.51292012774447e+000

9.06307108236633e+004,-1.75500762380844e+001,-2.54797449222977e+000

9.18958683997622e+004,-1.75501520509341e+001,-2.58351716377452e+000

9.31786869174758e+004,-1.75502299738737e+001,-2.61955491605583e+000

9.44794129143618e+004,-1.75503100650359e+001,-2.65609461556225e+000

9.57982963695136e+004,-1.75503923841217e+001,-2.69314322282153e+000

9.71355907516031e+004,-1.75504769924413e+001,-2.73070779364167e+000

9.84915530675926e+004,-1.75505639529555e+001,-2.76879548036563e+000

9.98664439121282e+004,-1.75506533303177e+001,-2.80741353314444e+000

1.01260527517622e+005,-1.75507451909182e+001,-2.84656930122007e+000

1.02674071805032e+005,-1.75508396029278e+001,-2.88627023422768e+000

1.04107348435354e+005,-1.75509366363436e+001,-2.92652388351087e+000

1.05560632861831e+005,-1.75510363630355e+001,-2.96733790345226e+000

1.07034204382888e+005,-1.75511388567936e+001,-3.00872005282086e+000

1.08528346195813e+005,-1.75512441933769e+001,-3.05067819613248e+000

1.10043345451179e+005,-1.75513524505630e+001,-3.09322030502835e+000

1.11579493308032e+005,-1.75514637081988e+001,-3.13635445966697e+000

1.13137084989847e+005,-1.75515780482524e+001,-3.18008885013465e+000

1.14716419841265e+005,-1.75516955548663e+001,-3.22443177786828e+000

1.16317801385624e+005,-1.75518163144114e+001,-3.26939165709833e+000

1.17941537383287e+005,-1.75519404155426e+001,-3.31497701630379e+000

1.19587939890794e+005,-1.75520679492553e+001,-3.36119649968746e+000

1.21257325320831e+005,-1.75521990089429e+001,-3.40805886866361e+000

1.22950014503040e+005,-1.75523336904561e+001,-3.45557300336601e+000

1.24666332745679e+005,-1.75524720921629e+001,-3.50374790416980e+000

1.26406609898139e+005,-1.75526143150102e+001,-3.55259269323049e+000

1.28171180414339e+005,-1.75527604625864e+001,-3.60211661604125e+000

1.29960383416997e+005,-1.75529106411856e+001,-3.65232904300599e+000

1.31774562762811e+005,-1.75530649598725e+001,-3.70323947102909e+000

1.33614067108538e+005,-1.75532235305494e+001,-3.75485752512353e+000

1.35479249978003e+005,-1.75533864680237e+001,-3.80719296003607e+000

1.37370469830040e+005,-1.75535538900776e+001,-3.86025566188866e+000

1.39288090127379e+005,-1.75537259175380e+001,-3.91405564983924e+000

1.41232479406504e+005,-1.75539026743492e+001,-3.96860307775855e+000

1.43204011348474e+005,-1.75540842876456e+001,-4.02390823592611e+000

1.45203064850745e+005,-1.75542708878264e+001,-4.07998155274347e+000

1.47230024099979e+005,-1.75544626086319e+001,-4.13683359646559e+000

1.49285278645888e+005,-1.75546595872207e+001,-4.19447507695037e+000

1.51369223476094e+005,-1.75548619642484e+001,-4.25291684742743e+000

1.53482259092041e+005,-1.75550698839483e+001,-4.31216990628429e+000

1.55624791585964e+005,-1.75552834942122e+001,-4.37224539887198e+000

1.57797232718936e+005,-1.75555029466742e+001,-4.43315461932869e+000

1.59999999999999e+005,-1.75557283967947e+001,-4.49490901242472e+000

1.62233516766403e+005,-1.75559600039466e+001,-4.55752017542308e+000

1.64498212264969e+005,-1.75561979315021e+001,-4.62099985996345e+000

1.66794521734578e+005,-1.75564423469219e+001,-4.68535997396208e+000

1.69122886489819e+005,-1.75566934218453e+001,-4.75061258353460e+000

1.71483754005805e+005,-1.75569513321813e+001,-4.81676991493768e+000

1.73877578004168e+005,-1.75572162582025e+001,-4.88384435652964e+000

1.76304818540256e+005,-1.75574883846388e+001,-4.95184846075465e+000

1.78765942091554e+005,-1.75577679007734e+001,-5.02079494614497e+000

1.81261421647326e+005,-1.75580550005405e+001,-5.09069669934584e+000

1.83791736799524e+005,-1.75583498826239e+001,-5.16156677716116e+000

1.86357373834951e+005,-1.75586527505568e+001,-5.23341840862116e+000

1.88958825828723e+005,-1.75589638128241e+001,-5.30626499707203e+000

1.91596592739027e+005,-1.75592832829648e+001,-5.38012012228806e+000

1.94271181503206e+005,-1.75596113796767e+001,-5.45499754260638e+000

1.96983106135185e+005,-1.75599483269223e+001,-5.53091119708482e+000

1.99732887824256e+005,-1.75602943540362e+001,-5.60787520768355e+000

2.02521055035243e+005,-1.75606496958335e+001,-5.68590388147090e+000

2.05348143610063e+005,-1.75610145927202e+001,-5.76501171285313e+000

2.08214696870707e+005,-1.75613892908044e+001,-5.84521338582979e+000

2.11121265723661e+005,-1.75617740420096e+001,-5.92652377627395e+000

2.14068408765776e+005,-1.75621691041889e+001,-6.00895795423931e+000

2.17056692391625e+005,-1.75625747412407e+001,-6.09253118629323e+000

2.20086690902357e+005,-1.75629912232260e+001,-6.17725893787707e+000

2.23158986616063e+005,-1.75634188264869e+001,-6.26315687569532e+000

2.26274169979693e+005,-1.75638578337667e+001,-6.35024087013192e+000

2.29432839682530e+005,-1.75643085343316e+001,-6.43852699769700e+000

2.32635602771247e+005,-1.75647712240933e+001,-6.52803154350324e+000

2.35883074766574e+005,-1.75652462057340e+001,-6.61877100377328e+000

2.39175879781588e+005,-1.75657337888317e+001,-6.71076208837789e+000

2.42514650641661e+005,-1.75662342899881e+001,-6.80402172340873e+000

2.45900029006080e+005,-1.75667480329579e+001,-6.89856705378207e+000

2.49332665491357e+005,-1.75672753487788e+001,-6.99441544587855e+000

2.52813219796278e+005,-1.75678165759045e+001,-7.09158449021794e+000

2.56342360828676e+005,-1.75683720603384e+001,-7.19009200417013e+000

2.59920766833993e+005,-1.75689421557693e+001,-7.28995603470337e+000

2.63549125525621e+005,-1.75695272237094e+001,-7.39119486117167e+000

2.67228134217075e+005,-1.75701276336333e+001,-7.49382699814157e+000

2.70958499956006e+005,-1.75707437631201e+001,-7.59787119825910e+000

2.74740939660078e+005,-1.75713759979965e+001,-7.70334645516053e+000

2.78576180254757e+005,-1.75720247324828e+001,-7.81027200642444e+000

2.82464958813007e+005,-1.75726903693412e+001,-7.91866733656987e+000

2.86408022696948e+005,-1.75733733200256e+001,-8.02855218009964e+000

2.90406129701488e+005,-1.75740740048359e+001,-8.13994652459099e+000

2.94460048199957e+005,-1.75747928530727e+001,-8.25287061383534e+000

2.98570557291775e+005,-1.75755303031966e+001,-8.36734495102687e+000

3.02738446952187e+005,-1.75762868029903e+001,-8.48339030200404e+000

3.06964518184081e+005,-1.75770628097232e+001,-8.60102769854174e+000

3.11249583171928e+005,-1.75778587903206e+001,-8.72027844170052e+000

3.15594465437872e+005,-1.75786752215361e+001,-8.84116410522766e+000

3.19999999999997e+005,-1.75795125901278e+001,-8.96370653901875e+000

3.24467033532806e+005,-1.75803713930396e+001,-9.08792787263513e+000

3.28996424529938e+005,-1.75812521375866e+001,-9.21385051888185e+000

3.33589043469155e+005,-1.75821553416450e+001,-9.34149717744741e+000

3.38245772979638e+005,-1.75830815338485e+001,-9.47089083860358e+000

3.42967508011610e+005,-1.75840312537892e+001,-9.60205478697092e+000

3.47755156008335e+005,-1.75850050522252e+001,-9.73501260534806e+000

3.52609637080511e+005,-1.75860034912943e+001,-9.86978817860606e+000

3.57531884183106e+005,-1.75870271447350e+001,-1.00064056976511e+001

3.62522843294651e+005,-1.75880765981144e+001,-1.01448896634528e+001

3.67583473599047e+005,-1.75891524490643e+001,-1.02852648911427e+001

3.72714747669902e+005,-1.75902553075257e+001,-1.04275565141812e+001

3.77917651657445e+005,-1.75913857960017e+001,-1.05717899885936e+001

3.83193185478053e+005,-1.75925445498203e+001,-1.07179910972775e+001

3.88542363006410e+005,-1.75937322174076e+001,-1.08661859543791e+001

3.93966212270369e+005,-1.75949494605707e+001,-1.10164010097409e+001

3.99465775648511e+005,-1.75961969547923e+001,-1.11686630534184e+001

4.05042110070485e+005,-1.75974753895380e+001,-1.13229992202682e+001

4.10696287220124e+005,-1.75987854685749e+001,-1.14794369946033e+001

4.16429393741414e+005,-1.76001279103042e+001,-1.16380042149185e+001

4.22242531447321e+005,-1.76015034481082e+001,-1.17987290786818e+001

4.28136817531551e+005,-1.76029128307109e+001,-1.19616401471921e+001

4.34113384783250e+005,-1.76043568225550e+001,-1.21267663505016e+001

4.40173381804713e+005,-1.76058362041952e+001,-1.22941369923987e+001

4.46317973232124e+005,-1.76073517727072e+001,-1.24637817554529e+001

4.52548339959385e+005,-1.76089043421164e+001,-1.26357307061154e+001

4.58865679365059e+005,-1.76104947438431e+001,-1.28100142998740e+001

4.65271205542494e+005,-1.76121238271685e+001,-1.29866633864599e+001

4.71766149533147e+005,-1.76137924597197e+001,-1.31657092151005e+001

4.78351759563174e+005,-1.76155015279767e+001,-1.33471834398156e+001

4.85029301283321e+005,-1.76172519377990e+001,-1.35311181247526e+001

4.91800058012158e+005,-1.76190446149770e+001,-1.37175457495544e+001

4.98665330982714e+005,-1.76208805058040e+001,-1.39064992147563e+001

5.05626439592555e+005,-1.76227605776738e+001,-1.40980118472054e+001

5.12684721657352e+005,-1.76246858197014e+001,-1.42921174054962e+001

5.19841533667984e+005,-1.76266572433696e+001,-1.44888500854163e+001

5.27098251051240e+005,-1.76286758832005e+001,-1.46882445253954e+001

5.34456268434150e+005,-1.76307427974538e+001,-1.48903358119495e+001

5.41916999912011e+005,-1.76328590688516e+001,-1.50951594851133e+001

