Freq.,VOut,OutRef

1.00000000000000e+004,-1.68293735896473e+001,-1.41927689325648e-001

1.01395947979003e+004,-1.68293742816555e+001,-1.43908876945576e-001

1.02811382665607e+004,-1.68293749931132e+001,-1.45917718830458e-001

1.04246576084112e+004,-1.68293757245671e+001,-1.47954600929963e-001

1.05701804056138e+004,-1.68293764765791e+001,-1.50019914578331e-001

1.07177346253629e+004,-1.68293772497265e+001,-1.52114056571002e-001

1.08673486252606e+004,-1.68293780446035e+001,-1.54237429233676e-001

1.10190511587661e+004,-1.68293788618203e+001,-1.56390440509933e-001

1.11728713807222e+004,-1.68293797020048e+001,-1.58573504028468e-001

1.13288388529580e+004,-1.68293805658023e+001,-1.60787039188975e-001

1.14869835499703e+004,-1.68293814538759e+001,-1.63031471243181e-001

1.16473358646846e+004,-1.68293823669080e+001,-1.65307231370847e-001

1.18099266142953e+004,-1.68293833055994e+001,-1.67614756768142e-001

1.19747870461893e+004,-1.68293842706714e+001,-1.69954490725953e-001

1.21419488439505e+004,-1.68293852628646e+001,-1.72326882721009e-001

1.23114441334492e+004,-1.68293862829411e+001,-1.74732388496299e-001

1.24833054890161e+004,-1.68293873316844e+001,-1.77171470150452e-001

1.26575659397028e+004,-1.68293884098994e+001,-1.79644596228040e-001

1.28342589756290e+004,-1.68293895184142e+001,-1.82152241805854e-001

1.30134185544193e+004,-1.68293906580799e+001,-1.84694888585346e-001

1.31950791077289e+004,-1.68293918297713e+001,-1.87273024987135e-001

1.33792755478611e+004,-1.68293930343881e+001,-1.89887146240407e-001

1.35660432744767e+004,-1.68293942728550e+001,-1.92537754480238e-001

1.37554181813974e+004,-1.68293955461228e+001,-1.95225358842701e-001

1.39474366635040e+004,-1.68293968551689e+001,-1.97950475562267e-001

1.41421356237309e+004,-1.68293982009981e+001,-2.00713628071913e-001

1.43395524801583e+004,-1.68293995846433e+001,-2.03515347101845e-001

1.45397251732031e+004,-1.68294010071668e+001,-2.06356170779062e-001

1.47426921729110e+004,-1.68294024696601e+001,-2.09236644735519e-001

1.49484924863494e+004,-1.68294039732458e+001,-2.12157322206898e-001

1.51571656651040e+004,-1.68294055190777e+001,-2.15118764143096e-001

1.53687518128801e+004,-1.68294071083420e+001,-2.18121539310598e-001

1.55832915932100e+004,-1.68294087422584e+001,-2.21166224404103e-001

1.58008262372675e+004,-1.68294104220807e+001,-2.24253404157432e-001

1.60213975517924e+004,-1.68294121490973e+001,-2.27383671454131e-001

1.62450479271247e+004,-1.68294139246337e+001,-2.30557627437199e-001

1.64718203453514e+004,-1.68294157500520e+001,-2.33775881631018e-001

1.67017583885674e+004,-1.68294176267524e+001,-2.37039052051898e-001

1.69349062472505e+004,-1.68294195561745e+001,-2.40347765328848e-001

1.71713087287550e+004,-1.68294215397984e+001,-2.43702656820224e-001

1.74110112659224e+004,-1.68294235791455e+001,-2.47104370739373e-001

1.76540599258131e+004,-1.68294256757798e+001,-2.50553560274101e-001

1.79005014185594e+004,-1.68294278313095e+001,-2.54050887711155e-001

1.81503831063432e+004,-1.68294300473872e+001,-2.57597024565940e-001

1.84037530124975e+004,-1.68294323257123e+001,-2.61192651705488e-001

1.86606598307361e+004,-1.68294346680317e+001,-2.64838459482703e-001

1.89211529345119e+004,-1.68294370761412e+001,-2.68535147865248e-001

1.91852823865052e+004,-1.68294395518870e+001,-2.72283426568626e-001

1.94530989482457e+004,-1.68294420971668e+001,-2.76084015194961e-001

1.97246540898671e+004,-1.68294447139316e+001,-2.79937643363976e-001

1.99999999999999e+004,-1.68294474041869e+001,-2.83845050857962e-001

2.02791895958005e+004,-1.68294501699945e+001,-2.87806987758094e-001

2.05622765331213e+004,-1.68294530134740e+001,-2.91824214589064e-001

2.08493152168224e+004,-1.68294559368039e+001,-2.95897502464988e-001

2.11403608112276e+004,-1.68294589422242e+001,-3.00027633231197e-001

2.14354692507258e+004,-1.68294620320370e+001,-3.04215399619909e-001

2.17346972505211e+004,-1.68294652086095e+001,-3.08461605393307e-001

2.20381023175322e+004,-1.68294684743745e+001,-3.12767065502756e-001

2.23457427614443e+004,-1.68294718318332e+001,-3.17132606238742e-001

2.26576777059159e+004,-1.68294752835566e+001,-3.21559065390479e-001

2.29739670999406e+004,-1.68294788321878e+001,-3.26047292403522e-001

2.32946717293690e+004,-1.68294824804434e+001,-3.30598148542052e-001

2.36198532285905e+004,-1.68294862311165e+001,-3.35212507049450e-001

2.39495740923785e+004,-1.68294900870777e+001,-3.39891253318614e-001

2.42838976879009e+004,-1.68294940512782e+001,-3.44635285054677e-001

2.46228882668982e+004,-1.68294981267516e+001,-3.49445512446987e-001

2.49666109780322e+004,-1.68295023166160e+001,-3.54322858343873e-001

2.53151318794055e+004,-1.68295066240768e+001,-3.59268258422503e-001

2.56685179512580e+004,-1.68295110524290e+001,-3.64282661369551e-001

2.60268371088386e+004,-1.68295156050595e+001,-3.69367029058019e-001

2.63901582154578e+004,-1.68295202854498e+001,-3.74522336731318e-001

2.67585510957221e+004,-1.68295250971782e+001,-3.79749573186418e-001

2.71320865489533e+004,-1.68295300439234e+001,-3.85049740959830e-001

2.75108363627948e+004,-1.68295351294664e+001,-3.90423856517516e-001

2.78948733270080e+004,-1.68295403576938e+001,-3.95872950446063e-001

2.82842712474618e+004,-1.68295457326003e+001,-4.01398067648056e-001

2.86791049603164e+004,-1.68295512582925e+001,-4.07000267537106e-001

2.90794503464061e+004,-1.68295569389909e+001,-4.12680624239783e-001

2.94853843458219e+004,-1.68295627790341e+001,-4.18440226794136e-001

2.98969849726987e+004,-1.68295687828810e+001,-4.24280179358360e-001

3.03143313302078e+004,-1.68295749551153e+001,-4.30201601415412e-001

3.07375036257601e+004,-1.68295813004479e+001,-4.36205627985810e-001

3.11665831864199e+004,-1.68295878237210e+001,-4.42293409837554e-001

3.16016524745350e+004,-1.68295945299114e+001,-4.48466113704667e-001

3.20427951035848e+004,-1.68296014241347e+001,-4.54724922504597e-001

3.24900958542493e+004,-1.68296085116485e+001,-4.61071035559944e-001

3.29436406907028e+004,-1.68296157978566e+001,-4.67505668822661e-001

3.34035167771346e+004,-1.68296232883130e+001,-4.74030055104244e-001

3.38698124945009e+004,-1.68296309887263e+001,-4.80645444300020e-001

3.43426174575100e+004,-1.68296389049633e+001,-4.87353103629086e-001

3.48220225318448e+004,-1.68296470430537e+001,-4.94154317867395e-001

3.53081198516260e+004,-1.68296554091950e+001,-5.01050389587927e-001

3.58010028371187e+004,-1.68296640097562e+001,-5.08042639402845e-001

3.63007662126863e+004,-1.68296728512834e+001,-5.15132406209632e-001

3.68075060249948e+004,-1.68296819405036e+001,-5.22321047442183e-001

3.73213196614721e+004,-1.68296912843310e+001,-5.29609939318344e-001

3.78423058690237e+004,-1.68297008898708e+001,-5.37000477099514e-001

3.83705647730104e+004,-1.68297107644251e+001,-5.44494075348403e-001

3.89061978964912e+004,-1.68297209154983e+001,-5.52092168189665e-001

3.94493081797342e+004,-1.68297313508021e+001,-5.59796209576825e-001

3.99999999999998e+004,-1.68297420782620e+001,-5.67607673559918e-001

4.05583791916010e+004,-1.68297531060223e+001,-5.75528054558398e-001

4.11245530662425e+004,-1.68297644424521e+001,-5.83558867637272e-001

4.16986304336447e+004,-1.68297760961521e+001,-5.91701648785599e-001

4.22807216224550e+004,-1.68297880759601e+001,-5.99957955198358e-001

4.28709385014515e+004,-1.68298003909579e+001,-6.08329365563788e-001

4.34693945010421e+004,-1.68298130504777e+001,-6.16817480353898e-001

4.40762046350642e+004,-1.68298260641087e+001,-6.25423922116624e-001

4.46914855228886e+004,-1.68298394417045e+001,-6.34150335771957e-001

4.53153554118317e+004,-1.68298531933898e+001,-6.42998388916290e-001

4.59479341998812e+004,-1.68298673295678e+001,-6.51969772123065e-001

4.65893434587380e+004,-1.68298818609280e+001,-6.61066199253277e-001

4.72397064571810e+004,-1.68298967984533e+001,-6.70289407766934e-001

4.78991481847569e+004,-1.68299121534283e+001,-6.79641159039874e-001

4.85677953758016e+004,-1.68299279374474e+001,-6.89123238681642e-001

4.92457765337964e+004,-1.68299441624227e+001,-6.98737456860031e-001

4.99332219560642e+004,-1.68299608405930e+001,-7.08485648629790e-001

5.06302637588109e+004,-1.68299779845318e+001,-7.18369674262871e-001

5.13370359025159e+004,-1.68299956071572e+001,-7.28391419583472e-001

5.20536742176771e+004,-1.68300137217401e+001,-7.38552796309083e-001

5.27803164309155e+004,-1.68300323419142e+001,-7.48855742392862e-001

5.35171021914442e+004,-1.68300514816850e+001,-7.59302222372057e-001

5.42641730979066e+004,-1.68300711554404e+001,-7.69894227718091e-001

5.50216727255895e+004,-1.68300913779601e+001,-7.80633777195892e-001

5.57897466540159e+004,-1.68301121644263e+001,-7.91522917218992e-001

5.65685424949235e+004,-1.68301335304343e+001,-8.02563722217707e-001

5.73582099206328e+004,-1.68301554920029e+001,-8.13758295005927e-001

5.81589006928121e+004,-1.68301780655862e+001,-8.25108767153496e-001

5.89707686916437e+004,-1.68302012680842e+001,-8.36617299364569e-001

5.97939699453972e+004,-1.68302251168550e+001,-8.48286081856033e-001

6.06286626604156e+004,-1.68302496297264e+001,-8.60117334745878e-001

6.14750072515201e+004,-1.68302748250085e+001,-8.72113308440756e-001

6.23331663728396e+004,-1.68303007215054e+001,-8.84276284031536e-001

6.32033049490698e+004,-1.68303273385289e+001,-8.96608573690192e-001

6.40855902071694e+004,-1.68303546959108e+001,-9.09112521075039e-001

6.49801917084985e+004,-1.68303828140167e+001,-9.21790501734991e-001

6.58872813814055e+004,-1.68304117137597e+001,-9.34644923523133e-001

6.68070335542691e+004,-1.68304414166140e+001,-9.47678227012211e-001

6.77396249890018e+004,-1.68304719446295e+001,-9.60892885915724e-001

6.86852349150199e+004,-1.68305033204463e+001,-9.74291407511369e-001

6.96440450636895e+004,-1.68305355673101e+001,-9.87876333071117e-001

7.06162397032520e+004,-1.68305687090865e+001,-1.00165023829626e+000

7.16020056742374e+004,-1.68306027702776e+001,-1.01561573375340e+000

7.26015324253724e+004,-1.68306377760373e+001,-1.02977546531917e+000

7.36150120499896e+004,-1.68306737521881e+001,-1.04413211462563e+000

7.46426393229441e+004,-1.68307107252372e+001,-1.05868839951410e+000

7.56846117380472e+004,-1.68307487223940e+001,-1.07344707448929e+000

7.67411295460207e+004,-1.68307877715868e+001,-1.08841093118154e+000

7.78123957929823e+004,-1.68308279014815e+001,-1.10358279881038e+000

7.88986163594682e+004,-1.68308691414986e+001,-1.11896554465538e+000

7.99999999999995e+004,-1.68309115218322e+001,-1.13456207452906e+000

8.11167583832018e+004,-1.68309550734686e+001,-1.15037533325670e+000

8.22491061324848e+004,-1.68309998282058e+001,-1.16640830515810e+000

8.33972608672892e+004,-1.68310458186725e+001,-1.18266401453442e+000

8.45614432449099e+004,-1.68310930783482e+001,-1.19914552616132e+000

8.57418770029029e+004,-1.68311416415840e+001,-1.21585594578357e+000

8.69387890020841e+004,-1.68311915436222e+001,-1.23279842061605e+000

8.81524092701283e+004,-1.68312428206183e+001,-1.24997613984898e+000

8.93829710457770e+004,-1.68312955096618e+001,-1.26739233515553e+000

9.06307108236633e+004,-1.68313496487984e+001,-1.28505028120559e+000

9.18958683997622e+004,-1.68314052770516e+001,-1.30295329618441e+000

9.31786869174758e+004,-1.68314624344459e+001,-1.32110474231226e+000

9.44794129143618e+004,-1.68315211620290e+001,-1.33950802637163e+000

9.57982963695136e+004,-1.68315815018956e+001,-1.35816660023747e+000

9.71355907516031e+004,-1.68316434972106e+001,-1.37708396140908e+000

9.84915530675926e+004,-1.68317071922333e+001,-1.39626365355100e+000

9.98664439121282e+004,-1.68317726323418e+001,-1.41570926703252e+000

1.01260527517622e+005,-1.68318398640572e+001,-1.43542443947568e+000

1.02674071805032e+005,-1.68319089350692e+001,-1.45541285630376e+000

1.04107348435354e+005,-1.68319798942611e+001,-1.47567825129526e+000

1.05560632861831e+005,-1.68320527917353e+001,-1.49622440714219e+000

1.07034204382888e+005,-1.68321276788396e+001,-1.51705515600945e+000

1.08528346195813e+005,-1.68322046081934e+001,-1.53817438010196e+000

1.10043345451179e+005,-1.68322836337139e+001,-1.55958601223140e+000

1.11579493308032e+005,-1.68323648106434e+001,-1.58129403638851e+000

1.13137084989847e+005,-1.68324481955760e+001,-1.60330248831938e+000

1.14716419841265e+005,-1.68325338464850e+001,-1.62561545610287e+000

1.16317801385624e+005,-1.68326218227507e+001,-1.64823708073384e+000

1.17941537383287e+005,-1.68327121851876e+001,-1.67117155670900e+000

1.19587939890794e+005,-1.68328049960729e+001,-1.69442313261402e+000

1.21257325320831e+005,-1.68329003191740e+001,-1.71799611171685e+000

1.22950014503040e+005,-1.68329982197773e+001,-1.74189485256170e+000

1.24666332745679e+005,-1.68330987647160e+001,-1.76612376956699e+000

1.26406609898139e+005,-1.68332020223988e+001,-1.79068733362687e+000

1.28171180414339e+005,-1.68333080628379e+001,-1.81559007271462e+000

1.29960383416997e+005,-1.68334169576782e+001,-1.84083657248863e+000

1.31774562762811e+005,-1.68335287802250e+001,-1.86643147690157e+000

1.33614067108538e+005,-1.68336436054727e+001,-1.89237948881425e+000

1.35479249978003e+005,-1.68337615101332e+001,-1.91868537060733e+000

1.37370469830040e+005,-1.68338825726633e+001,-1.94535394480153e+000

1.39288090127379e+005,-1.68340068732936e+001,-1.97239009467534e+000

1.41232479406504e+005,-1.68341344940557e+001,-1.99979876488822e+000

1.43204011348474e+005,-1.68342655188096e+001,-2.02758496210512e+000

1.45203064850745e+005,-1.68344000332708e+001,-2.05575375562456e+000

1.47230024099979e+005,-1.68345381250372e+001,-2.08431027800746e+000

1.49285278645888e+005,-1.68346798836151e+001,-2.11325972571077e+000

1.51369223476094e+005,-1.68348254004450e+001,-2.14260735972034e+000

1.53482259092041e+005,-1.68349747689268e+001,-2.17235850619041e+000

1.55624791585964e+005,-1.68351280844443e+001,-2.20251855708139e+000

1.57797232718936e+005,-1.68352854443889e+001,-2.23309297080409e+000

1.59999999999999e+005,-1.68354469481827e+001,-2.26408727286397e+000

1.62233516766403e+005,-1.68356126973006e+001,-2.29550705650886e+000

1.64498212264969e+005,-1.68357827952916e+001,-2.32735798338057e+000

1.66794521734578e+005,-1.68359573477987e+001,-2.35964578416730e+000

1.69122886489819e+005,-1.68361364625779e+001,-2.39237625926262e+000

1.71483754005805e+005,-1.68363202495167e+001,-2.42555527942339e+000

1.73877578004168e+005,-1.68365088206495e+001,-2.45918878643472e+000

1.76304818540256e+005,-1.68367022901738e+001,-2.49328279377822e+000

1.78765942091554e+005,-1.68369007744628e+001,-2.52784338730180e+000

1.81261421647326e+005,-1.68371043920784e+001,-2.56287672589681e+000

1.83791736799524e+005,-1.68373132637805e+001,-2.59838904217856e+000

1.86357373834951e+005,-1.68375275125363e+001,-2.63438664317084e+000

1.88958825828723e+005,-1.68377472635259e+001,-2.67087591099805e+000

1.91596592739027e+005,-1.68379726441478e+001,-2.70786330358143e+000

1.94271181503206e+005,-1.68382037840199e+001,-2.74535535534256e+000

1.96983106135185e+005,-1.68384408149806e+001,-2.78335867791382e+000

1.99732887824256e+005,-1.68386838710857e+001,-2.82187996085478e+000

2.02521055035243e+005,-1.68389330886033e+001,-2.86092597238024e+000

2.05348143610063e+005,-1.68391886060064e+001,-2.90050356009331e+000

2.08214696870707e+005,-1.68394505639621e+001,-2.94061965173067e+000

2.11121265723661e+005,-1.68397191053181e+001,-2.98128125591735e+000

2.14068408765776e+005,-1.68399943750865e+001,-3.02249546293254e+000

2.17056692391625e+005,-1.68402765204235e+001,-3.06426944548936e+000

2.20086690902357e+005,-1.68405656906063e+001,-3.10661045952608e+000

2.23158986616063e+005,-1.68408620370070e+001,-3.14952584501258e+000

2.26274169979693e+005,-1.68411657130616e+001,-3.19302302677355e+000

2.29432839682530e+005,-1.68414768742368e+001,-3.23710951532635e+000

2.32635602771247e+005,-1.68417956779913e+001,-3.28179290773926e+000

2.35883074766574e+005,-1.68421222837347e+001,-3.32708088850871e+000

2.39175879781588e+005,-1.68424568527808e+001,-3.37298123045700e+000

2.42514650641661e+005,-1.68427995482981e+001,-3.41950179565409e+000

2.45900029006080e+005,-1.68431505352547e+001,-3.46665053636293e+000

2.49332665491357e+005,-1.68435099803591e+001,-3.51443549601218e+000

2.52813219796278e+005,-1.68438780519975e+001,-3.56286481019542e+000

2.56342360828676e+005,-1.68442549201644e+001,-3.61194670770271e+000

2.59920766833993e+005,-1.68446407563903e+001,-3.66168951158246e+000

2.63549125525621e+005,-1.68450357336639e+001,-3.71210164023916e+000

2.67228134217075e+005,-1.68454400263492e+001,-3.76319160856696e+000

2.70958499956006e+005,-1.68458538100979e+001,-3.81496802912270e+000

2.74740939660078e+005,-1.68462772617570e+001,-3.86743961334086e+000

2.78576180254757e+005,-1.68467105592715e+001,-3.92061517279149e+000

2.82464958813007e+005,-1.68471538815815e+001,-3.97450362048584e+000

2.86408022696948e+005,-1.68476074085150e+001,-4.02911397223186e+000

2.90406129701488e+005,-1.68480713206756e+001,-4.08445534804069e+000

2.94460048199957e+005,-1.68485457993251e+001,-4.14053697358979e+000

2.98570557291775e+005,-1.68490310262618e+001,-4.19736818174397e+000

3.02738446952187e+005,-1.68495271836931e+001,-4.25495841413673e+000

3.06964518184081e+005,-1.68500344541052e+001,-4.31331722281817e+000

3.11249583171928e+005,-1.68505530201263e+001,-4.37245427196850e+000

3.15594465437872e+005,-1.68510830643874e+001,-4.43237933968441e+000

3.19999999999997e+005,-1.68516247693783e+001,-4.49310231983721e+000

3.24467033532806e+005,-1.68521783172991e+001,-4.55463322401223e+000

3.28996424529938e+005,-1.68527438899097e+001,-4.61698218352504e+000

3.33589043469155e+005,-1.68533216683748e+001,-4.68015945152580e+000

3.38245772979638e+005,-1.68539118331066e+001,-4.74417540518872e+000

3.42967508011610e+005,-1.68545145636046e+001,-4.80904054799337e+000

3.47755156008335e+005,-1.68551300382942e+001,-4.87476551210122e+000

3.52609637080511e+005,-1.68557584343621e+001,-4.94136106082926e+000

3.57531884183106e+005,-1.68563999275922e+001,-5.00883809122431e+000

3.62522843294651e+005,-1.68570546921997e+001,-5.07720763674126e+000

3.67583473599047e+005,-1.68577229006655e+001,-5.14648087003010e+000

3.72714747669902e+005,-1.68584047235713e+001,-5.21666910583122e+000

3.77917651657445e+005,-1.68591003294356e+001,-5.28778380398434e+000

3.83193185478053e+005,-1.68598098845516e+001,-5.35983657255263e+000

3.88542363006410e+005,-1.68605335528279e+001,-5.43283917106610e+000

3.93966212270369e+005,-1.68612714956320e+001,-5.50680351388400e+000

3.99465775648511e+005,-1.68620238716388e+001,-5.58174167367905e+000

4.05042110070485e+005,-1.68627908366832e+001,-5.65766588504853e+000

4.10696287220124e+005,-1.68635725436188e+001,-5.73458854824754e+000

4.16429393741414e+005,-1.68643691421841e+001,-5.81252223305141e+000

4.22242531447321e+005,-1.68651807788747e+001,-5.89147968274601e+000

4.28136817531551e+005,-1.68660075968261e+001,-5.97147381824516e+000

4.34113384783250e+005,-1.68668497357049e+001,-6.05251774233764e+000

4.40173381804713e+005,-1.68677073316108e+001,-6.13462474406245e+000

4.46317973232124e+005,-1.68685805169903e+001,-6.21780830321277e+000

4.52548339959385e+005,-1.68694694205639e+001,-6.30208209496544e+000

4.58865679365059e+005,-1.68703741672658e+001,-6.38745999463763e+000

4.65271205542494e+005,-1.68712948781993e+001,-6.47395608256695e+000

4.71766149533147e+005,-1.68722316706080e+001,-6.56158464911187e+000

4.78351759563174e+005,-1.68731846578640e+001,-6.65036019977260e+000

4.85029301283321e+005,-1.68741539494740e+001,-6.74029746042703e+000

4.91800058012158e+005,-1.68751396511043e+001,-6.83141138267741e+000

4.98665330982714e+005,-1.68761418646270e+001,-6.92371714930560e+000

5.05626439592555e+005,-1.68771606881859e+001,-7.01723017983092e+000

5.12684721657352e+005,-1.68781962162853e+001,-7.11196613616545e+000

5.19841533667984e+005,-1.68792485399023e+001,-7.20794092836093e+000

5.27098251051240e+005,-1.68803177466221e+001,-7.30517072044182e+000

5.34456268434150e+005,-1.68814039207986e+001,-7.40367193631740e+000

5.41916999912011e+005,-1.68825071437409e+001,-7.50346126576507e+000

