Freq.,VOut,OutRef

1.00000000000000e+004,-3.99609557150951e+000,-2.51129724844098e-002

1.01395947979003e+004,-3.99609597647066e+000,-2.54635021725714e-002

1.02811382665607e+004,-3.99609639281320e+000,-2.58189236136890e-002

1.04246576084112e+004,-3.99609682085645e+000,-2.61793050349354e-002

1.05701804056138e+004,-3.99609726092916e+000,-2.65447156104103e-002

1.07177346253629e+004,-3.99609771337019e+000,-2.69152254711102e-002

1.08673486252606e+004,-3.99609817852580e+000,-2.72909057384753e-002

1.10190511587661e+004,-3.99609865675397e+000,-2.76718285100215e-002

1.11728713807222e+004,-3.99609914842165e+000,-2.80580668943252e-002

1.13288388529580e+004,-3.99609965390633e+000,-2.84496950154438e-002

1.14869835499703e+004,-3.99610017359597e+000,-2.88467880295573e-002

1.16473358646846e+004,-3.99610070788999e+000,-2.92494221347744e-002

1.18099266142953e+004,-3.99610125719853e+000,-2.96576745925115e-002

1.19747870461893e+004,-3.99610182194342e+000,-3.00716237375603e-002

1.21419488439505e+004,-3.99610240255816e+000,-3.04913489956018e-002

1.23114441334492e+004,-3.99610299948768e+000,-3.09169309011959e-002

1.24833054890161e+004,-3.99610361319149e+000,-3.13484510960246e-002

1.26575659397028e+004,-3.99610424414017e+000,-3.17859923677679e-002

1.28342589756290e+004,-3.99610489281808e+000,-3.22296386522987e-002

1.30134185544193e+004,-3.99610555972282e+000,-3.26794750536974e-002

1.31950791077289e+004,-3.99610624536634e+000,-3.31355878570655e-002

1.33792755478611e+004,-3.99610695027543e+000,-3.35980645431926e-002

1.35660432744767e+004,-3.99610767499071e+000,-3.40669938147969e-002

1.37554181813974e+004,-3.99610842006817e+000,-3.45424656057714e-002

1.39474366635040e+004,-3.99610918607995e+000,-3.50245710956603e-002

1.41421356237309e+004,-3.99610997361351e+000,-3.55134027352751e-002

1.43395524801583e+004,-3.99611078327309e+000,-3.60090542576714e-002

1.45397251732031e+004,-3.99611161568044e+000,-3.65116206935183e-002

1.47426921729110e+004,-3.99611247147385e+000,-3.70211983988775e-002

1.49484924863494e+004,-3.99611335131004e+000,-3.75378850642756e-002

1.51571656651040e+004,-3.99611425586391e+000,-3.80617797373658e-002

1.53687518128801e+004,-3.99611518582906e+000,-3.85929828417599e-002

1.55832915932100e+004,-3.99611614191911e+000,-3.91315961912731e-002

1.58008262372675e+004,-3.99611712486782e+000,-3.96777230107698e-002

1.60213975517924e+004,-3.99611813542796e+000,-4.02314679673835e-002

1.62450479271247e+004,-3.99611917437558e+000,-4.07929371655126e-002

1.64718203453514e+004,-3.99612024250676e+000,-4.13622381920456e-002

1.67017583885674e+004,-3.99612134064124e+000,-4.19394801163328e-002

1.69349062472505e+004,-3.99612246962027e+000,-4.25247735292094e-002

1.71713087287550e+004,-3.99612363030938e+000,-4.31182305492218e-002

1.74110112659224e+004,-3.99612482359933e+000,-4.37199648421226e-002

1.76540599258131e+004,-3.99612605040420e+000,-4.43300916585375e-002

1.79005014185594e+004,-3.99612731166401e+000,-4.49487278433303e-002

1.81503831063432e+004,-3.99612860834610e+000,-4.55759918521498e-002

1.84037530124975e+004,-3.99612994144408e+000,-4.62120037863229e-002

1.86606598307361e+004,-3.99613131197927e+000,-4.68568854093753e-002

1.89211529345119e+004,-3.99613272100179e+000,-4.75107601686300e-002

1.91852823865052e+004,-3.99613416959162e+000,-4.81737532157852e-002

1.94530989482457e+004,-3.99613565885822e+000,-4.88459914381016e-002

1.97246540898671e+004,-3.99613718994280e+000,-4.95276034727998e-002

1.99999999999999e+004,-3.99613876401735e+000,-5.02187197420220e-002

2.02791895958005e+004,-3.99614038228798e+000,-5.09194724615350e-002

2.05622765331213e+004,-3.99614204599344e+000,-5.16299956808812e-002

2.08493152168224e+004,-3.99614375640830e+000,-5.23504252931190e-002

2.11403608112276e+004,-3.99614551484159e+000,-5.30808990745571e-002

2.14354692507258e+004,-3.99614732263993e+000,-5.38215566970633e-002

2.17346972505211e+004,-3.99614918118636e+000,-5.45725397670074e-002

2.20381023175322e+004,-3.99615109190411e+000,-5.53339918343405e-002

2.23457427614443e+004,-3.99615305625430e+000,-5.61060584398181e-002

2.26576777059159e+004,-3.99615507574125e+000,-5.68888871152631e-002

2.29739670999406e+004,-3.99615715190870e+000,-5.76826274412612e-002

2.32946717293690e+004,-3.99615928634593e+000,-5.84874310436755e-002

2.36198532285905e+004,-3.99616148068442e+000,-5.93034516494262e-002

2.39495740923785e+004,-3.99616373660309e+000,-6.01308450884339e-002

2.42838976879009e+004,-3.99616605582593e+000,-6.09697693466170e-002

2.46228882668982e+004,-3.99616844012684e+000,-6.18203845702280e-002

2.49666109780322e+004,-3.99617089132787e+000,-6.26828531152790e-002

2.53151318794055e+004,-3.99617341130233e+000,-6.35573395658402e-002

2.56685179512580e+004,-3.99617600197608e+000,-6.44440107638412e-002

2.60268371088386e+004,-3.99617866532822e+000,-6.53430358444947e-002

2.63901582154578e+004,-3.99618140339289e+000,-6.62545862642861e-002

2.67585510957221e+004,-3.99618421826139e+000,-6.71788358275759e-002

2.71320865489533e+004,-3.99618711208342e+000,-6.81159607203027e-002

2.75108363627948e+004,-3.99619008706787e+000,-6.90661395461159e-002

2.78948733270080e+004,-3.99619314548539e+000,-7.00295533526525e-002

2.82842712474618e+004,-3.99619628967016e+000,-7.10063856630152e-002

2.86791049603164e+004,-3.99619952202101e+000,-7.19968225119644e-002

2.90794503464061e+004,-3.99620284500369e+000,-7.30010524761534e-002

2.94853843458219e+004,-3.99620626115227e+000,-7.40192667095907e-002

2.98969849726987e+004,-3.99620977307163e+000,-7.50516589741217e-002

3.03143313302078e+004,-3.99621338343878e+000,-7.60984256764687e-002

3.07375036257601e+004,-3.99621709500525e+000,-7.71597659008539e-002

3.11665831864199e+004,-3.99622091059899e+000,-7.82358814435396e-002

3.16016524745350e+004,-3.99622483312634e+000,-7.93269768501665e-002

3.20427951035848e+004,-3.99622886557451e+000,-8.04332594472671e-002

3.24900958542493e+004,-3.99623301101360e+000,-8.15549393809219e-002

3.29436406907028e+004,-3.99623727259847e+000,-8.26922296548369e-002

3.34035167771346e+004,-3.99624165357221e+000,-8.38453461590996e-002

3.38698124945009e+004,-3.99624615726695e+000,-8.50145077183124e-002

3.43426174575100e+004,-3.99625078710803e+000,-8.61999361171095e-002

3.48220225318448e+004,-3.99625554661485e+000,-8.74018561486277e-002

3.53081198516260e+004,-3.99626043940452e+000,-8.86204956459818e-002

3.58010028371187e+004,-3.99626546919455e+000,-8.98560855201866e-002

3.63007662126863e+004,-3.99627063980483e+000,-9.11088598041032e-002

3.68075060249948e+004,-3.99627595516111e+000,-9.23790556868546e-002

3.73213196614721e+004,-3.99628141929743e+000,-9.36669135555705e-002

3.78423058690237e+004,-3.99628703635926e+000,-9.49726770357645e-002

3.83705647730104e+004,-3.99629281060705e+000,-9.62965930259660e-002

3.89061978964912e+004,-3.99629874641780e+000,-9.76389117498075e-002

3.94493081797342e+004,-3.99630484829026e+000,-9.89998867835927e-002

3.99999999999998e+004,-3.99631112084624e+000,-1.00379775108973e-001

4.05583791916010e+004,-3.99631756883564e+000,-1.01778837145562e-001

4.11245530662425e+004,-3.99632419713825e+000,-1.03197336802151e-001

4.16986304336447e+004,-3.99633101076883e+000,-1.04635541509287e-001

4.22807216224550e+004,-3.99633801488005e+000,-1.06093722266523e-001

4.28709385014515e+004,-3.99634521476585e+000,-1.07572153687074e-001

4.34693945010421e+004,-3.99635261586526e+000,-1.09071114041573e-001

4.40762046350642e+004,-3.99636022376732e+000,-1.10590885294075e-001

4.46914855228886e+004,-3.99636804421395e+000,-1.12131753154398e-001

4.53153554118317e+004,-3.99637608310390e+000,-1.13694007122137e-001

4.59479341998812e+004,-3.99638434649840e+000,-1.15277940522426e-001

4.65893434587380e+004,-3.99639284062371e+000,-1.16883850561589e-001

4.72397064571810e+004,-3.99640157187708e+000,-1.18512038362594e-001

4.78991481847569e+004,-3.99641054682996e+000,-1.20162809018124e-001

4.85677953758016e+004,-3.99641977223319e+000,-1.21836471632990e-001

4.92457765337964e+004,-3.99642925502193e+000,-1.23533339368109e-001

4.99332219560642e+004,-3.99643900232051e+000,-1.25253729487502e-001

5.06302637588109e+004,-3.99644902144667e+000,-1.26997963408060e-001

5.13370359025159e+004,-3.99645931991762e+000,-1.28766366740502e-001

5.20536742176771e+004,-3.99646990545486e+000,-1.30559269338104e-001

5.27803164309155e+004,-3.99648078598934e+000,-1.32377005345369e-001

5.35171021914442e+004,-3.99649196966703e+000,-1.34219913242692e-001

5.42641730979066e+004,-3.99650346485473e+000,-1.36088335893644e-001

5.50216727255895e+004,-3.99651528014588e+000,-1.37982620590938e-001

5.57897466540159e+004,-3.99652742436565e+000,-1.39903119108467e-001

5.65685424949235e+004,-3.99653990657823e+000,-1.41850187740676e-001

5.73582099206328e+004,-3.99655273609185e+000,-1.43824187357043e-001

5.81589006928121e+004,-3.99656592246560e+000,-1.45825483445712e-001

5.89707686916437e+004,-3.99657947551570e+000,-1.47854446162310e-001

5.97939699453972e+004,-3.99659340532208e+000,-1.49911450377199e-001

6.06286626604156e+004,-3.99660772223582e+000,-1.51996875717857e-001

6.14750072515201e+004,-3.99662243688447e+000,-1.54111106626435e-001

6.23331663728396e+004,-3.99663756018069e+000,-1.56254532396160e-001

6.32033049490698e+004,-3.99665310332851e+000,-1.58427547224680e-001

6.40855902071694e+004,-3.99666907783098e+000,-1.60630550258420e-001

6.49801917084985e+004,-3.99668549549781e+000,-1.62863945639082e-001

6.58872813814055e+004,-3.99670236845286e+000,-1.65128142549745e-001

6.68070335542691e+004,-3.99671970914158e+000,-1.67423555264691e-001

6.77396249890018e+004,-3.99673753034015e+000,-1.69750603187324e-001

6.86852349150199e+004,-3.99675584516264e+000,-1.72109710901740e-001

6.96440450636895e+004,-3.99677466706936e+000,-1.74501308217698e-001

7.06162397032520e+004,-3.99679400987612e+000,-1.76925830210948e-001

7.16020056742374e+004,-3.99681388776234e+000,-1.79383717270021e-001

7.26015324253724e+004,-3.99683431528001e+000,-1.81875415139229e-001

7.36150120499896e+004,-3.99685530736277e+000,-1.84401374961388e-001

7.46426393229441e+004,-3.99687687933487e+000,-1.86962053321706e-001

7.56846117380472e+004,-3.99689904692137e+000,-1.89557912283634e-001

7.67411295460207e+004,-3.99692182625650e+000,-1.92189419437694e-001

7.78123957929823e+004,-3.99694523389420e+000,-1.94857047936338e-001

7.88986163594682e+004,-3.99696928681795e+000,-1.97561276533320e-001

7.99999999999995e+004,-3.99699400245093e+000,-2.00302589621623e-001

8.11167583832018e+004,-3.99701939866553e+000,-2.03081477275313e-001

8.22491061324848e+004,-3.99704549379489e+000,-2.05898435278983e-001

8.33972608672892e+004,-3.99707230664263e+000,-2.08753965168187e-001

8.45614432449099e+004,-3.99709985649445e+000,-2.11648574258125e-001

8.57418770029029e+004,-3.99712816312806e+000,-2.14582775682716e-001

8.69387890020841e+004,-3.99715724682561e+000,-2.17557088417994e-001

8.81524092701283e+004,-3.99718712838358e+000,-2.20572037320173e-001

8.93829710457770e+004,-3.99721782912512e+000,-2.23628153148895e-001

9.06307108236633e+004,-3.99724937091196e+000,-2.26725972591717e-001

9.18958683997622e+004,-3.99728177615499e+000,-2.29866038297308e-001

9.31786869174758e+004,-3.99731506782750e+000,-2.33048898889950e-001

9.44794129143618e+004,-3.99734926947646e+000,-2.36275108996411e-001

9.57982963695136e+004,-3.99738440523497e+000,-2.39545229263476e-001

9.71355907516031e+004,-3.99742049983446e+000,-2.42859826377613e-001

9.84915530675926e+004,-3.99745757861783e+000,-2.46219473074417e-001

9.98664439121282e+004,-3.99749566755079e+000,-2.49624748161348e-001

1.01260527517622e+005,-3.99753479323601e+000,-2.53076236518700e-001

1.02674071805032e+005,-3.99757498292535e+000,-2.56574529111790e-001

1.04107348435354e+005,-3.99761626453221e+000,-2.60120223000947e-001

1.05560632861831e+005,-3.99765866664561e+000,-2.63713921336749e-001

1.07034204382888e+005,-3.99770221854254e+000,-2.67356233366330e-001

1.08528346195813e+005,-3.99774695020144e+000,-2.71047774427505e-001

1.10043345451179e+005,-3.99779289231516e+000,-2.74789165945709e-001

1.11579493308032e+005,-3.99784007630477e+000,-2.78581035420997e-001

1.13137084989847e+005,-3.99788853433178e+000,-2.82424016423135e-001

1.14716419841265e+005,-3.99793829931232e+000,-2.86318748569781e-001

1.16317801385624e+005,-3.99798940493056e+000,-2.90265877507548e-001

1.17941537383287e+005,-3.99804188565070e+000,-2.94266054896425e-001

1.19587939890794e+005,-3.99809577673151e+000,-2.98319938374680e-001

1.21257325320831e+005,-3.99815111423866e+000,-3.02428191534356e-001

1.22950014503040e+005,-3.99820793505755e+000,-3.06591483887620e-001

1.24666332745679e+005,-3.99826627690706e+000,-3.10810490823398e-001

1.26406609898139e+005,-3.99832617835126e+000,-3.15085893570550e-001

1.28171180414339e+005,-3.99838767881303e+000,-3.19418379144881e-001

1.29960383416997e+005,-3.99845081858532e+000,-3.23808640303524e-001

1.31774562762811e+005,-3.99851563884391e+000,-3.28257375486310e-001

1.33614067108538e+005,-3.99858218165926e+000,-3.32765288753218e-001

1.35479249978003e+005,-3.99865049000778e+000,-3.37333089721606e-001

1.37370469830040e+005,-3.99872060778333e+000,-3.41961493492365e-001

1.39288090127379e+005,-3.99879257980797e+000,-3.46651220574963e-001

1.41232479406504e+005,-3.99886645184210e+000,-3.51402996808454e-001

1.43204011348474e+005,-3.99894227059489e+000,-3.56217553270613e-001

1.45203064850745e+005,-3.99902008373320e+000,-3.61095626190141e-001

1.47230024099979e+005,-3.99909993989146e+000,-3.66037956842642e-001

1.49285278645888e+005,-3.99918188867865e+000,-3.71045291455209e-001

1.51369223476094e+005,-3.99926598068697e+000,-3.76118381090796e-001

1.53482259092041e+005,-3.99935226749852e+000,-3.81257981535366e-001

1.55624791585964e+005,-3.99944080169112e+000,-3.86464853178630e-001

1.57797232718936e+005,-3.99953163684441e+000,-3.91739760883150e-001

1.59999999999999e+005,-3.99962482754375e+000,-3.97083473854438e-001

1.62233516766403e+005,-3.99972042938422e+000,-4.02496765498717e-001

1.64498212264969e+005,-3.99981849897253e+000,-4.07980413282441e-001

1.66794521734578e+005,-3.99991909392910e+000,-4.13535198576331e-001

1.69122886489819e+005,-4.00002227288833e+000,-4.19161906498471e-001

1.71483754005805e+005,-4.00012809549713e+000,-4.24861325753391e-001

1.73877578004168e+005,-4.00023662241340e+000,-4.30634248458614e-001

1.76304818540256e+005,-4.00034791530177e+000,-4.36481469972594e-001

1.78765942091554e+005,-4.00046203682912e+000,-4.42403788709021e-001

1.81261421647326e+005,-4.00057905065772e+000,-4.48402005951403e-001

1.83791736799524e+005,-4.00069902143651e+000,-4.54476925661693e-001

1.86357373834951e+005,-4.00082201479205e+000,-4.60629354275967e-001

1.88958825828723e+005,-4.00094809731577e+000,-4.66860100505587e-001

1.91596592739027e+005,-4.00107733655076e+000,-4.73169975124773e-001

1.94271181503206e+005,-4.00120980097595e+000,-4.79559790756032e-001

1.96983106135185e+005,-4.00134555998806e+000,-4.86030361651501e-001

1.99732887824256e+005,-4.00148468388164e+000,-4.92582503470324e-001

2.02521055035243e+005,-4.00162724382669e+000,-4.99217033048834e-001

2.05348143610063e+005,-4.00177331184338e+000,-5.05934768172614e-001

2.08214696870707e+005,-4.00192296077562e+000,-5.12736527336381e-001

2.11121265723661e+005,-4.00207626425986e+000,-5.19623129512717e-001

2.14068408765776e+005,-4.00223329669307e+000,-5.26595393909101e-001

2.17056692391625e+005,-4.00239413319717e+000,-5.33654139724778e-001

2.20086690902357e+005,-4.00255884957964e+000,-5.40800185913469e-001

2.23158986616063e+005,-4.00272752229247e+000,-5.48034350936292e-001

2.26274169979693e+005,-4.00290022838733e+000,-5.55357452518416e-001

2.29432839682530e+005,-4.00307704546657e+000,-5.62770307411694e-001

2.32635602771247e+005,-4.00325805163260e+000,-5.70273731149509e-001

2.35883074766574e+005,-4.00344332543166e+000,-5.77868537814506e-001

2.39175879781588e+005,-4.00363294579611e+000,-5.85555539800155e-001

2.42514650641661e+005,-4.00382699198103e+000,-5.93335547585453e-001

2.45900029006080e+005,-4.00402554349819e+000,-6.01209369510945e-001

2.49332665491357e+005,-4.00422868004564e+000,-6.09177811562713e-001

2.52813219796278e+005,-4.00443648143380e+000,-6.17241677160815e-001

2.56342360828676e+005,-4.00464902750617e+000,-6.25401766966974e-001

2.59920766833993e+005,-4.00486639805785e+000,-6.33658878688319e-001

2.63549125525621e+005,-4.00508867274760e+000,-6.42013806907784e-001

2.67228134217075e+005,-4.00531593100703e+000,-6.50467342919054e-001

2.70958499956006e+005,-4.00554825194523e+000,-6.59020274577779e-001

2.74740939660078e+005,-4.00578571424831e+000,-6.67673386172329e-001

2.78576180254757e+005,-4.00602839607499e+000,-6.76427458311257e-001

2.82464958813007e+005,-4.00627637494775e+000,-6.85283267829732e-001

2.86408022696948e+005,-4.00652972763904e+000,-6.94241587719850e-001

2.90406129701488e+005,-4.00678853005299e+000,-7.03303187085190e-001

2.94460048199957e+005,-4.00705285710350e+000,-7.12468831116176e-001

2.98570557291775e+005,-4.00732278258622e+000,-7.21739281101230e-001

3.02738446952187e+005,-4.00759837904757e+000,-7.31115294460458e-001

3.06964518184081e+005,-4.00787971764842e+000,-7.40597624815595e-001

3.11249583171928e+005,-4.00816686802418e+000,-7.50187022089733e-001

3.15594465437872e+005,-4.00845989813974e+000,-7.59884232650076e-001

3.19999999999997e+005,-4.00875887414124e+000,-7.69689999480190e-001

3.24467033532806e+005,-4.00906386020333e+000,-7.79605062400159e-001

3.28996424529938e+005,-4.00937491837246e+000,-7.89630158326649e-001

3.33589043469155e+005,-4.00969210840721e+000,-7.99766021576195e-001

3.38245772979638e+005,-4.01001548761424e+000,-8.10013384220760e-001

3.42967508011610e+005,-4.01034511068201e+000,-8.20372976486912e-001

3.47755156008335e+005,-4.01068102951035e+000,-8.30845527213934e-001

3.52609637080511e+005,-4.01102329303892e+000,-8.41431764356654e-001

3.57531884183106e+005,-4.01137194707165e+000,-8.52132415553699e-001

3.62522843294651e+005,-4.01172703410014e+000,-8.62948208749383e-001

3.67583473599047e+005,-4.01208859312511e+000,-8.73879872875459e-001

3.72714747669902e+005,-4.01245665947653e+000,-8.84928138596653e-001

3.77917651657445e+005,-4.01283126463263e+000,-8.96093739121122e-001

3.83193185478053e+005,-4.01321243603882e+000,-9.07377411074174e-001

3.88542363006410e+005,-4.01360019692626e+000,-9.18779895443428e-001

3.93966212270369e+005,-4.01399456613135e+000,-9.30301938587776e-001

3.99465775648511e+005,-4.01439555791566e+000,-9.41944293321838e-001

4.05042110070485e+005,-4.01480318178785e+000,-9.53707720069688e-001

4.10696287220124e+005,-4.01521744232752e+000,-9.65592988090319e-001

4.16429393741414e+005,-4.01563833901175e+000,-9.77600876778628e-001

4.22242531447321e+005,-4.01606586604501e+000,-9.89732177038545e-001

4.28136817531551e+005,-4.01650001219312e+000,-1.00198769273026e+000

4.34113384783250e+005,-4.01694076062133e+000,-1.01436824219409e+000

4.40173381804713e+005,-4.01738808873828e+000,-1.02687465984562e+000

4.46317973232124e+005,-4.01784196804525e+000,-1.03950779784621e+000

4.52548339959385e+005,-4.01830236399256e+000,-1.05226852784575e+000

4.58865679365059e+005,-4.01876923584273e+000,-1.06515774279857e+000

4.65271205542494e+005,-4.01924253654198e+000,-1.07817635884701e+000

4.71766149533147e+005,-4.01972221260033e+000,-1.09132531727815e+000

4.78351759563174e+005,-4.02020820398086e+000,-1.10460558654262e+000

4.85029301283321e+005,-4.02070044399928e+000,-1.11801816434169e+000

4.91800058012158e+005,-4.02119885923401e+000,-1.13156407977478e+000

4.98665330982714e+005,-4.02170336944774e+000,-1.14524439554483e+000

5.05626439592555e+005,-4.02221388752098e+000,-1.15906021022114e+000

5.12684721657352e+005,-4.02273031939825e+000,-1.17301266055217e+000

5.19841533667984e+005,-4.02325256404753e+000,-1.18710292382682e+000

5.27098251051240e+005,-4.02378051343358e+000,-1.20133222027809e+000

5.34456268434150e+005,-4.02431405250503e+000,-1.21570181552873e+000

5.41916999912011e+005,-4.02485305919723e+000,-1.23021302306515e+000

