Freq.,VOut,OutRef

1.00000000000000e+004,-3.26123687611177e+001,-1.09395077788778e-001

1.01395947979003e+004,-3.26123691362056e+001,-1.10922157465714e-001

1.02811382665607e+004,-3.26123695218366e+001,-1.12470553587795e-001

1.04246576084112e+004,-3.26123699183071e+001,-1.14040563686590e-001

1.05701804056138e+004,-3.26123703259216e+001,-1.15632489446401e-001

1.07177346253629e+004,-3.26123707449936e+001,-1.17246636761563e-001

1.08673486252606e+004,-3.26123711758447e+001,-1.18883315796786e-001

1.10190511587661e+004,-3.26123716188061e+001,-1.20542841042040e-001

1.11728713807222e+004,-3.26123720742181e+001,-1.22225531377841e-001

1.13288388529580e+004,-3.26123725424304e+001,-1.23931710134198e-001

1.14869835499703e+004,-3.26123730238030e+001,-1.25661705149867e-001

1.16473358646846e+004,-3.26123735187054e+001,-1.27415848842654e-001

1.18099266142953e+004,-3.26123740275180e+001,-1.29194478266091e-001

1.19747870461893e+004,-3.26123745506317e+001,-1.30997935175475e-001

1.21419488439505e+004,-3.26123750884483e+001,-1.32826566097902e-001

1.23114441334492e+004,-3.26123756413807e+001,-1.34680722394891e-001

1.24833054890161e+004,-3.26123762098541e+001,-1.36560760326910e-001

1.26575659397028e+004,-3.26123767943046e+001,-1.38467041130721e-001

1.28342589756290e+004,-3.26123773951817e+001,-1.40399931077627e-001

1.30134185544193e+004,-3.26123780129465e+001,-1.42359801554036e-001

1.31950791077289e+004,-3.26123786480738e+001,-1.44347029124016e-001

1.33792755478611e+004,-3.26123793010511e+001,-1.46361995609215e-001

1.35660432744767e+004,-3.26123799723801e+001,-1.48405088154514e-001

1.37554181813974e+004,-3.26123806625764e+001,-1.50476699308460e-001

1.39474366635040e+004,-3.26123813721703e+001,-1.52577227093891e-001

1.41421356237309e+004,-3.26123821017062e+001,-1.54707075090408e-001

1.43395524801583e+004,-3.26123828517446e+001,-1.56866652504003e-001

1.45397251732031e+004,-3.26123836228617e+001,-1.59056374249686e-001

1.47426921729110e+004,-3.26123844156494e+001,-1.61276661032521e-001

1.49484924863494e+004,-3.26123852307166e+001,-1.63527939424643e-001

1.51571656651040e+004,-3.26123860686891e+001,-1.65810641949527e-001

1.53687518128801e+004,-3.26123869302101e+001,-1.68125207164733e-001

1.55832915932100e+004,-3.26123878159415e+001,-1.70472079742663e-001

1.58008262372675e+004,-3.26123887265631e+001,-1.72851710560967e-001

1.60213975517924e+004,-3.26123896627740e+001,-1.75264556785968e-001

1.62450479271247e+004,-3.26123906252930e+001,-1.77711081959188e-001

1.64718203453514e+004,-3.26123916148592e+001,-1.80191756087564e-001

1.67017583885674e+004,-3.26123926322319e+001,-1.82707055737260e-001

1.69349062472505e+004,-3.26123936781924e+001,-1.85257464115517e-001

1.71713087287550e+004,-3.26123947535433e+001,-1.87843471173211e-001

1.74110112659224e+004,-3.26123958591103e+001,-1.90465573691050e-001

1.76540599258131e+004,-3.26123969957416e+001,-1.93124275381600e-001

1.79005014185594e+004,-3.26123981643098e+001,-1.95820086977792e-001

1.81503831063432e+004,-3.26123993657117e+001,-1.98553526338042e-001

1.84037530124975e+004,-3.26124006008692e+001,-2.01325118541542e-001

1.86606598307361e+004,-3.26124018707303e+001,-2.04135395988286e-001

1.89211529345119e+004,-3.26124031762692e+001,-2.06984898503959e-001

1.91852823865052e+004,-3.26124045184879e+001,-2.09874173439984e-001

1.94530989482457e+004,-3.26124058984160e+001,-2.12803775779728e-001

1.97246540898671e+004,-3.26124073171125e+001,-2.15774268245571e-001

1.99999999999999e+004,-3.26124087756654e+001,-2.18786221405753e-001

2.02791895958005e+004,-3.26124102751939e+001,-2.21840213780437e-001

2.05622765331213e+004,-3.26124118168483e+001,-2.24936831958894e-001

2.08493152168224e+004,-3.26124134018108e+001,-2.28076670705940e-001

2.11403608112276e+004,-3.26124150312974e+001,-2.31260333077254e-001

2.14354692507258e+004,-3.26124167065577e+001,-2.34488430536413e-001

2.17346972505211e+004,-3.26124184288762e+001,-2.37761583070113e-001

2.20381023175322e+004,-3.26124201995740e+001,-2.41080419304498e-001

2.23457427614443e+004,-3.26124220200087e+001,-2.44445576630762e-001

2.26576777059159e+004,-3.26124238915762e+001,-2.47857701321423e-001

2.29739670999406e+004,-3.26124258157112e+001,-2.51317448657543e-001

2.32946717293690e+004,-3.26124277938887e+001,-2.54825483052087e-001

2.36198532285905e+004,-3.26124298276253e+001,-2.58382478175927e-001

2.39495740923785e+004,-3.26124319184797e+001,-2.61989117088310e-001

2.42838976879009e+004,-3.26124340680544e+001,-2.65646092367262e-001

2.46228882668982e+004,-3.26124362779967e+001,-2.69354106239003e-001

2.49666109780322e+004,-3.26124385500002e+001,-2.73113870714818e-001

2.53151318794055e+004,-3.26124408858057e+001,-2.76926107725096e-001

2.56685179512580e+004,-3.26124432872027e+001,-2.80791549259439e-001

2.60268371088386e+004,-3.26124457560309e+001,-2.84710937502791e-001

2.63901582154578e+004,-3.26124482941813e+001,-2.88685024979170e-001

2.67585510957221e+004,-3.26124509035982e+001,-2.92714574693371e-001

2.71320865489533e+004,-3.26124535862799e+001,-2.96800360278691e-001

2.75108363627948e+004,-3.26124563442805e+001,-3.00943166142518e-001

2.78948733270080e+004,-3.26124591797120e+001,-3.05143787616186e-001

2.82842712474618e+004,-3.26124620947450e+001,-3.09403031105894e-001

2.86791049603164e+004,-3.26124650916111e+001,-3.13721714246481e-001

2.90794503464061e+004,-3.26124681726039e+001,-3.18100666057980e-001

2.94853843458219e+004,-3.26124713400816e+001,-3.22540727101259e-001

2.98969849726987e+004,-3.26124745964677e+001,-3.27042749640405e-001

3.03143313302078e+004,-3.26124779442541e+001,-3.31607597800780e-001

3.07375036257601e+004,-3.26124813860016e+001,-3.36236147738275e-001

3.11665831864199e+004,-3.26124849243430e+001,-3.40929287802111e-001

3.16016524745350e+004,-3.26124885619843e+001,-3.45687918704277e-001

3.20427951035848e+004,-3.26124923017073e+001,-3.50512953691798e-001

3.24900958542493e+004,-3.26124961463712e+001,-3.55405318718312e-001

3.29436406907028e+004,-3.26125000989151e+001,-3.60365952621217e-001

3.34035167771346e+004,-3.26125041623601e+001,-3.65395807298923e-001

3.38698124945009e+004,-3.26125083398116e+001,-3.70495847889842e-001

3.43426174575100e+004,-3.26125126344616e+001,-3.75667052959178e-001

3.48220225318448e+004,-3.26125170495908e+001,-3.80910414681404e-001

3.53081198516260e+004,-3.26125215885716e+001,-3.86226939028306e-001

3.58010028371187e+004,-3.26125262548704e+001,-3.91617645959169e-001

3.63007662126863e+004,-3.26125310520503e+001,-3.97083569614768e-001

3.68075060249948e+004,-3.26125359837731e+001,-4.02625758514438e-001

3.73213196614721e+004,-3.26125410538032e+001,-4.08245275749185e-001

3.78423058690237e+004,-3.26125462660092e+001,-4.13943199188378e-001

3.83705647730104e+004,-3.26125516243680e+001,-4.19720621678737e-001

3.89061978964912e+004,-3.26125571329664e+001,-4.25578651254535e-001

3.94493081797342e+004,-3.26125627960055e+001,-4.31518411342615e-001

3.99999999999998e+004,-3.26125686178028e+001,-4.37541040977583e-001

4.05583791916010e+004,-3.26125746027962e+001,-4.43647695014880e-001

4.11245530662425e+004,-3.26125807555464e+001,-4.49839544348831e-001

4.16986304336447e+004,-3.26125870807412e+001,-4.56117776132835e-001

4.22807216224550e+004,-3.26125935831984e+001,-4.62483594002455e-001

4.28709385014515e+004,-3.26126002678697e+001,-4.68938218302030e-001

4.34693945010421e+004,-3.26126071398436e+001,-4.75482886315851e-001

4.40762046350642e+004,-3.26126142043508e+001,-4.82118852495822e-001

4.46914855228886e+004,-3.26126214667660e+001,-4.88847388702531e-001

4.53153554118317e+004,-3.26126289326136e+001,-4.95669784439656e-001

4.59479341998812e+004,-3.26126366075705e+001,-5.02587347098730e-001

4.65893434587380e+004,-3.26126444974712e+001,-5.09601402201185e-001

4.72397064571810e+004,-3.26126526083117e+001,-5.16713293648695e-001

4.78991481847569e+004,-3.26126609462536e+001,-5.23924383973517e-001

4.85677953758016e+004,-3.26126695176294e+001,-5.31236054593584e-001

4.92457765337964e+004,-3.26126783289460e+001,-5.38649706071022e-001

4.99332219560642e+004,-3.26126873868909e+001,-5.46166758371949e-001

5.06302637588109e+004,-3.26126966983354e+001,-5.53788651133861e-001

5.13370359025159e+004,-3.26127062703415e+001,-5.61516843930007e-001

5.20536742176771e+004,-3.26127161101652e+001,-5.69352816545707e-001

5.27803164309155e+004,-3.26127262252630e+001,-5.77298069250490e-001

5.35171021914442e+004,-3.26127366232969e+001,-5.85354123077882e-001

5.42641730979066e+004,-3.26127473121396e+001,-5.93522520108846e-001

5.50216727255895e+004,-3.26127582998811e+001,-6.01804823755752e-001

5.57897466540159e+004,-3.26127695948337e+001,-6.10202619053511e-001

5.65685424949235e+004,-3.26127812055380e+001,-6.18717512953845e-001

5.73582099206328e+004,-3.26127931407699e+001,-6.27351134620570e-001

5.81589006928121e+004,-3.26128054095458e+001,-6.36105135731989e-001

5.89707686916437e+004,-3.26128180211298e+001,-6.44981190785864e-001

5.97939699453972e+004,-3.26128309850399e+001,-6.53980997407391e-001

6.06286626604156e+004,-3.26128443110551e+001,-6.63106276662804e-001

6.14750072515201e+004,-3.26128580092222e+001,-6.72358773375222e-001

6.23331663728396e+004,-3.26128720898630e+001,-6.81740256445550e-001

6.32033049490698e+004,-3.26128865635812e+001,-6.91252519178224e-001

6.40855902071694e+004,-3.26129014412710e+001,-7.00897379607144e-001

6.49801917084985e+004,-3.26129167341232e+001,-7.10676680832634e-001

6.58872813814055e+004,-3.26129324536344e+001,-7.20592291354832e-001

6.68070335542691e+004,-3.26129486116145e+001,-7.30646105416915e-001

6.77396249890018e+004,-3.26129652201949e+001,-7.40840043350507e-001

6.86852349150199e+004,-3.26129822918372e+001,-7.51176051923855e-001

6.96440450636895e+004,-3.26129998393416e+001,-7.61656104698650e-001

7.06162397032520e+004,-3.26130178758563e+001,-7.72282202385072e-001

7.16020056742374e+004,-3.26130364148859e+001,-7.83056373208101e-001

7.26015324253724e+004,-3.26130554703011e+001,-7.93980673271354e-001

7.36150120499896e+004,-3.26130750563483e+001,-8.05057186931742e-001

7.46426393229441e+004,-3.26130951876591e+001,-8.16288027174159e-001

7.56846117380472e+004,-3.26131158792607e+001,-8.27675335992544e-001

7.67411295460207e+004,-3.26131371465856e+001,-8.39221284774407e-001

7.78123957929823e+004,-3.26131590054825e+001,-8.50928074692726e-001

7.88986163594682e+004,-3.26131814722268e+001,-8.62797937099168e-001

7.99999999999995e+004,-3.26132045635315e+001,-8.74833133923728e-001

8.11167583832018e+004,-3.26132282965588e+001,-8.87035958078440e-001

8.22491061324848e+004,-3.26132526889310e+001,-8.99408733867753e-001

8.33972608672892e+004,-3.26132777587429e+001,-9.11953817399455e-001

8.45614432449099e+004,-3.26133035245729e+001,-9.24673597006012e-001

8.57418770029029e+004,-3.26133300054961e+001,-9.37570493666330e-001

8.69387890020841e+004,-3.26133572210966e+001,-9.50646961434552e-001

8.81524092701283e+004,-3.26133851914799e+001,-9.63905487873594e-001

8.93829710457770e+004,-3.26134139372865e+001,-9.77348594492116e-001

9.06307108236633e+004,-3.26134434797052e+001,-9.90978837188831e-001

9.18958683997622e+004,-3.26134738404863e+001,-1.00479880670200e+000

9.31786869174758e+004,-3.26135050419561e+001,-1.01881112906000e+000

9.44794129143618e+004,-3.26135371070309e+001,-1.03301846604205e+000

9.57982963695136e+004,-3.26135700592317e+001,-1.04742351564120e+000

9.71355907516031e+004,-3.26136039226986e+001,-1.06202901253309e+000

9.84915530675926e+004,-3.26136387222064e+001,-1.07683772855053e+000

9.98664439121282e+004,-3.26136744831802e+001,-1.09185247316226e+000

1.01260527517622e+005,-3.26137112317104e+001,-1.10707609395782e+000

1.02674071805032e+005,-3.26137489945695e+001,-1.12251147713785e+000

1.04107348435354e+005,-3.26137877992282e+001,-1.13816154800850e+000

1.05560632861831e+005,-3.26138276738721e+001,-1.15402927148380e+000

1.07034204382888e+005,-3.26138686474188e+001,-1.17011765258978e+000

1.08528346195813e+005,-3.26139107495352e+001,-1.18642973697690e+000

1.10043345451179e+005,-3.26139540106549e+001,-1.20296861143772e+000

1.11579493308032e+005,-3.26139984619967e+001,-1.21973740442817e+000

1.13137084989847e+005,-3.26140441355826e+001,-1.23673928659622e+000

1.14716419841265e+005,-3.26140910642562e+001,-1.25397747131626e+000

1.16317801385624e+005,-3.26141392817021e+001,-1.27145521522674e+000

1.17941537383287e+005,-3.26141888224648e+001,-1.28917581877655e+000

1.19587939890794e+005,-3.26142397219685e+001,-1.30714262677405e+000

1.21257325320831e+005,-3.26142920165368e+001,-1.32535902894438e+000

1.22950014503040e+005,-3.26143457434133e+001,-1.34382846049146e+000

1.24666332745679e+005,-3.26144009407814e+001,-1.36255440266536e+000

1.26406609898139e+005,-3.26144576477860e+001,-1.38154038333526e+000

1.28171180414339e+005,-3.26145159045539e+001,-1.40078997756994e+000

1.29960383416997e+005,-3.26145757522158e+001,-1.42030680822216e+000

1.31774562762811e+005,-3.26146372329278e+001,-1.44009454652023e+000

1.33614067108538e+005,-3.26147003898933e+001,-1.46015691266481e+000

1.35479249978003e+005,-3.26147652673855e+001,-1.48049767643264e+000

1.37370469830040e+005,-3.26148319107703e+001,-1.50112065778451e+000

1.39288090127379e+005,-3.26149003665285e+001,-1.52202972748160e+000

1.41232479406504e+005,-3.26149706822793e+001,-1.54322880770747e+000

1.43204011348474e+005,-3.26150429068039e+001,-1.56472187269349e+000

1.45203064850745e+005,-3.26151170900689e+001,-1.58651294935486e+000

1.47230024099979e+005,-3.26151932832503e+001,-1.60860611792977e+000

1.49285278645888e+005,-3.26152715387572e+001,-1.63100551262632e+000

1.51369223476094e+005,-3.26153519102568e+001,-1.65371532227510e+000

1.53482259092041e+005,-3.26154344526985e+001,-1.67673979099043e+000

1.55624791585964e+005,-3.26155192223387e+001,-1.70008321883405e+000

1.57797232718936e+005,-3.26156062767656e+001,-1.72374996249081e+000

1.59999999999999e+005,-3.26156956749243e+001,-1.74774443594597e+000

1.62233516766403e+005,-3.26157874771422e+001,-1.77207111117363e+000

1.64498212264969e+005,-3.26158817451538e+001,-1.79673451883013e+000

1.66794521734578e+005,-3.26159785421266e+001,-1.82173924895441e+000

1.69122886489819e+005,-3.26160779326865e+001,-1.84708995167573e+000

1.71483754005805e+005,-3.26161799829430e+001,-1.87279133793137e+000

1.73877578004168e+005,-3.26162847605153e+001,-1.89884818018716e+000

1.76304818540256e+005,-3.26163923345578e+001,-1.92526531316967e+000

1.78765942091554e+005,-3.26165027757852e+001,-1.95204763460482e+000

1.81261421647326e+005,-3.26166161564993e+001,-1.97920010596388e+000

1.83791736799524e+005,-3.26167325506131e+001,-2.00672775322034e+000

1.86357373834951e+005,-3.26168520336776e+001,-2.03463566761116e+000

1.88958825828723e+005,-3.26169746829064e+001,-2.06292900641049e+000

1.91596592739027e+005,-3.26171005772012e+001,-2.09161299371059e+000

1.94271181503206e+005,-3.26172297971772e+001,-2.12069292121172e+000

1.96983106135185e+005,-3.26173624251875e+001,-2.15017414902310e+000

1.99732887824256e+005,-3.26174985453485e+001,-2.18006210647150e+000

2.02521055035243e+005,-3.26176382435639e+001,-2.21036229292154e+000

2.05348143610063e+005,-3.26177816075492e+001,-2.24108027860601e+000

2.08214696870707e+005,-3.26179287268556e+001,-2.27222170546686e+000

2.11121265723661e+005,-3.26180796928938e+001,-2.30379228800736e+000

2.14068408765776e+005,-3.26182345989571e+001,-2.33579781415624e+000

2.17056692391625e+005,-3.26183935402444e+001,-2.36824414614302e+000

2.20086690902357e+005,-3.26185566138829e+001,-2.40113722138704e+000

2.23158986616063e+005,-3.26187239189499e+001,-2.43448305339862e+000

2.26274169979693e+005,-3.26188955564948e+001,-2.46828773269340e+000

2.29432839682530e+005,-3.26190716295600e+001,-2.50255742772253e+000

2.32635602771247e+005,-3.26192522432017e+001,-2.53729838581522e+000

2.35883074766574e+005,-3.26194375045101e+001,-2.57251693413732e+000

2.39175879781588e+005,-3.26196275226290e+001,-2.60821948066729e+000

2.42514650641661e+005,-3.26198224087748e+001,-2.64441251518597e+000

2.45900029006080e+005,-3.26200222762549e+001,-2.68110261028578e+000

2.49332665491357e+005,-3.26202272404861e+001,-2.71829642239732e+000

2.52813219796278e+005,-3.26204374190111e+001,-2.75600069283426e+000

2.56342360828676e+005,-3.26206529315160e+001,-2.79422224885804e+000

2.59920766833993e+005,-3.26208738998460e+001,-2.83296800476356e+000

2.63549125525621e+005,-3.26211004480212e+001,-2.87224496298481e+000

2.67228134217075e+005,-3.26213327022512e+001,-2.91206021522507e+000

2.70958499956006e+005,-3.26215707909499e+001,-2.95242094360732e+000

2.74740939660078e+005,-3.26218148447488e+001,-2.99333442185142e+000

2.78576180254757e+005,-3.26220649965113e+001,-3.03480801647446e+000

2.82464958813007e+005,-3.26223213813443e+001,-3.07684918801966e+000

2.86408022696948e+005,-3.26225841366116e+001,-3.11946549230906e+000

2.90406129701488e+005,-3.26228534019452e+001,-3.16266458172937e+000

2.94460048199957e+005,-3.26231293192577e+001,-3.20645420654254e+000

2.98570557291775e+005,-3.26234120327530e+001,-3.25084221623112e+000

3.02738446952187e+005,-3.26237016889379e+001,-3.29583656087329e+000

3.06964518184081e+005,-3.26239984366332e+001,-3.34144529255137e+000

3.11249583171928e+005,-3.26243024269846e+001,-3.38767656679593e+000

3.15594465437872e+005,-3.26246138134739e+001,-3.43453864406512e+000

3.19999999999997e+005,-3.26249327519311e+001,-3.48203989125949e+000

3.24467033532806e+005,-3.26252594005452e+001,-3.53018878327791e+000

3.28996424529938e+005,-3.26255939198771e+001,-3.57899390461109e+000

3.33589043469155e+005,-3.26259364728724e+001,-3.62846395097700e+000

3.38245772979638e+005,-3.26262872248753e+001,-3.67860773099781e+000

3.42967508011610e+005,-3.26266463436434e+001,-3.72943416792100e+000

3.47755156008335e+005,-3.26270139993639e+001,-3.78095230138519e+000

3.52609637080511e+005,-3.26273903646709e+001,-3.83317128923237e+000

3.57531884183106e+005,-3.26277756146647e+001,-3.88610040936601e+000

3.62522843294651e+005,-3.26281699269331e+001,-3.93974906166008e+000

3.67583473599047e+005,-3.26285734815748e+001,-3.99412676991604e+000

3.72714747669902e+005,-3.26289864612252e+001,-4.04924318387064e+000

3.77917651657445e+005,-3.26294090510848e+001,-4.10510808125783e+000

3.83193185478053e+005,-3.26298414389517e+001,-4.16173136992012e+000

3.88542363006410e+005,-3.26302838152559e+001,-4.21912308997687e+000

3.93966212270369e+005,-3.26307363730992e+001,-4.27729341604603e+000

3.99465775648511e+005,-3.26311993082976e+001,-4.33625265952138e+000

4.05042110070485e+005,-3.26316728194296e+001,-4.39601127090617e+000

4.10696287220124e+005,-3.26321571078884e+001,-4.45657984220366e+000

4.16429393741414e+005,-3.26326523779403e+001,-4.51796910936412e+000

4.22242531447321e+005,-3.26331588367882e+001,-4.58018995479037e+000

4.28136817531551e+005,-3.26336766946412e+001,-4.64325340990153e+000

4.34113384783250e+005,-3.26342061647918e+001,-4.70717065775199e+000

4.40173381804713e+005,-3.26347474636993e+001,-4.77195303571176e+000

4.46317973232124e+005,-3.26353008110808e+001,-4.83761203820106e+000

4.52548339959385e+005,-3.26358664300109e+001,-4.90415931948466e+000

4.58865679365059e+005,-3.26364445470293e+001,-4.97160669652071e+000

4.65271205542494e+005,-3.26370353922577e+001,-5.03996615186705e+000

4.71766149533147e+005,-3.26376391995260e+001,-5.10924983664097e+000

4.78351759563174e+005,-3.26382562065089e+001,-5.17947007353417e+000

4.85029301283321e+005,-3.26388866548724e+001,-5.25063935987862e+000

4.91800058012158e+005,-3.26395307904320e+001,-5.32277037076503e+000

4.98665330982714e+005,-3.26401888633216e+001,-5.39587596220935e+000

5.05626439592555e+005,-3.26408611281749e+001,-5.46996917436740e+000

5.12684721657352e+005,-3.26415478443192e+001,-5.54506323479438e+000

5.19841533667984e+005,-3.26422492759818e+001,-5.62117156174766e+000

5.27098251051240e+005,-3.26429656925096e+001,-5.69830776753047e+000

5.34456268434150e+005,-3.26436973686033e+001,-5.77648566187207e+000

5.41916999912011e+005,-3.26444445845646e+001,-5.85571925534541e+000

