Freq.,VOut,OutRef

1.00000000000000e+004,-1.58011408751680e+000,-1.33684730951854e-001

1.01395947979003e+004,-1.58011401352762e+000,-1.35550900822619e-001

1.02811382665607e+004,-1.58011393745839e+000,-1.37443121477876e-001

1.04246576084112e+004,-1.58011385925045e+000,-1.39361756575228e-001

1.05701804056138e+004,-1.58011377884395e+000,-1.41307174845680e-001

1.07177346253629e+004,-1.58011369617681e+000,-1.43279750171300e-001

1.08673486252606e+004,-1.58011361118554e+000,-1.45279861651255e-001

1.10190511587661e+004,-1.58011352380500e+000,-1.47307893675927e-001

1.11728713807222e+004,-1.58011343396778e+000,-1.49364236004078e-001

1.13288388529580e+004,-1.58011334160492e+000,-1.51449283833840e-001

1.14869835499703e+004,-1.58011324664540e+000,-1.53563437880426e-001

1.16473358646846e+004,-1.58011314901617e+000,-1.55707104453230e-001

1.18099266142953e+004,-1.58011304864226e+000,-1.57880695532587e-001

1.19747870461893e+004,-1.58011294544644e+000,-1.60084628851321e-001

1.21419488439505e+004,-1.58011283934947e+000,-1.62319327971970e-001

1.23114441334492e+004,-1.58011273026960e+000,-1.64585222372274e-001

1.24833054890161e+004,-1.58011261812315e+000,-1.66882747522720e-001

1.26575659397028e+004,-1.58011250282385e+000,-1.69212344974188e-001

1.28342589756290e+004,-1.58011238428307e+000,-1.71574462441212e-001

1.30134185544193e+004,-1.58011226240964e+000,-1.73969553888677e-001

1.31950791077289e+004,-1.58011213710982e+000,-1.76398079618451e-001

1.33792755478611e+004,-1.58011200828753e+000,-1.78860506356514e-001

1.35660432744767e+004,-1.58011187584349e+000,-1.81357307346945e-001

1.37554181813974e+004,-1.58011173967595e+000,-1.83888962438432e-001

1.39474366635040e+004,-1.58011159968019e+000,-1.86455958178713e-001

1.41421356237309e+004,-1.58011145574867e+000,-1.89058787907211e-001

1.43395524801583e+004,-1.58011130777078e+000,-1.91697951849761e-001

1.45397251732031e+004,-1.58011115563264e+000,-1.94373957216906e-001

1.47426921729110e+004,-1.58011099921728e+000,-1.97087318298809e-001

1.49484924863494e+004,-1.58011083840458e+000,-1.99838556563782e-001

1.51571656651040e+004,-1.58011067307074e+000,-2.02628200761997e-001

1.53687518128801e+004,-1.58011050308880e+000,-2.05456787022822e-001

1.55832915932100e+004,-1.58011032832806e+000,-2.08324858960701e-001

1.58008262372675e+004,-1.58011014865417e+000,-2.11232967778634e-001

1.60213975517924e+004,-1.58010996392896e+000,-2.14181672374780e-001

1.62450479271247e+004,-1.58010977401044e+000,-2.17171539448635e-001

1.64718203453514e+004,-1.58010957875273e+000,-2.20203143610597e-001

1.67017583885674e+004,-1.58010937800551e+000,-2.23277067494224e-001

1.69349062472505e+004,-1.58010917161459e+000,-2.26393901864127e-001

1.71713087287550e+004,-1.58010895942124e+000,-2.29554245733613e-001

1.74110112659224e+004,-1.58010874126239e+000,-2.32758706476952e-001

1.76540599258131e+004,-1.58010851697022e+000,-2.36007899948252e-001

1.79005014185594e+004,-1.58010828637253e+000,-2.39302450597604e-001

1.81503831063432e+004,-1.58010804929180e+000,-2.42642991593835e-001

1.84037530124975e+004,-1.58010780554590e+000,-2.46030164943682e-001

1.86606598307361e+004,-1.58010755494749e+000,-2.49464621615774e-001

1.89211529345119e+004,-1.58010729730375e+000,-2.52947021668115e-001

1.91852823865052e+004,-1.58010703241675e+000,-2.56478034370934e-001

1.94530989482457e+004,-1.58010676008285e+000,-2.60058338338217e-001

1.97246540898671e+004,-1.58010648009268e+000,-2.63688621657451e-001

1.99999999999999e+004,-1.58010619223102e+000,-2.67369582021615e-001

2.02791895958005e+004,-1.58010589627647e+000,-2.71101926863751e-001

2.05622765331213e+004,-1.58010559200164e+000,-2.74886373492057e-001

2.08493152168224e+004,-1.58010527917255e+000,-2.78723649228772e-001

2.11403608112276e+004,-1.58010495754872e+000,-2.82614491549152e-001

2.14354692507258e+004,-1.58010462688287e+000,-2.86559648224209e-001

2.17346972505211e+004,-1.58010428692092e+000,-2.90559877462706e-001

2.20381023175322e+004,-1.58010393740135e+000,-2.94615948059605e-001

2.23457427614443e+004,-1.58010357805563e+000,-2.98728639540439e-001

2.26576777059159e+004,-1.58010320860741e+000,-3.02898742314488e-001

2.29739670999406e+004,-1.58010282877278e+000,-3.07127057823829e-001

2.32946717293690e+004,-1.58010243825963e+000,-3.11414398700337e-001

2.36198532285905e+004,-1.58010203676780e+000,-3.15761588919044e-001

2.39495740923785e+004,-1.58010162398855e+000,-3.20169463958495e-001

2.42838976879009e+004,-1.58010119960477e+000,-3.24638870959228e-001

2.46228882668982e+004,-1.58010076329009e+000,-3.29170668889831e-001

2.49666109780322e+004,-1.58010031470913e+000,-3.33765728708616e-001

2.53151318794055e+004,-1.58009985351702e+000,-3.38424933534090e-001

2.56685179512580e+004,-1.58009937935920e+000,-3.43149178812502e-001

2.60268371088386e+004,-1.58009889187116e+000,-3.47939372490526e-001

2.63901582154578e+004,-1.58009839067825e+000,-3.52796435190131e-001

2.67585510957221e+004,-1.58009787539513e+000,-3.57721300385356e-001

2.71320865489533e+004,-1.58009734562566e+000,-3.62714914582322e-001

2.75108363627948e+004,-1.58009680096260e+000,-3.67778237500065e-001

2.78948733270080e+004,-1.58009624098722e+000,-3.72912242255816e-001

2.82842712474618e+004,-1.58009566526908e+000,-3.78117915551902e-001

2.86791049603164e+004,-1.58009507336560e+000,-3.83396257865060e-001

2.90794503464061e+004,-1.58009446482179e+000,-3.88748283639247e-001

2.94853843458219e+004,-1.58009383916990e+000,-3.94175021480437e-001

2.98969849726987e+004,-1.58009319592884e+000,-3.99677514354927e-001

3.03143313302078e+004,-1.58009253460417e+000,-4.05256819788910e-001

3.07375036257601e+004,-1.58009185468754e+000,-4.10914010071638e-001

3.11665831864199e+004,-1.58009115565621e+000,-4.16650172463611e-001

3.16016524745350e+004,-1.58009043697300e+000,-4.22466409401363e-001

3.20427951035848e+004,-1.58008969808532e+000,-4.28363838714960e-001

3.24900958542493e+004,-1.58008893842511e+000,-4.34343593839060e-001

3.29436406907028e+004,-1.58008815740852e+000,-4.40406824030736e-001

3.34035167771346e+004,-1.58008735443514e+000,-4.46554694592998e-001

3.38698124945009e+004,-1.58008652888770e+000,-4.52788387096370e-001

3.43426174575100e+004,-1.58008568013161e+000,-4.59109099607242e-001

3.48220225318448e+004,-1.58008480751435e+000,-4.65518046918715e-001

3.53081198516260e+004,-1.58008391036523e+000,-4.72016460781595e-001

3.58010028371187e+004,-1.58008298799456e+000,-4.78605590144857e-001

3.63007662126863e+004,-1.58008203969323e+000,-4.85286701393284e-001

3.68075060249948e+004,-1.58008106473242e+000,-4.92061078590696e-001

3.73213196614721e+004,-1.58008006236255e+000,-4.98930023729146e-001

3.78423058690237e+004,-1.58007903181323e+000,-5.05894856976269e-001

3.83705647730104e+004,-1.58007797229213e+000,-5.12956916932506e-001

3.89061978964912e+004,-1.58007688298491e+000,-5.20117560884745e-001

3.94493081797342e+004,-1.58007576305412e+000,-5.27378165070928e-001

3.99999999999998e+004,-1.58007461163901e+000,-5.34740124941136e-001

4.05583791916010e+004,-1.58007342785449e+000,-5.42204855428728e-001

4.11245530662425e+004,-1.58007221079046e+000,-5.49773791222160e-001

4.16986304336447e+004,-1.58007095951147e+000,-5.57448387038176e-001

4.22807216224550e+004,-1.58006967305570e+000,-5.65230117904641e-001

4.28709385014515e+004,-1.58006835043422e+000,-5.73120479442931e-001

4.34693945010421e+004,-1.58006699063045e+000,-5.81120988154850e-001

4.40762046350642e+004,-1.58006559259914e+000,-5.89233181715366e-001

4.46914855228886e+004,-1.58006415526554e+000,-5.97458619268658e-001

4.53153554118317e+004,-1.58006267752489e+000,-6.05798881726209e-001

4.59479341998812e+004,-1.58006115824135e+000,-6.14255572071389e-001

4.65893434587380e+004,-1.58005959624704e+000,-6.22830315669531e-001

4.72397064571810e+004,-1.58005799034134e+000,-6.31524760577850e-001

4.78991481847569e+004,-1.58005633928987e+000,-6.40340577864553e-001

4.85677953758016e+004,-1.58005464182351e+000,-6.49279461928851e-001

4.92457765337964e+004,-1.58005289663757e+000,-6.58343130827138e-001

4.99332219560642e+004,-1.58005110239053e+000,-6.67533326604175e-001

5.06302637588109e+004,-1.58004925770335e+000,-6.76851815626857e-001

5.13370359025159e+004,-1.58004736115806e+000,-6.86300388925522e-001

5.20536742176771e+004,-1.58004541129695e+000,-6.95880862536569e-001

5.27803164309155e+004,-1.58004340662122e+000,-7.05595077853829e-001

5.35171021914442e+004,-1.58004134559013e+000,-7.15444901980523e-001

5.42641730979066e+004,-1.58003922661949e+000,-7.25432228090412e-001

5.50216727255895e+004,-1.58003704808056e+000,-7.35558975791232e-001

5.57897466540159e+004,-1.58003480829901e+000,-7.45827091492747e-001

5.65685424949235e+004,-1.58003250555316e+000,-7.56238548784090e-001

5.73582099206328e+004,-1.58003013807324e+000,-7.66795348809589e-001

5.81589006928121e+004,-1.58002770403949e+000,-7.77499520657825e-001

5.89707686916437e+004,-1.58002520158125e+000,-7.88353121748357e-001

5.97939699453972e+004,-1.58002262877511e+000,-7.99358238229608e-001

6.06286626604156e+004,-1.58001998364360e+000,-8.10516985380453e-001

6.14750072515201e+004,-1.58001726415369e+000,-8.21831508016151e-001

6.23331663728396e+004,-1.58001446821541e+000,-8.33303980900658e-001

6.32033049490698e+004,-1.58001159367973e+000,-8.44936609167088e-001

6.40855902071694e+004,-1.58000863833747e+000,-8.56731628739910e-001

6.49801917084985e+004,-1.58000559991723e+000,-8.68691306766723e-001

6.58872813814055e+004,-1.58000247608385e+000,-8.80817942053264e-001

6.68070335542691e+004,-1.57999926443661e+000,-8.93113865506401e-001

6.77396249890018e+004,-1.57999596250705e+000,-9.05581440583922e-001

6.86852349150199e+004,-1.57999256775764e+000,-9.18223063746878e-001

6.96440450636895e+004,-1.57998907757946e+000,-9.31041164922441e-001

7.06162397032520e+004,-1.57998548929022e+000,-9.44038207971671e-001

7.16020056742374e+004,-1.57998180013226e+000,-9.57216691163305e-001

7.26015324253724e+004,-1.57997800727044e+000,-9.70579147654817e-001

7.36150120499896e+004,-1.57997410778995e+000,-9.84128145979981e-001

7.46426393229441e+004,-1.57997009869409e+000,-9.97866290543065e-001

7.56846117380472e+004,-1.57996597690198e+000,-1.01179622212064e+000

7.67411295460207e+004,-1.57996173924612e+000,-1.02592061836982e+000

7.78123957929823e+004,-1.57995738247000e+000,-1.04024219434409e+000

7.88986163594682e+004,-1.57995290322568e+000,-1.05476370301541e+000

7.99999999999995e+004,-1.57994829807105e+000,-1.06948793580510e+000

8.11167583832018e+004,-1.57994356346736e+000,-1.08441772312062e+000

8.22491061324848e+004,-1.57993869577638e+000,-1.09955593490142e+000

8.33972608672892e+004,-1.57993369125775e+000,-1.11490548117076e+000

8.45614432449099e+004,-1.57992854606592e+000,-1.13046931259679e+000

8.57418770029029e+004,-1.57992325624730e+000,-1.14625042106132e+000

8.69387890020841e+004,-1.57991781773726e+000,-1.16225184023498e+000

8.81524092701283e+004,-1.57991222635705e+000,-1.17847664616178e+000

8.93829710457770e+004,-1.57990647781035e+000,-1.19492795785304e+000

9.06307108236633e+004,-1.57990056768032e+000,-1.21160893788664e+000

9.18958683997622e+004,-1.57989449142596e+000,-1.22852279301720e+000

9.31786869174758e+004,-1.57988824437860e+000,-1.24567277479434e+000

9.44794129143618e+004,-1.57988182173857e+000,-1.26306218018808e+000

9.57982963695136e+004,-1.57987521857133e+000,-1.28069435222533e+000

9.71355907516031e+004,-1.57986842980368e+000,-1.29857268063363e+000

9.84915530675926e+004,-1.57986145021997e+000,-1.31670060249447e+000

9.98664439121282e+004,-1.57985427445806e+000,-1.33508160290607e+000

1.01260527517622e+005,-1.57984689700509e+000,-1.35371921565539e+000

1.02674071805032e+005,-1.57983931219352e+000,-1.37261702389877e+000

1.04107348435354e+005,-1.57983151419644e+000,-1.39177866085359e+000

1.05560632861831e+005,-1.57982349702341e+000,-1.41120781049825e+000

1.07034204382888e+005,-1.57981525451573e+000,-1.43090820828286e+000

1.08528346195813e+005,-1.57980678034171e+000,-1.45088364184949e+000

1.10043345451179e+005,-1.57979806799185e+000,-1.47113795176325e+000

1.11579493308032e+005,-1.57978911077377e+000,-1.49167503225290e+000

1.13137084989847e+005,-1.57977990180732e+000,-1.51249883196112e+000

1.14716419841265e+005,-1.57977043401897e+000,-1.53361335470837e+000

1.16317801385624e+005,-1.57976070013670e+000,-1.55502266026393e+000

1.17941537383287e+005,-1.57975069268416e+000,-1.57673086512986e+000

1.19587939890794e+005,-1.57974040397519e+000,-1.59874214333564e+000

1.21257325320831e+005,-1.57972982610780e+000,-1.62106072724363e+000

1.22950014503040e+005,-1.57971895095800e+000,-1.64369090836666e+000

1.24666332745679e+005,-1.57970777017397e+000,-1.66663703819577e+000

1.26406609898139e+005,-1.57969627516919e+000,-1.68990352904139e+000

1.28171180414339e+005,-1.57968445711614e+000,-1.71349485488525e+000

1.29960383416997e+005,-1.57967230693954e+000,-1.73741555224429e+000

1.31774562762811e+005,-1.57965981530937e+000,-1.76167022104696e+000

1.33614067108538e+005,-1.57964697263363e+000,-1.78626352552250e+000

1.35479249978003e+005,-1.57963376905112e+000,-1.81120019510224e+000

1.37370469830040e+005,-1.57962019442390e+000,-1.83648502533299e+000

1.39288090127379e+005,-1.57960623832940e+000,-1.86212287880484e+000

1.41232479406504e+005,-1.57959189005260e+000,-1.88811868609059e+000

1.43204011348474e+005,-1.57957713857776e+000,-1.91447744670005e+000

1.45203064850745e+005,-1.57956197258007e+000,-1.94120423004520e+000

1.47230024099979e+005,-1.57954638041681e+000,-1.96830417642331e+000

1.49285278645888e+005,-1.57953035011870e+000,-1.99578249800888e+000

1.51369223476094e+005,-1.57951386938053e+000,-2.02364447986409e+000

1.53482259092041e+005,-1.57949692555179e+000,-2.05189548096092e+000

1.55624791585964e+005,-1.57947950562727e+000,-2.08054093521804e+000

1.57797232718936e+005,-1.57946159623671e+000,-2.10958635255399e+000

1.59999999999999e+005,-1.57944318363483e+000,-2.13903731995353e+000

1.62233516766403e+005,-1.57942425369092e+000,-2.16889950254930e+000

1.64498212264969e+005,-1.57940479187773e+000,-2.19917864472118e+000

1.66794521734578e+005,-1.57938478326077e+000,-2.22988057120717e+000

1.69122886489819e+005,-1.57936421248648e+000,-2.26101118823457e+000

1.71483754005805e+005,-1.57934306377092e+000,-2.29257648466306e+000

1.73877578004168e+005,-1.57932132088750e+000,-2.32458253314770e+000

1.76304818540256e+005,-1.57929896715462e+000,-2.35703549131547e+000

1.78765942091554e+005,-1.57927598542291e+000,-2.38994160296147e+000

1.81261421647326e+005,-1.57925235806242e+000,-2.42330719925901e+000

1.83791736799524e+005,-1.57922806694879e+000,-2.45713869998976e+000

1.86357373834951e+005,-1.57920309344966e+000,-2.49144261479013e+000

1.88958825828723e+005,-1.57917741841043e+000,-2.52622554441557e+000

1.91596592739027e+005,-1.57915102213973e+000,-2.56149418202256e+000

1.94271181503206e+005,-1.57912388439418e+000,-2.59725531447038e+000

1.96983106135185e+005,-1.57909598436343e+000,-2.63351582363920e+000

1.99732887824256e+005,-1.57906730065373e+000,-2.67028268777022e+000

2.02521055035243e+005,-1.57903781127219e+000,-2.70756298282104e+000

2.05348143610063e+005,-1.57900749360967e+000,-2.74536388384450e+000

2.08214696870707e+005,-1.57897632442373e+000,-2.78369266638443e+000

2.11121265723661e+005,-1.57894427982102e+000,-2.82255670789238e+000

2.14068408765776e+005,-1.57891133523892e+000,-2.86196348916524e+000

2.17056692391625e+005,-1.57887746542704e+000,-2.90192059580318e+000

2.20086690902357e+005,-1.57884264442799e+000,-2.94243571968766e+000

2.23158986616063e+005,-1.57880684555763e+000,-2.98351666048279e+000

2.26274169979693e+005,-1.57877004138483e+000,-3.02517132715570e+000

2.29432839682530e+005,-1.57873220371057e+000,-3.06740773952195e+000

2.32635602771247e+005,-1.57869330354671e+000,-3.11023402980999e+000

2.35883074766574e+005,-1.57865331109389e+000,-3.15365844425074e+000

2.39175879781588e+005,-1.57861219571888e+000,-3.19768934468942e+000

2.42514650641661e+005,-1.57856992593138e+000,-3.24233521022034e+000

2.45900029006080e+005,-1.57852646936033e+000,-3.28760463884520e+000

2.49332665491357e+005,-1.57848179272913e+000,-3.33350634915713e+000

2.52813219796278e+005,-1.57843586183062e+000,-3.38004918204664e+000

2.56342360828676e+005,-1.57838864150112e+000,-3.42724210243502e+000

2.59920766833993e+005,-1.57834009559381e+000,-3.47509420103088e+000

2.63549125525621e+005,-1.57829018695140e+000,-3.52361469611381e+000

2.67228134217075e+005,-1.57823887737813e+000,-3.57281293534264e+000

2.70958499956006e+005,-1.57818612761074e+000,-3.62269839759202e+000

2.74740939660078e+005,-1.57813189728896e+000,-3.67328069481361e+000

2.78576180254757e+005,-1.57807614492495e+000,-3.72456957392683e+000

2.82464958813007e+005,-1.57801882787212e+000,-3.77657491873522e+000

2.86408022696948e+005,-1.57795990229272e+000,-3.82930675187310e+000

2.90406129701488e+005,-1.57789932312501e+000,-3.88277523677860e+000

2.94460048199957e+005,-1.57783704404931e+000,-3.93699067969775e+000

2.98570557291775e+005,-1.57777301745300e+000,-3.99196353171670e+000

3.02738446952187e+005,-1.57770719439469e+000,-4.04770439082532e+000

3.06964518184081e+005,-1.57763952456751e+000,-4.10422400400941e+000

3.11249583171928e+005,-1.57756995626119e+000,-4.16153326937629e+000

3.15594465437872e+005,-1.57749843632326e+000,-4.21964323830993e+000

3.19999999999997e+005,-1.57742491011914e+000,-4.27856511765890e+000

3.24467033532806e+005,-1.57734932149108e+000,-4.33831027195753e+000

3.28996424529938e+005,-1.57727161271615e+000,-4.39889022567864e+000

3.33589043469155e+005,-1.57719172446280e+000,-4.46031666552191e+000

3.38245772979638e+005,-1.57710959574665e+000,-4.52260144273414e+000

3.42967508011610e+005,-1.57702516388471e+000,-4.58575657546675e+000

3.47755156008335e+005,-1.57693836444841e+000,-4.64979425116717e+000

3.52609637080511e+005,-1.57684913121579e+000,-4.71472682900562e+000

3.57531884183106e+005,-1.57675739612159e+000,-4.78056684234128e+000

3.62522843294651e+005,-1.57666308920678e+000,-4.84732700122209e+000

3.67583473599047e+005,-1.57656613856629e+000,-4.91502019492551e+000

3.72714747669902e+005,-1.57646647029544e+000,-4.98365949453527e+000

3.77917651657445e+005,-1.57636400843500e+000,-5.05325815555936e+000

3.83193185478053e+005,-1.57625867491453e+000,-5.12382962058699e+000

3.88542363006410e+005,-1.57615038949456e+000,-5.19538752198530e+000

3.93966212270369e+005,-1.57603906970686e+000,-5.26794568463956e+000

3.99465775648511e+005,-1.57592463079342e+000,-5.34151812873266e+000

4.05042110070485e+005,-1.57580698564349e+000,-5.41611907256986e+000

4.10696287220124e+005,-1.57568604472926e+000,-5.49176293544498e+000

4.16429393741414e+005,-1.57556171603954e+000,-5.56846434055241e+000

4.22242531447321e+005,-1.57543390501181e+000,-5.64623811794329e+000

4.28136817531551e+005,-1.57530251446261e+000,-5.72509930752796e+000

4.34113384783250e+005,-1.57516744451557e+000,-5.80506316212547e+000

4.40173381804713e+005,-1.57502859252827e+000,-5.88614515055957e+000

4.46317973232124e+005,-1.57488585301648e+000,-5.96836096080481e+000

4.52548339959385e+005,-1.57473911757687e+000,-6.05172650318038e+000

4.58865679365059e+005,-1.57458827480746e+000,-6.13625791359543e+000

4.65271205542494e+005,-1.57443321022593e+000,-6.22197155684518e+000

4.71766149533147e+005,-1.57427380618604e+000,-6.30888402995864e+000

4.78351759563174e+005,-1.57410994179153e+000,-6.39701216560110e+000

4.85029301283321e+005,-1.57394149280815e+000,-6.48637303552883e+000

4.91800058012158e+005,-1.57376833157293e+000,-6.57698395410059e+000

4.98665330982714e+005,-1.57359032690151e+000,-6.66886248184455e+000

5.05626439592555e+005,-1.57340734399291e+000,-6.76202642908288e+000

5.12684721657352e+005,-1.57321924433174e+000,-6.85649385961510e+000

5.19841533667984e+005,-1.57302588558799e+000,-6.95228309446033e+000

5.27098251051240e+005,-1.57282712151426e+000,-7.04941271566133e+000

5.34456268434150e+005,-1.57262280184026e+000,-7.14790157014956e+000

5.41916999912011e+005,-1.57241277216468e+000,-7.24776877367477e+000

