Freq.,VOut,OutRef

1.00000000000000e+004,-6.97379542535623e-001,-7.00369123674650e-002

1.01395947979003e+004,-6.97379531228728e-001,-7.10145915005893e-002

1.02811382665607e+004,-6.97379519604048e-001,-7.20059185368609e-002

1.04246576084112e+004,-6.97379507652649e-001,-7.30110839944244e-002

1.05701804056138e+004,-6.97379495365300e-001,-7.40302810512819e-002

1.07177346253629e+004,-6.97379482732411e-001,-7.50637055825937e-002

1.08673486252606e+004,-6.97379469744392e-001,-7.61115561961629e-002

1.10190511587661e+004,-6.97379456391418e-001,-7.71740342725410e-002

1.11728713807222e+004,-6.97379442662871e-001,-7.82513440061481e-002

1.13288388529580e+004,-6.97379428548603e-001,-7.93436924372345e-002

1.14869835499703e+004,-6.97379414037422e-001,-8.04512895009412e-002

1.16473358646846e+004,-6.97379399118353e-001,-8.15743480601745e-002

1.18099266142953e+004,-6.97379383779936e-001,-8.27130839496908e-002

1.19747870461893e+004,-6.97379368010283e-001,-8.38677160182919e-002

1.21419488439505e+004,-6.97379351797414e-001,-8.50384661682105e-002

1.23114441334492e+004,-6.97379335128762e-001,-8.62255594012040e-002

1.24833054890161e+004,-6.97379317991460e-001,-8.74292238592418e-002

1.26575659397028e+004,-6.97379300372644e-001,-8.86496908668853e-002

1.28342589756290e+004,-6.97379282258308e-001,-8.98871949831492e-002

1.30134185544193e+004,-6.97379263634887e-001,-9.11419740352687e-002

1.31950791077289e+004,-6.97379244488031e-001,-9.24142691742323e-002

1.33792755478611e+004,-6.97379224802903e-001,-9.37043249170164e-002

1.35660432744767e+004,-6.97379204564397e-001,-9.50123891934915e-002

1.37554181813974e+004,-6.97379183756952e-001,-9.63387133943043e-002

1.39474366635040e+004,-6.97379162364730e-001,-9.76835524189623e-002

1.41421356237309e+004,-6.97379140371023e-001,-9.90471647276660e-002

1.43395524801583e+004,-6.97379117759299e-001,-1.00429812384637e-001

1.45397251732031e+004,-6.97379094511805e-001,-1.01831761117053e-001

1.47426921729110e+004,-6.97379070610902e-001,-1.03253280357885e-001

1.49484924863494e+004,-6.97379046038255e-001,-1.04694643302537e-001

1.51571656651040e+004,-6.97379020774836e-001,-1.06156126961272e-001

1.53687518128801e+004,-6.97378994801229e-001,-1.07638012210188e-001

1.55832915932100e+004,-6.97378968097633e-001,-1.09140583845483e-001

1.58008262372675e+004,-6.97378940643331e-001,-1.10664130641546e-001

1.60213975517924e+004,-6.97378912417426e-001,-1.12208945401182e-001

1.62450479271247e+004,-6.97378883398174e-001,-1.13775325016257e-001

1.64718203453514e+004,-6.97378853563223e-001,-1.15363570523040e-001

1.67017583885674e+004,-6.97378822889674e-001,-1.16973987160057e-001

1.69349062472505e+004,-6.97378791353957e-001,-1.18606884426699e-001

1.71713087287550e+004,-6.97378758931740e-001,-1.20262576143830e-001

1.74110112659224e+004,-6.97378725598422e-001,-1.21941380510641e-001

1.76540599258131e+004,-6.97378691328155e-001,-1.23643620171155e-001

1.79005014185594e+004,-6.97378656094538e-001,-1.25369622273064e-001

1.81503831063432e+004,-6.97378619870718e-001,-1.27119718528903e-001

1.84037530124975e+004,-6.97378582628741e-001,-1.28894245283722e-001

1.86606598307361e+004,-6.97378544340107e-001,-1.30693543577044e-001

1.89211529345119e+004,-6.97378504975216e-001,-1.32517959210541e-001

1.91852823865052e+004,-6.97378464504028e-001,-1.34367842811300e-001

1.94530989482457e+004,-6.97378422895378e-001,-1.36243549902015e-001

1.97246540898671e+004,-6.97378380117299e-001,-1.38145440968977e-001

1.99999999999999e+004,-6.97378336136910e-001,-1.40073881530258e-001

2.02791895958005e+004,-6.97378290920422e-001,-1.42029242206609e-001

2.05622765331213e+004,-6.97378244433233e-001,-1.44011898791863e-001

2.08493152168224e+004,-6.97378196639449e-001,-1.46022232327515e-001

2.11403608112276e+004,-6.97378147502557e-001,-1.48060629172714e-001

2.14354692507258e+004,-6.97378096984658e-001,-1.50127481081505e-001

2.17346972505211e+004,-6.97378045047120e-001,-1.52223185275435e-001

2.20381023175322e+004,-6.97377991649831e-001,-1.54348144523045e-001

2.23457427614443e+004,-6.97377936752040e-001,-1.56502767213104e-001

2.26576777059159e+004,-6.97377880311408e-001,-1.58687467437800e-001

2.29739670999406e+004,-6.97377822284668e-001,-1.60902665069053e-001

2.32946717293690e+004,-6.97377762627257e-001,-1.63148785839668e-001

2.36198532285905e+004,-6.97377701293410e-001,-1.65426261426343e-001

2.39495740923785e+004,-6.97377638236019e-001,-1.67735529532055e-001

2.42838976879009e+004,-6.97377573406591e-001,-1.70077033970276e-001

2.46228882668982e+004,-6.97377506755421e-001,-1.72451224749297e-001

2.49666109780322e+004,-6.97377438231434e-001,-1.74858558159627e-001

2.53151318794055e+004,-6.97377367781817e-001,-1.77299496863617e-001

2.56685179512580e+004,-6.97377295352636e-001,-1.79774509979741e-001

2.60268371088386e+004,-6.97377220888292e-001,-1.82284073176702e-001

2.63901582154578e+004,-6.97377144331519e-001,-1.84828668764180e-001

2.67585510957221e+004,-6.97377065623728e-001,-1.87408785783303e-001

2.71320865489533e+004,-6.97376984704383e-001,-1.90024920104127e-001

2.75108363627948e+004,-6.97376901511350e-001,-1.92677574518391e-001

2.78948733270080e+004,-6.97376815980959e-001,-1.95367258836157e-001

2.82842712474618e+004,-6.97376728047401e-001,-1.98094489986005e-001

2.86791049603164e+004,-6.97376637643298e-001,-2.00859792111689e-001

2.90794503464061e+004,-6.97376544699282e-001,-2.03663696674954e-001

2.94853843458219e+004,-6.97376449143988e-001,-2.06506742556774e-001

2.98969849726987e+004,-6.97376350904080e-001,-2.09389476161192e-001

3.03143313302078e+004,-6.97376249904261e-001,-2.12312451519780e-001

3.07375036257601e+004,-6.97376146067065e-001,-2.15276230398867e-001

3.11665831864199e+004,-6.97376039312796e-001,-2.18281382407082e-001

3.16016524745350e+004,-6.97375929559539e-001,-2.21328485105956e-001

3.20427951035848e+004,-6.97375816723138e-001,-2.24418124118952e-001

3.24900958542493e+004,-6.97375700717042e-001,-2.27550893245538e-001

3.29436406907028e+004,-6.97375581452371e-001,-2.30727394574619e-001

3.34035167771346e+004,-6.97375458837591e-001,-2.33948238601054e-001

3.38698124945009e+004,-6.97375332778701e-001,-2.37214044342471e-001

3.43426174575100e+004,-6.97375203178988e-001,-2.40525439458586e-001

3.48220225318448e+004,-6.97375069939166e-001,-2.43883060370880e-001

3.53081198516260e+004,-6.97374932957112e-001,-2.47287552386193e-001

3.58010028371187e+004,-6.97374792127751e-001,-2.50739569820465e-001

3.63007662126863e+004,-6.97374647343166e-001,-2.54239776124236e-001

3.68075060249948e+004,-6.97374498492394e-001,-2.57788844009949e-001

3.73213196614721e+004,-6.97374345461338e-001,-2.61387455582493e-001

3.78423058690237e+004,-6.97374188132757e-001,-2.65036302468585e-001

3.83705647730104e+004,-6.97374026386117e-001,-2.68736085951200e-001

3.89061978964912e+004,-6.97373860097438e-001,-2.72487517103789e-001

3.94493081797342e+004,-6.97373689139377e-001,-2.76291316927103e-001

3.99999999999998e+004,-6.97373513380995e-001,-2.80148216487393e-001

4.05583791916010e+004,-6.97373332687565e-001,-2.84058957058585e-001

4.11245530662425e+004,-6.97373146920867e-001,-2.88024290261427e-001

4.16986304336447e+004,-6.97372955938507e-001,-2.92044978212470e-001

4.22807216224550e+004,-6.97372759594336e-001,-2.96121793666595e-001

4.28709385014515e+004,-6.97372557737972e-001,-3.00255520168461e-001

4.34693945010421e+004,-6.97372350214837e-001,-3.04446952201758e-001

4.40762046350642e+004,-6.97372136866259e-001,-3.08696895341006e-001

4.46914855228886e+004,-6.97371917528830e-001,-3.13006166409264e-001

4.53153554118317e+004,-6.97371692034772e-001,-3.17375593632782e-001

4.59479341998812e+004,-6.97371460211462e-001,-3.21806016801431e-001

4.65893434587380e+004,-6.97371221881710e-001,-3.26298287429048e-001

4.72397064571810e+004,-6.97370976863017e-001,-3.30853268919468e-001

4.78991481847569e+004,-6.97370724968033e-001,-3.35471836729882e-001

4.85677953758016e+004,-6.97370466004211e-001,-3.40154878540224e-001

4.92457765337964e+004,-6.97370199773505e-001,-3.44903294424705e-001

4.99332219560642e+004,-6.97369926072410e-001,-3.49717997023838e-001

5.06302637588109e+004,-6.97369644691616e-001,-3.54599911720723e-001

5.13370359025159e+004,-6.97369355416216e-001,-3.59549976817828e-001

5.20536742176771e+004,-6.97369058025049e-001,-3.64569143719339e-001

5.27803164309155e+004,-6.97368752291028e-001,-3.69658377111669e-001

5.35171021914442e+004,-6.97368437980514e-001,-3.74818655151759e-001

5.42641730979066e+004,-6.97368114853503e-001,-3.80050969652602e-001

5.50216727255895e+004,-6.97367782663168e-001,-3.85356326276640e-001

5.57897466540159e+004,-6.97367441156109e-001,-3.90735744725803e-001

5.65685424949235e+004,-6.97367090071524e-001,-3.96190258940874e-001

5.73582099206328e+004,-6.97366729141438e-001,-4.01720917299563e-001

5.81589006928121e+004,-6.97366358090535e-001,-4.07328782816445e-001

5.89707686916437e+004,-6.97365976635735e-001,-4.13014933349157e-001

5.97939699453972e+004,-6.97365584486187e-001,-4.18780461805400e-001

6.06286626604156e+004,-6.97365181342768e-001,-4.24626476353254e-001

6.14750072515201e+004,-6.97364766898262e-001,-4.30554100633293e-001

6.23331663728396e+004,-6.97364340836780e-001,-4.36564473976179e-001

6.32033049490698e+004,-6.97363902833563e-001,-4.42658751621770e-001

6.40855902071694e+004,-6.97363452555112e-001,-4.48838104939447e-001

6.49801917084985e+004,-6.97362989658359e-001,-4.55103721656534e-001

6.58872813814055e+004,-6.97362513791027e-001,-4.61456806083386e-001

6.68070335542691e+004,-6.97362024590725e-001,-4.67898579348562e-001

6.77396249890018e+004,-6.97361521685303e-001,-4.74430279630857e-001

6.86852349150199e+004,-6.97361004692065e-001,-4.81053162399576e-001

6.96440450636895e+004,-6.97360473217961e-001,-4.87768500654231e-001

7.06162397032520e+004,-6.97359926858783e-001,-4.94577585171894e-001

7.16020056742374e+004,-6.97359365199270e-001,-5.01481724753660e-001

7.26015324253724e+004,-6.97358787812637e-001,-5.08482246476765e-001

7.36150120499896e+004,-6.97358194260422e-001,-5.15580495950250e-001

7.46426393229441e+004,-6.97357584091779e-001,-5.22777837574861e-001

7.56846117380472e+004,-6.97356956843565e-001,-5.30075654803921e-001

7.67411295460207e+004,-6.97356312039829e-001,-5.37475350410653e-001

7.78123957929823e+004,-6.97355649191388e-001,-5.44978346758322e-001

7.88986163594682e+004,-6.97354967795677e-001,-5.52586086072655e-001

7.99999999999995e+004,-6.97354267336210e-001,-5.60300030721352e-001

8.11167583832018e+004,-6.97353547282214e-001,-5.68121663494058e-001

8.22491061324848e+004,-6.97352807088311e-001,-5.76052487888919e-001

8.33972608672892e+004,-6.97352046194115e-001,-5.84094028400919e-001

8.45614432449099e+004,-6.97351264023749e-001,-5.92247830816344e-001

8.57418770029029e+004,-6.97350459985679e-001,-6.00515462509217e-001

8.69387890020841e+004,-6.97349633471759e-001,-6.08898512745099e-001

8.81524092701283e+004,-6.97348783857436e-001,-6.17398592984641e-001

8.93829710457770e+004,-6.97347910500875e-001,-6.26017337195139e-001

9.06307108236633e+004,-6.97347012742644e-001,-6.34756402165490e-001

9.18958683997622e+004,-6.97346089905169e-001,-6.43617467824491e-001

9.31786869174758e+004,-6.97345141292265e-001,-6.52602237565007e-001

9.44794129143618e+004,-6.97344166188891e-001,-6.61712438570665e-001

9.57982963695136e+004,-6.97343163860136e-001,-6.70949822150797e-001

9.71355907516031e+004,-6.97342133551187e-001,-6.80316164075074e-001

9.84915530675926e+004,-6.97341074486395e-001,-6.89813264918290e-001

9.98664439121282e+004,-6.97339985869174e-001,-6.99442950404306e-001

1.01260527517622e+005,-6.97338866880960e-001,-7.09207071760414e-001

1.02674071805032e+005,-6.97337716681006e-001,-7.19107506071925e-001

1.04107348435354e+005,-6.97336534405524e-001,-7.29146156645191e-001

1.05560632861831e+005,-6.97335319167246e-001,-7.39324953373828e-001

1.07034204382888e+005,-6.97334070054801e-001,-7.49645853109579e-001

1.08528346195813e+005,-6.97332786132008e-001,-7.60110840041005e-001

1.10043345451179e+005,-6.97331466437142e-001,-7.70721926075140e-001

1.11579493308032e+005,-6.97330109982561e-001,-7.81481151224618e-001

1.13137084989847e+005,-6.97328715753659e-001,-7.92390584001790e-001

1.14716419841265e+005,-6.97327282708484e-001,-8.03452321816438e-001

1.16317801385624e+005,-6.97325809776729e-001,-8.14668491381034e-001

1.17941537383287e+005,-6.97324295859311e-001,-8.26041249119670e-001

1.19587939890794e+005,-6.97322739827306e-001,-8.37572781584188e-001

1.21257325320831e+005,-6.97321140521355e-001,-8.49265305876583e-001

1.22950014503040e+005,-6.97319496750892e-001,-8.61121070074351e-001

1.24666332745679e+005,-6.97317807293219e-001,-8.73142353666005e-001

1.26406609898139e+005,-6.97316070892802e-001,-8.85331467988948e-001

1.28171180414339e+005,-6.97314286260315e-001,-8.97690756676700e-001

1.29960383416997e+005,-6.97312452071796e-001,-9.10222596109607e-001

1.31774562762811e+005,-6.97310566967933e-001,-9.22929395873344e-001

1.33614067108538e+005,-6.97308629552792e-001,-9.35813599224256e-001

1.35479249978003e+005,-6.97306638393305e-001,-9.48877683560024e-001

1.37370469830040e+005,-6.97304592017943e-001,-9.62124160897684e-001

1.39288090127379e+005,-6.97302488916055e-001,-9.75555578358012e-001

1.41232479406504e+005,-6.97300327536635e-001,-9.89174518657347e-001

1.43204011348474e+005,-6.97298106287461e-001,-1.00298360060524e+000

1.45203064850745e+005,-6.97295823533961e-001,-1.01698547961033e+000

1.47230024099979e+005,-6.97293477598143e-001,-1.03118284819247e+000

1.49285278645888e+005,-6.97291066757739e-001,-1.04557843650166e+000

1.51369223476094e+005,-6.97288589244594e-001,-1.06017501284623e+000

1.53482259092041e+005,-6.97286043244049e-001,-1.07497538422569e+000

1.55624791585964e+005,-6.97283426893448e-001,-1.08998239687378e+000

1.57797232718936e+005,-6.97280738281123e-001,-1.10519893680634e+000

1.59999999999999e+005,-6.97277975445073e-001,-1.12062793038004e+000

1.62233516766403e+005,-6.97275136371775e-001,-1.13627234485544e+000

1.64498212264969e+005,-6.97272218994866e-001,-1.15213518897204e+000

1.66794521734578e+005,-6.97269221193909e-001,-1.16821951352659e+000

1.69122886489819e+005,-6.97266140793028e-001,-1.18452841196425e+000

1.71483754005805e+005,-6.97262975559529e-001,-1.20106502097496e+000

1.73877578004168e+005,-6.97259723202592e-001,-1.21783252109889e+000

1.76304818540256e+005,-6.97256381371725e-001,-1.23483413734123e+000

1.78765942091554e+005,-6.97252947655492e-001,-1.25207313979448e+000

1.81261421647326e+005,-6.97249419579916e-001,-1.26955284427030e+000

1.83791736799524e+005,-6.97245794606999e-001,-1.28727661293954e+000

1.86357373834951e+005,-6.97242070133222e-001,-1.30524785498190e+000

1.88958825828723e+005,-6.97238243487866e-001,-1.32347002724472e+000

1.91596592739027e+005,-6.97234311931575e-001,-1.34194663490977e+000

1.94271181503206e+005,-6.97230272654580e-001,-1.36068123217121e+000

1.96983106135185e+005,-6.97226122775105e-001,-1.37967742292171e+000

1.99732887824256e+005,-6.97221859337558e-001,-1.39893886144907e+000

2.02521055035243e+005,-6.97217479310913e-001,-1.41846925314159e+000

2.05348143610063e+005,-6.97212979586932e-001,-1.43827235520402e+000

2.08214696870707e+005,-6.97208356978138e-001,-1.45835197738420e+000

2.11121265723661e+005,-6.97203608216312e-001,-1.47871198270800e+000

2.14068408765776e+005,-6.97198729950245e-001,-1.49935628822639e+000

2.17056692391625e+005,-6.97193718744059e-001,-1.52028886577171e+000

2.20086690902357e+005,-6.97188571075056e-001,-1.54151374272606e+000

2.23158986616063e+005,-6.97183283331815e-001,-1.56303500279819e+000

2.26274169979693e+005,-6.97177851812243e-001,-1.58485678681267e+000

2.29432839682530e+005,-6.97172272721128e-001,-1.60698329351080e+000

2.32635602771247e+005,-6.97166542168296e-001,-1.62941878036129e+000

2.35883074766574e+005,-6.97160656166352e-001,-1.65216756438232e+000

2.39175879781588e+005,-6.97154610628396e-001,-1.67523402297618e+000

2.42514650641661e+005,-6.97148401365765e-001,-1.69862259477473e+000

2.45900029006080e+005,-6.97142024085660e-001,-1.72233778049731e+000

2.49332665491357e+005,-6.97135474388903e-001,-1.74638414381875e+000

2.52813219796278e+005,-6.97128747767243e-001,-1.77076631225288e+000

2.56342360828676e+005,-6.97121839601104e-001,-1.79548897804489e+000

2.59920766833993e+005,-6.97114745156901e-001,-1.82055689907816e+000

2.63549125525621e+005,-6.97107459584546e-001,-1.84597489979299e+000

2.67228134217075e+005,-6.97099977914633e-001,-1.87174787211861e+000

2.70958499956006e+005,-6.97092295055823e-001,-1.89788077641741e+000

2.74740939660078e+005,-6.97084405792016e-001,-1.92437864244321e+000

2.78576180254757e+005,-6.97076304779546e-001,-1.95124657031152e+000

2.82464958813007e+005,-6.97067986544120e-001,-1.97848973148534e+000

2.86408022696948e+005,-6.97059445478023e-001,-2.00611336977226e+000

2.90406129701488e+005,-6.97050675836851e-001,-2.03412280233728e+000

2.94460048199957e+005,-6.97041671736451e-001,-2.06252342072900e+000

2.98570557291775e+005,-6.97032427149764e-001,-2.09132069191923e+000

3.02738446952187e+005,-6.97022935903330e-001,-2.12052015935931e+000

3.06964518184081e+005,-6.97013191674151e-001,-2.15012744404743e+000

3.11249583171928e+005,-6.97003187985910e-001,-2.18014824561497e+000

3.15594465437872e+005,-6.96992918205589e-001,-2.21058834342456e+000

3.19999999999997e+005,-6.96982375539684e-001,-2.24145359768511e+000

3.24467033532806e+005,-6.96971553030574e-001,-2.27274995058091e+000

3.28996424529938e+005,-6.96960443552406e-001,-2.30448342741826e+000

3.33589043469155e+005,-6.96949039807255e-001,-2.33666013778619e+000

3.38245772979638e+005,-6.96937334320866e-001,-2.36928627673399e+000

3.42967508011610e+005,-6.96925319438602e-001,-2.40236812596498e+000

3.47755156008335e+005,-6.96912987320849e-001,-2.43591205504683e+000

3.52609637080511e+005,-6.96900329938631e-001,-2.46992452263841e+000

3.57531884183106e+005,-6.96887339068961e-001,-2.50441207773359e+000

3.62522843294651e+005,-6.96874006289993e-001,-2.53938136092231e+000

3.67583473599047e+005,-6.96860322975963e-001,-2.57483910566998e+000

3.72714747669902e+005,-6.96846280292369e-001,-2.61079213961217e+000

3.77917651657445e+005,-6.96831869190391e-001,-2.64724738586999e+000

3.83193185478053e+005,-6.96817080401503e-001,-2.68421186438207e+000

3.88542363006410e+005,-6.96801904431934e-001,-2.72169269325474e+000

3.93966212270369e+005,-6.96786331556655e-001,-2.75969709013235e+000

3.99465775648511e+005,-6.96770351813479e-001,-2.79823237358516e+000

4.05042110070485e+005,-6.96753954996661e-001,-2.83730596451705e+000

4.10696287220124e+005,-6.96737130650496e-001,-2.87692538759282e+000

4.16429393741414e+005,-6.96719868062648e-001,-2.91709827268476e+000

4.22242531447321e+005,-6.96702156257068e-001,-2.95783235634025e+000

4.28136817531551e+005,-6.96683983986876e-001,-2.99913548326877e+000

4.34113384783250e+005,-6.96665339726911e-001,-3.04101560785020e+000

4.40173381804713e+005,-6.96646211665907e-001,-3.08348079566383e+000

4.46317973232124e+005,-6.96626587698546e-001,-3.12653922503888e+000

4.52548339959385e+005,-6.96606455417091e-001,-3.17019918862646e+000

4.58865679365059e+005,-6.96585802102729e-001,-3.21446909499403e+000

4.65271205542494e+005,-6.96564614716749e-001,-3.25935747024089e+000

4.71766149533147e+005,-6.96542879891117e-001,-3.30487295963817e+000

4.78351759563174e+005,-6.96520583918935e-001,-3.35102432929019e+000

4.85029301283321e+005,-6.96497712744531e-001,-3.39782046781981e+000

4.91800058012158e+005,-6.96474251952920e-001,-3.44527038807806e+000

4.98665330982714e+005,-6.96450186759329e-001,-3.49338322887663e+000

5.05626439592555e+005,-6.96425501997839e-001,-3.54216825674631e+000

5.12684721657352e+005,-6.96400182110124e-001,-3.59163486771891e+000

5.19841533667984e+005,-6.96374211133282e-001,-3.64179258913567e+000

5.27098251051240e+005,-6.96347572687624e-001,-3.69265108148036e+000

5.34456268434150e+005,-6.96320249963769e-001,-3.74422014023927e+000

5.41916999912011e+005,-6.96292225709436e-001,-3.79650969778746e+000

