Freq.,VOut,OutRef

1.00000000000000e+004,-1.83185458224556e+001,-1.03991247862519e-001

1.01395947979003e+004,-1.83185463312173e+001,-1.05442875190482e-001

1.02811382665607e+004,-1.83185468542783e+001,-1.06914764934545e-001

1.04246576084112e+004,-1.83185473920404e+001,-1.08407199883416e-001

1.05701804056138e+004,-1.83185479449164e+001,-1.09920466769347e-001

1.07177346253629e+004,-1.83185485133314e+001,-1.11454856322089e-001

1.08673486252606e+004,-1.83185490977214e+001,-1.13010663331783e-001

1.10190511587661e+004,-1.83185496985359e+001,-1.14588186694065e-001

1.11728713807222e+004,-1.83185503162360e+001,-1.16187729479262e-001

1.13288388529580e+004,-1.83185509512961e+001,-1.17809598982224e-001

1.14869835499703e+004,-1.83185516042040e+001,-1.19454106785201e-001

1.16473358646846e+004,-1.83185522754609e+001,-1.21121568815748e-001

1.18099266142953e+004,-1.83185529655825e+001,-1.22812305407027e-001

1.19747870461893e+004,-1.83185536750990e+001,-1.24526641359303e-001

1.21419488439505e+004,-1.83185544045547e+001,-1.26264906006201e-001

1.23114441334492e+004,-1.83185551545102e+001,-1.28027433269741e-001

1.24833054890161e+004,-1.83185559255409e+001,-1.29814561732854e-001

1.26575659397028e+004,-1.83185567182393e+001,-1.31626634695381e-001

1.28342589756290e+004,-1.83185575332137e+001,-1.33464000249715e-001

1.30134185544193e+004,-1.83185583710898e+001,-1.35327011339778e-001

1.31950791077289e+004,-1.83185592325113e+001,-1.37216025828356e-001

1.33792755478611e+004,-1.83185601181392e+001,-1.39131406572473e-001

1.35660432744767e+004,-1.83185610286531e+001,-1.41073521487896e-001

1.37554181813974e+004,-1.83185619647526e+001,-1.43042743617160e-001

1.39474366635040e+004,-1.83185629271557e+001,-1.45039451207450e-001

1.41421356237309e+004,-1.83185639166014e+001,-1.47064027777450e-001

1.43395524801583e+004,-1.83185649338493e+001,-1.49116862191964e-001

1.45397251732031e+004,-1.83185659796799e+001,-1.51198348739108e-001

1.47426921729110e+004,-1.83185670548960e+001,-1.53308887202033e-001

1.49484924863494e+004,-1.83185681603228e+001,-1.55448882937403e-001

1.51571656651040e+004,-1.83185692968084e+001,-1.57618746952032e-001

1.53687518128801e+004,-1.83185704652251e+001,-1.59818895981468e-001

1.55832915932100e+004,-1.83185716664696e+001,-1.62049752568949e-001

1.58008262372675e+004,-1.83185729014633e+001,-1.64311745149667e-001

1.60213975517924e+004,-1.83185741711541e+001,-1.66605308126501e-001

1.62450479271247e+004,-1.83185754765158e+001,-1.68930881958721e-001

1.64718203453514e+004,-1.83185768185500e+001,-1.71288913242349e-001

1.67017583885674e+004,-1.83185781982861e+001,-1.73679854798496e-001

1.69349062472505e+004,-1.83185796167828e+001,-1.76104165754417e-001

1.71713087287550e+004,-1.83185810751278e+001,-1.78562311637836e-001

1.74110112659224e+004,-1.83185825744395e+001,-1.81054764462908e-001

1.76540599258131e+004,-1.83185841158683e+001,-1.83582002816736e-001

1.79005014185594e+004,-1.83185857005958e+001,-1.86144511956463e-001

1.81503831063432e+004,-1.83185873298374e+001,-1.88742783898789e-001

1.84037530124975e+004,-1.83185890048423e+001,-1.91377317513482e-001

1.86606598307361e+004,-1.83185907268950e+001,-1.94048618618244e-001

1.89211529345119e+004,-1.83185924973154e+001,-1.96757200077697e-001

1.91852823865052e+004,-1.83185943174608e+001,-1.99503581897952e-001

1.94530989482457e+004,-1.83185961887265e+001,-2.02288291326922e-001

1.97246540898671e+004,-1.83185981125467e+001,-2.05111862954839e-001

1.99999999999999e+004,-1.83186000903958e+001,-2.07974838816074e-001

2.02791895958005e+004,-1.83186021237896e+001,-2.10877768491088e-001

2.05622765331213e+004,-1.83186042142863e+001,-2.13821209212614e-001

2.08493152168224e+004,-1.83186063634875e+001,-2.16805725970535e-001

2.11403608112276e+004,-1.83186085730399e+001,-2.19831891618572e-001

2.14354692507258e+004,-1.83186108446360e+001,-2.22900286986688e-001

2.17346972505211e+004,-1.83186131800160e+001,-2.26011500985384e-001

2.20381023175322e+004,-1.83186155809685e+001,-2.29166130723452e-001

2.23457427614443e+004,-1.83186180493323e+001,-2.32364781617828e-001

2.26576777059159e+004,-1.83186205869974e+001,-2.35608067509739e-001

2.29739670999406e+004,-1.83186231959066e+001,-2.38896610782369e-001

2.32946717293690e+004,-1.83186258780577e+001,-2.42231042473816e-001

2.36198532285905e+004,-1.83186286355035e+001,-2.45612002403124e-001

2.39495740923785e+004,-1.83186314703544e+001,-2.49040139289403e-001

2.42838976879009e+004,-1.83186343847802e+001,-2.52516110870100e-001

2.46228882668982e+004,-1.83186373810108e+001,-2.56040584034400e-001

2.49666109780322e+004,-1.83186404613387e+001,-2.59614234940429e-001

2.53151318794055e+004,-1.83186436281204e+001,-2.63237749148528e-001

2.56685179512580e+004,-1.83186468837779e+001,-2.66911821751045e-001

2.60268371088386e+004,-1.83186502308013e+001,-2.70637157499891e-001

2.63901582154578e+004,-1.83186536717498e+001,-2.74414470942930e-001

2.67585510957221e+004,-1.83186572092541e+001,-2.78244486559087e-001

2.71320865489533e+004,-1.83186608460185e+001,-2.82127938892267e-001

2.75108363627948e+004,-1.83186645848226e+001,-2.86065572691839e-001

2.78948733270080e+004,-1.83186684285236e+001,-2.90058143053172e-001

2.82842712474618e+004,-1.83186723800582e+001,-2.94106415560017e-001

2.86791049603164e+004,-1.83186764424450e+001,-2.98211166427590e-001

2.90794503464061e+004,-1.83186806187870e+001,-3.02373182649630e-001

2.94853843458219e+004,-1.83186849122733e+001,-3.06593262145528e-001

2.98969849726987e+004,-1.83186893261821e+001,-3.10872213910799e-001

3.03143313302078e+004,-1.83186938638826e+001,-3.15210858170939e-001

3.07375036257601e+004,-1.83186985288383e+001,-3.19610026531302e-001

3.11665831864199e+004,-1.83187033246084e+001,-3.24070562137476e-001

3.16016524745350e+004,-1.83187082548518e+001,-3.28593319830007e-001

3.20427951035848e+004,-1.83187133233289e+001,-3.33179166306286e-001

3.24900958542493e+004,-1.83187185339047e+001,-3.37828980282920e-001

3.29436406907028e+004,-1.83187238905514e+001,-3.42543652660687e-001

3.34035167771346e+004,-1.83187293973521e+001,-3.47324086688512e-001

3.38698124945009e+004,-1.83187350585030e+001,-3.52171198134107e-001

3.43426174575100e+004,-1.83187408783168e+001,-3.57085915456160e-001

3.48220225318448e+004,-1.83187468612262e+001,-3.62069179975095e-001

3.53081198516260e+004,-1.83187530117866e+001,-3.67121946049659e-001

3.58010028371187e+004,-1.83187593346801e+001,-3.72245181254618e-001

3.63007662126863e+004,-1.83187658347187e+001,-3.77439866559979e-001

3.68075060249948e+004,-1.83187725168474e+001,-3.82706996515196e-001

3.73213196614721e+004,-1.83187793861484e+001,-3.88047579432538e-001

3.78423058690237e+004,-1.83187864478449e+001,-3.93462637573251e-001

3.83705647730104e+004,-1.83187937073044e+001,-3.98953207340389e-001

3.89061978964912e+004,-1.83188011700434e+001,-4.04520339465694e-001

3.94493081797342e+004,-1.83188088417306e+001,-4.10165099208004e-001

3.99999999999998e+004,-1.83188167281915e+001,-4.15888566549551e-001

4.05583791916010e+004,-1.83188248354128e+001,-4.21691836393710e-001

4.11245530662425e+004,-1.83188331695465e+001,-4.27576018768419e-001

4.16986304336447e+004,-1.83188417369145e+001,-4.33542239028523e-001

4.22807216224550e+004,-1.83188505440131e+001,-4.39591638065601e-001

4.28709385014515e+004,-1.83188595975179e+001,-4.45725372515301e-001

4.34693945010421e+004,-1.83188689042884e+001,-4.51944614971222e-001

4.40762046350642e+004,-1.83188784713732e+001,-4.58250554198444e-001

4.46914855228886e+004,-1.83188883060150e+001,-4.64644395351266e-001

4.53153554118317e+004,-1.83188984156559e+001,-4.71127360193902e-001

4.59479341998812e+004,-1.83189088079426e+001,-4.77700687323268e-001

4.65893434587380e+004,-1.83189194907319e+001,-4.84365632396428e-001

4.72397064571810e+004,-1.83189304720967e+001,-4.91123468354485e-001

4.78991481847569e+004,-1.83189417603312e+001,-4.97975485658749e-001

4.85677953758016e+004,-1.83189533639574e+001,-5.04922992523430e-001

4.92457765337964e+004,-1.83189652917308e+001,-5.11967315149844e-001

4.99332219560642e+004,-1.83189775526468e+001,-5.19109797970389e-001

5.06302637588109e+004,-1.83189901559470e+001,-5.26351803888780e-001

5.13370359025159e+004,-1.83190031111259e+001,-5.33694714525532e-001

5.20536742176771e+004,-1.83190164279373e+001,-5.41139930468051e-001

5.27803164309155e+004,-1.83190301164018e+001,-5.48688871520210e-001

5.35171021914442e+004,-1.83190441868130e+001,-5.56342976958892e-001

5.42641730979066e+004,-1.83190586497451e+001,-5.64103705790246e-001

5.50216727255895e+004,-1.83190735160610e+001,-5.71972537008918e-001

5.57897466540159e+004,-1.83190887969186e+001,-5.79950969863901e-001

5.65685424949235e+004,-1.83191045037794e+001,-5.88040524124312e-001

5.73582099206328e+004,-1.83191206484164e+001,-5.96242740348340e-001

5.81589006928121e+004,-1.83191372429219e+001,-6.04559180156773e-001

5.89707686916437e+004,-1.83191542997162e+001,-6.12991426507419e-001

5.97939699453972e+004,-1.83191718315559e+001,-6.21541083975512e-001

6.06286626604156e+004,-1.83191898515426e+001,-6.30209779036560e-001

6.14750072515201e+004,-1.83192083731323e+001,-6.38999160347684e-001

6.23331663728396e+004,-1.83192274101439e+001,-6.47910899041099e-001

6.32033049490698e+004,-1.83192469767689e+001,-6.56946689011955e-001

6.40855902071694e+004,-1.83192670875815e+001,-6.66108247213468e-001

6.49801917084985e+004,-1.83192877575472e+001,-6.75397313956877e-001

6.58872813814055e+004,-1.83193090020338e+001,-6.84815653211706e-001

6.68070335542691e+004,-1.83193308368215e+001,-6.94365052908312e-001

6.77396249890018e+004,-1.83193532781131e+001,-7.04047325247853e-001

6.86852349150199e+004,-1.83193763425450e+001,-7.13864307012270e-001

6.96440450636895e+004,-1.83194000471979e+001,-7.23817859878899e-001

7.06162397032520e+004,-1.83194244096085e+001,-7.33909870734929e-001

7.16020056742374e+004,-1.83194494477803e+001,-7.44142252003290e-001

7.26015324253724e+004,-1.83194751801955e+001,-7.54516941961542e-001

7.36150120499896e+004,-1.83195016258274e+001,-7.65035905071733e-001

7.46426393229441e+004,-1.83195288041521e+001,-7.75701132308598e-001

7.56846117380472e+004,-1.83195567351611e+001,-7.86514641495927e-001

7.67411295460207e+004,-1.83195854393738e+001,-7.97478477641734e-001

7.78123957929823e+004,-1.83196149378510e+001,-8.08594713277531e-001

7.88986163594682e+004,-1.83196452522077e+001,-8.19865448803383e-001

7.99999999999995e+004,-1.83196764046268e+001,-8.31292812832984e-001

8.11167583832018e+004,-1.83197084178726e+001,-8.42878962545593e-001

8.22491061324848e+004,-1.83197413153051e+001,-8.54626084035556e-001

8.33972608672892e+004,-1.83197751208943e+001,-8.66536392672019e-001

8.45614432449099e+004,-1.83198098592348e+001,-8.78612133455660e-001

8.57418770029029e+004,-1.83198455555601e+001,-8.90855581383491e-001

8.69387890020841e+004,-1.83198822357588e+001,-9.03269041812343e-001

8.81524092701283e+004,-1.83199199263888e+001,-9.15854850828661e-001

8.93829710457770e+004,-1.83199586546940e+001,-9.28615375621506e-001

9.06307108236633e+004,-1.83199984486194e+001,-9.41553014855330e-001

9.18958683997622e+004,-1.83200393368278e+001,-9.54670199049779e-001

9.31786869174758e+004,-1.83200813487162e+001,-9.67969390959808e-001

9.44794129143618e+004,-1.83201245144324e+001,-9.81453085960727e-001

9.57982963695136e+004,-1.83201688648920e+001,-9.95123812434657e-001

9.71355907516031e+004,-1.83202144317960e+001,-1.00898413215971e+000

9.84915530675926e+004,-1.83202612476476e+001,-1.02303664070559e+000

9.98664439121282e+004,-1.83203093457709e+001,-1.03728396782643e+000

1.01260527517622e+005,-1.83203587603284e+001,-1.05172877786053e+000

1.02674071805032e+005,-1.83204095263389e+001,-1.06637377013319e+000

1.04107348435354e+005,-1.83204616796969e+001,-1.08122167935791e+000

1.05560632861831e+005,-1.83205152571905e+001,-1.09627527604739e+000

1.07034204382888e+005,-1.83205702965209e+001,-1.11153736691829e+000

1.08528346195813e+005,-1.83206268363213e+001,-1.12701079530786e+000

1.10043345451179e+005,-1.83206849161762e+001,-1.14269844158577e+000

1.11579493308032e+005,-1.83207445766412e+001,-1.15860322357310e+000

1.13137084989847e+005,-1.83208058592626e+001,-1.17472809696101e+000

1.14716419841265e+005,-1.83208688065972e+001,-1.19107605573362e+000

1.16317801385624e+005,-1.83209334622325e+001,-1.20765013259327e+000

1.17941537383287e+005,-1.83209998708069e+001,-1.22445339938525e+000

1.19587939890794e+005,-1.83210680780298e+001,-1.24148896753019e+000

1.21257325320831e+005,-1.83211381307024e+001,-1.25875998845283e+000

1.22950014503040e+005,-1.83212100767380e+001,-1.27626965401640e+000

1.24666332745679e+005,-1.83212839651823e+001,-1.29402119695962e+000

1.26406609898139e+005,-1.83213598462345e+001,-1.31201789133322e+000

1.28171180414339e+005,-1.83214377712675e+001,-1.33026305294080e+000

1.29960383416997e+005,-1.83215177928490e+001,-1.34876003977924e+000

1.31774562762811e+005,-1.83215999647617e+001,-1.36751225248411e+000

1.33614067108538e+005,-1.83216843420239e+001,-1.38652313477548e+000

1.35479249978003e+005,-1.83217709809103e+001,-1.40579617390344e+000

1.37370469830040e+005,-1.83218599389716e+001,-1.42533490110080e+000

1.39288090127379e+005,-1.83219512750555e+001,-1.44514289203118e+000

1.41232479406504e+005,-1.83220450493263e+001,-1.46522376724375e+000

1.43204011348474e+005,-1.83221413232845e+001,-1.48558119262849e+000

1.45203064850745e+005,-1.83222401597866e+001,-1.50621887987095e+000

1.47230024099979e+005,-1.83223416230641e+001,-1.52714058691198e+000

1.49285278645888e+005,-1.83224457787424e+001,-1.54835011840689e+000

1.51369223476094e+005,-1.83225526938593e+001,-1.56985132618801e+000

1.53482259092041e+005,-1.83226624368824e+001,-1.59164810972773e+000

1.55624791585964e+005,-1.83227750777278e+001,-1.61374441660322e+000

1.57797232718936e+005,-1.83228906877758e+001,-1.63614424296410e+000

1.59999999999999e+005,-1.83230093398878e+001,-1.65885163400168e+000

1.62233516766403e+005,-1.83231311084218e+001,-1.68187068441936e+000

1.64498212264969e+005,-1.83232560692474e+001,-1.70520553890592e+000

1.66794521734578e+005,-1.83233842997599e+001,-1.72886039261088e+000

1.69122886489819e+005,-1.83235158788938e+001,-1.75283949161995e+000

1.71483754005805e+005,-1.83236508871344e+001,-1.77714713343732e+000

1.73877578004168e+005,-1.83237894065300e+001,-1.80178766746651e+000

1.76304818540256e+005,-1.83239315207018e+001,-1.82676549549433e+000

1.78765942091554e+005,-1.83240773148529e+001,-1.85208507218073e+000

1.81261421647326e+005,-1.83242268757766e+001,-1.87775090554735e+000

1.83791736799524e+005,-1.83243802918624e+001,-1.90376755747380e+000

1.86357373834951e+005,-1.83245376531019e+001,-1.93013964419369e+000

1.88958825828723e+005,-1.83246990510917e+001,-1.95687183679781e+000

1.91596592739027e+005,-1.83248645790365e+001,-1.98396886173910e+000

1.94271181503206e+005,-1.83250343317489e+001,-2.01143550134377e+000

1.96983106135185e+005,-1.83252084056483e+001,-2.03927659432735e+000

1.99732887824256e+005,-1.83253868987579e+001,-2.06749703631539e+000

2.02521055035243e+005,-1.83255699106997e+001,-2.09610178037056e+000

2.05348143610063e+005,-1.83257575426874e+001,-2.12509583752732e+000

2.08214696870707e+005,-1.83259498975171e+001,-2.15448427733125e+000

2.11121265723661e+005,-1.83261470795562e+001,-2.18427222838884e+000

2.14068408765776e+005,-1.83263491947289e+001,-2.21446487892490e+000

2.17056692391625e+005,-1.83265563505011e+001,-2.24506747734601e+000

2.20086690902357e+005,-1.83267686558605e+001,-2.27608533281930e+000

2.23158986616063e+005,-1.83269862212962e+001,-2.30752381585719e+000

2.26274169979693e+005,-1.83272091587739e+001,-2.33938835891667e+000

2.29432839682530e+005,-1.83274375817095e+001,-2.37168445700867e+000

2.32635602771247e+005,-1.83276716049388e+001,-2.40441766832380e+000

2.35883074766574e+005,-1.83279113446848e+001,-2.43759361486989e+000

2.39175879781588e+005,-1.83281569185217e+001,-2.47121798312769e+000

2.42514650641661e+005,-1.83284084453356e+001,-2.50529652472120e+000

2.45900029006080e+005,-1.83286660452822e+001,-2.53983505710806e+000

2.49332665491357e+005,-1.83289298397403e+001,-2.57483946428917e+000

2.52813219796278e+005,-1.83291999512634e+001,-2.61031569753751e+000

2.56342360828676e+005,-1.83294765035259e+001,-2.64626977615247e+000

2.59920766833993e+005,-1.83297596212673e+001,-2.68270778823516e+000

2.63549125525621e+005,-1.83300494302318e+001,-2.71963589149150e+000

2.67228134217075e+005,-1.83303460571046e+001,-2.75706031406124e+000

2.70958499956006e+005,-1.83306496294443e+001,-2.79498735537700e+000

2.74740939660078e+005,-1.83309602756119e+001,-2.83342338705370e+000

2.78576180254757e+005,-1.83312781246956e+001,-2.87237485381117e+000

2.82464958813007e+005,-1.83316033064317e+001,-2.91184827443126e+000

2.86408022696948e+005,-1.83319359511226e+001,-2.95185024275250e+000

2.90406129701488e+005,-1.83322761895501e+001,-2.99238742870353e+000

2.94460048199957e+005,-1.83326241528856e+001,-3.03346657937641e+000

2.98570557291775e+005,-1.83329799725960e+001,-3.07509452014649e+000

3.02738446952187e+005,-1.83333437803470e+001,-3.11727815583492e+000

3.06964518184081e+005,-1.83337157079019e+001,-3.16002447192114e+000

3.11249583171928e+005,-1.83340958870178e+001,-3.20334053580493e+000

3.15594465437872e+005,-1.83344844493376e+001,-3.24723349812331e+000

3.19999999999997e+005,-1.83348815262804e+001,-3.29171059411927e+000

3.24467033532806e+005,-1.83352872489274e+001,-3.33677914507340e+000

3.28996424529938e+005,-1.83357017479058e+001,-3.38244655979156e+000

3.33589043469155e+005,-1.83361251532705e+001,-3.42872033615890e+000

3.38245772979638e+005,-1.83365575943829e+001,-3.47560806275703e+000

3.42967508011610e+005,-1.83369991997879e+001,-3.52311742055086e+000

3.47755156008335e+005,-1.83374500970897e+001,-3.57125618464666e+000

3.52609637080511e+005,-1.83379104128255e+001,-3.62003222612090e+000

3.57531884183106e+005,-1.83383802723387e+001,-3.66945351392710e+000

3.62522843294651e+005,-1.83388597996515e+001,-3.71952811687973e+000

3.67583473599047e+005,-1.83393491173371e+001,-3.77026420571785e+000

3.72714747669902e+005,-1.83398483463920e+001,-3.82167005525266e+000

3.77917651657445e+005,-1.83403576061098e+001,-3.87375404659846e+000

3.83193185478053e+005,-1.83408770139553e+001,-3.92652466949124e+000

3.88542363006410e+005,-1.83414066854412e+001,-3.97999052469492e+000

3.93966212270369e+005,-1.83419467340062e+001,-4.03416032649891e+000

3.99465775648511e+005,-1.83424972708971e+001,-4.08904290530718e+000

4.05042110070485e+005,-1.83430584050538e+001,-4.14464721032014e+000

4.10696287220124e+005,-1.83436302429987e+001,-4.20098231231230e+000

4.16429393741414e+005,-1.83442128887307e+001,-4.25805740650387e+000

4.22242531447321e+005,-1.83448064436253e+001,-4.31588181552968e+000

4.28136817531551e+005,-1.83454110063404e+001,-4.37446499250532e+000

4.34113384783250e+005,-1.83460266727297e+001,-4.43381652418831e+000

4.40173381804713e+005,-1.83466535357634e+001,-4.49394613423920e+000

4.46317973232124e+005,-1.83472916854576e+001,-4.55486368657624e+000

4.52548339959385e+005,-1.83479412088130e+001,-4.61657918882858e+000

4.58865679365059e+005,-1.83486021897641e+001,-4.67910279588362e+000

4.65271205542494e+005,-1.83492747091385e+001,-4.74244481352770e+000

4.71766149533147e+005,-1.83499588446286e+001,-4.80661570217992e+000

4.78351759563174e+005,-1.83506546707758e+001,-4.87162608071546e+000

4.85029301283321e+005,-1.83513622589674e+001,-4.93748673037742e+000

4.91800058012158e+005,-1.83520816774479e+001,-5.00420859877417e+000

4.98665330982714e+005,-1.83528129913458e+001,-5.07180280395685e+000

5.05626439592555e+005,-1.83535562627149e+001,-5.14028063857875e+000

5.12684721657352e+005,-1.83543115505926e+001,-5.20965357412676e+000

5.19841533667984e+005,-1.83550789110751e+001,-5.27993326522618e+000

5.27098251051240e+005,-1.83558583974104e+001,-5.35113155400947e+000

5.34456268434150e+005,-1.83566500601093e+001,-5.42326047454840e+000

5.41916999912011e+005,-1.83574539470762e+001,-5.49633225734137e+000

