Freq.,VOut,OutRef

1.00000000000000e+004,-8.92942060938045e-001,-1.04405083879920e-001

1.01395947979003e+004,-8.92942030207505e-001,-1.05862525159688e-001

1.02811382665607e+004,-8.92941998613008e-001,-1.07340311588212e-001

1.04246576084112e+004,-8.92941966130268e-001,-1.08838727174348e-001

1.05701804056138e+004,-8.92941932734460e-001,-1.10358059890855e-001

1.07177346253629e+004,-8.92941898399797e-001,-1.11898601731755e-001

1.08673486252606e+004,-8.92941863099957e-001,-1.13460648766253e-001

1.10190511587661e+004,-8.92941826807830e-001,-1.15044501196866e-001

1.11728713807222e+004,-8.92941789495300e-001,-1.16650463418507e-001

1.13288388529580e+004,-8.92941751133985e-001,-1.18278844071736e-001

1.14869835499703e+004,-8.92941711694155e-001,-1.19929956109247e-001

1.16473358646846e+004,-8.92941671145751e-001,-1.21604116849447e-001

1.18099266142953e+004,-8.92941629457413e-001,-1.23301648042765e-001

1.19747870461893e+004,-8.92941586597092e-001,-1.25022875930880e-001

1.21419488439505e+004,-8.92941542531933e-001,-1.26768131308013e-001

1.23114441334492e+004,-8.92941497228030e-001,-1.28537749587718e-001

1.24833054890161e+004,-8.92941450650601e-001,-1.30332070865176e-001

1.26575659397028e+004,-8.92941402763830e-001,-1.32151439983305e-001

1.28342589756290e+004,-8.92941353530869e-001,-1.33996206599485e-001

1.30134185544193e+004,-8.92941302913991e-001,-1.35866725251236e-001

1.31950791077289e+004,-8.92941250874112e-001,-1.37763355426448e-001

1.33792755478611e+004,-8.92941197371520e-001,-1.39686461629472e-001

1.35660432744767e+004,-8.92941142364804e-001,-1.41636413455903e-001

1.37554181813974e+004,-8.92941085811809e-001,-1.43613585658778e-001

1.39474366635040e+004,-8.92941027669049e-001,-1.45618358222989e-001

1.41421356237309e+004,-8.92940967891890e-001,-1.47651116437851e-001

1.43395524801583e+004,-8.92940906434395e-001,-1.49712250971224e-001

1.45397251732031e+004,-8.92940843249329e-001,-1.51802157945148e-001

1.47426921729110e+004,-8.92940778288022e-001,-1.53921239011329e-001

1.49484924863494e+004,-8.92940711500578e-001,-1.56069901428208e-001

1.51571656651040e+004,-8.92940642835824e-001,-1.58248558138981e-001

1.53687518128801e+004,-8.92940572241052e-001,-1.60457627851160e-001

1.55832915932100e+004,-8.92940499661608e-001,-1.62697535120642e-001

1.58008262372675e+004,-8.92940425042144e-001,-1.64968710425263e-001

1.60213975517924e+004,-8.92940348325147e-001,-1.67271590255389e-001

1.62450479271247e+004,-8.92940269451614e-001,-1.69606617194416e-001

1.64718203453514e+004,-8.92940188360968e-001,-1.71974240003364e-001

1.67017583885674e+004,-8.92940104990961e-001,-1.74374913707886e-001

1.69349062472505e+004,-8.92940019277462e-001,-1.76809099686490e-001

1.71713087287550e+004,-8.92939931154684e-001,-1.79277265757672e-001

1.74110112659224e+004,-8.92939840554831e-001,-1.81779886271582e-001

1.76540599258131e+004,-8.92939747408358e-001,-1.84317442199317e-001

1.79005014185594e+004,-8.92939651643667e-001,-1.86890421226990e-001

1.81503831063432e+004,-8.92939553187060e-001,-1.89499317848954e-001

1.84037530124975e+004,-8.92939451963116e-001,-1.92144633461420e-001

1.86606598307361e+004,-8.92939347893963e-001,-1.94826876461061e-001

1.89211529345119e+004,-8.92939240899557e-001,-1.97546562342599e-001

1.91852823865052e+004,-8.92939130897875e-001,-2.00304213794827e-001

1.94530989482457e+004,-8.92939017804272e-001,-2.03100360805697e-001

1.97246540898671e+004,-8.92938901531839e-001,-2.05935540760433e-001

1.99999999999999e+004,-8.92938781991248e-001,-2.08810298547117e-001

2.02791895958005e+004,-8.92938659090821e-001,-2.11725186658299e-001

2.05622765331213e+004,-8.92938532735994e-001,-2.14680765302477e-001

2.08493152168224e+004,-8.92938402829685e-001,-2.17677602507269e-001

2.11403608112276e+004,-8.92938269272244e-001,-2.20716274228907e-001

2.14354692507258e+004,-8.92938131960864e-001,-2.23797364466613e-001

2.17346972505211e+004,-8.92937990790300e-001,-2.26921465369572e-001

2.20381023175322e+004,-8.92937845651943e-001,-2.30089177355832e-001

2.23457427614443e+004,-8.92937696434437e-001,-2.33301109223807e-001

2.26576777059159e+004,-8.92937543022990e-001,-2.36557878272356e-001

2.29739670999406e+004,-8.92937385299958e-001,-2.39860110416022e-001

2.32946717293690e+004,-8.92937223144084e-001,-2.43208440309473e-001

2.36198532285905e+004,-8.92937056430808e-001,-2.46603511465882e-001

2.39495740923785e+004,-8.92936885032208e-001,-2.50045976382106e-001

2.42838976879009e+004,-8.92936708816477e-001,-2.53536496665397e-001

2.46228882668982e+004,-8.92936527648479e-001,-2.57075743157472e-001

2.49666109780322e+004,-8.92936341388992e-001,-2.60664396066339e-001

2.53151318794055e+004,-8.92936149894938e-001,-2.64303145096458e-001

2.56685179512580e+004,-8.92935953019209e-001,-2.67992689580458e-001

2.60268371088386e+004,-8.92935750610812e-001,-2.71733738612715e-001

2.63901582154578e+004,-8.92935542514160e-001,-2.75527011189092e-001

2.67585510957221e+004,-8.92935328569560e-001,-2.79373236341209e-001

2.71320865489533e+004,-8.92935108612703e-001,-2.83273153279610e-001

2.75108363627948e+004,-8.92934882474690e-001,-2.87227511534241e-001

2.78948733270080e+004,-8.92934649981951e-001,-2.91237071098449e-001

2.82842712474618e+004,-8.92934410955950e-001,-2.95302602576694e-001

2.86791049603164e+004,-8.92934165213171e-001,-2.99424887330624e-001

2.90794503464061e+004,-8.92933912565063e-001,-3.03604717630338e-001

2.94853843458219e+004,-8.92933652817483e-001,-3.07842896808039e-001

2.98969849726987e+004,-8.92933385771248e-001,-3.12140239408758e-001

3.03143313302078e+004,-8.92933111221272e-001,-3.16497571351398e-001

3.07375036257601e+004,-8.92932828956775e-001,-3.20915730084263e-001

3.11665831864199e+004,-8.92932538761200e-001,-3.25395564747511e-001

3.16016524745350e+004,-8.92932240411852e-001,-3.29937936335590e-001

3.20427951035848e+004,-8.92931933679649e-001,-3.34543717864638e-001

3.24900958542493e+004,-8.92931618329297e-001,-3.39213794537491e-001

3.29436406907028e+004,-8.92931294118801e-001,-3.43949063916081e-001

3.34035167771346e+004,-8.92930960799300e-001,-3.48750436093824e-001

3.38698124945009e+004,-8.92930618115131e-001,-3.53618833868941e-001

3.43426174575100e+004,-8.92930265803227e-001,-3.58555192924613e-001

3.48220225318448e+004,-8.92929903593496e-001,-3.63560462005222e-001

3.53081198516260e+004,-8.92929531207904e-001,-3.68635603103073e-001

3.58010028371187e+004,-8.92929148360847e-001,-3.73781591639582e-001

3.63007662126863e+004,-8.92928754758625e-001,-3.78999416655499e-001

3.68075060249948e+004,-8.92928350099381e-001,-3.84290080999277e-001

3.73213196614721e+004,-8.92927934072710e-001,-3.89654601521357e-001

3.78423058690237e+004,-8.92927506359548e-001,-3.95094009268444e-001

3.83705647730104e+004,-8.92927066631862e-001,-4.00609349682961e-001

3.89061978964912e+004,-8.92926614552479e-001,-4.06201682802912e-001

3.94493081797342e+004,-8.92926149774773e-001,-4.11872083466726e-001

3.99999999999998e+004,-8.92925671942327e-001,-4.17621641519706e-001

4.05583791916010e+004,-8.92925180688937e-001,-4.23451462022138e-001

4.11245530662425e+004,-8.92924675637895e-001,-4.29362665465083e-001

4.16986304336447e+004,-8.92924156402060e-001,-4.35356387982967e-001

4.22807216224550e+004,-8.92923622583467e-001,-4.41433781572911e-001

4.28709385014515e+004,-8.92923073773067e-001,-4.47596014316232e-001

4.34693945010421e+004,-8.92922509550130e-001,-4.53844270604425e-001

4.40762046350642e+004,-8.92921929482416e-001,-4.60179751364856e-001

4.46914855228886e+004,-8.92921333125417e-001,-4.66603674292814e-001

4.53153554118317e+004,-8.92920720022289e-001,-4.73117274085806e-001

4.59479341998812e+004,-8.92920089703303e-001,-4.79721802681163e-001

4.65893434587380e+004,-8.92919441685592e-001,-4.86418529496657e-001

4.72397064571810e+004,-8.92918775472956e-001,-4.93208741673800e-001

4.78991481847569e+004,-8.92918090555024e-001,-5.00093744327293e-001

4.85677953758016e+004,-8.92917386407467e-001,-5.07074860793918e-001

4.92457765337964e+004,-8.92916662491040e-001,-5.14153432889721e-001

4.99332219560642e+004,-8.92915918251567e-001,-5.21330821165265e-001

5.06302637588109e+004,-8.92915153119309e-001,-5.28608405169511e-001

5.13370359025159e+004,-8.92914366508651e-001,-5.35987583714387e-001

5.20536742176771e+004,-8.92913557817532e-001,-5.43469775144320e-001

5.27803164309155e+004,-8.92912726427186e-001,-5.51056417608321e-001

5.35171021914442e+004,-8.92911871701489e-001,-5.58748969337327e-001

5.42641730979066e+004,-8.92910992986518e-001,-5.66548908925185e-001

5.50216727255895e+004,-8.92910089610165e-001,-5.74457735611846e-001

5.57897466540159e+004,-8.92909160881555e-001,-5.82476969573139e-001

5.65685424949235e+004,-8.92908206090398e-001,-5.90608152213095e-001

5.73582099206328e+004,-8.92907224506751e-001,-5.98852846459362e-001

5.81589006928121e+004,-8.92906215380164e-001,-6.07212637066101e-001

5.89707686916437e+004,-8.92905177939305e-001,-6.15689130916915e-001

5.97939699453972e+004,-8.92904111391400e-001,-6.24283957334849e-001

6.06286626604156e+004,-8.92903014921435e-001,-6.32998768396891e-001

6.14750072515201e+004,-8.92901887691714e-001,-6.41835239250723e-001

6.23331663728396e+004,-8.92900728841239e-001,-6.50795068437689e-001

6.32033049490698e+004,-8.92899537484997e-001,-6.59879978219178e-001

6.40855902071694e+004,-8.92898312713286e-001,-6.69091714909217e-001

6.49801917084985e+004,-8.92897053591056e-001,-6.78432049210067e-001

6.58872813814055e+004,-8.92895759157263e-001,-6.87902776552641e-001

6.68070335542691e+004,-8.92894428424117e-001,-6.97505717442777e-001

6.77396249890018e+004,-8.92893060376221e-001,-7.07242717811952e-001

6.86852349150199e+004,-8.92891653970096e-001,-7.17115649371597e-001

6.96440450636895e+004,-8.92890208133062e-001,-7.27126409974827e-001

7.06162397032520e+004,-8.92888721762759e-001,-7.37276923981104e-001

7.16020056742374e+004,-8.92887193726010e-001,-7.47569142627096e-001

7.26015324253724e+004,-8.92885622858339e-001,-7.58005044401858e-001

7.36150120499896e+004,-8.92884007962726e-001,-7.68586635429010e-001

7.46426393229441e+004,-8.92882347809066e-001,-7.79315949851581e-001

7.56846117380472e+004,-8.92880641132958e-001,-7.90195050225473e-001

7.67411295460207e+004,-8.92878886635002e-001,-8.01226027915525e-001

7.78123957929823e+004,-8.92877082979653e-001,-8.12411003498946e-001

7.88986163594682e+004,-8.92875228794423e-001,-8.23752127173206e-001

7.99999999999995e+004,-8.92873322668723e-001,-8.35251579171286e-001

8.11167583832018e+004,-8.92871363152759e-001,-8.46911570181057e-001

8.22491061324848e+004,-8.92869348756760e-001,-8.58734341771033e-001

8.33972608672892e+004,-8.92867277949560e-001,-8.70722166822904e-001

8.45614432449099e+004,-8.92865149157600e-001,-8.82877349969246e-001

8.57418770029029e+004,-8.92862960763847e-001,-8.95202228037404e-001

8.69387890020841e+004,-8.92860711106443e-001,-9.07699170500484e-001

8.81524092701283e+004,-8.92858398477669e-001,-9.20370579933146e-001

8.93829710457770e+004,-8.92856021122564e-001,-9.33218892475767e-001

9.06307108236633e+004,-8.92853577237601e-001,-9.46246578303320e-001

9.18958683997622e+004,-8.92851064969541e-001,-9.59456142102129e-001

9.31786869174758e+004,-8.92848482414102e-001,-9.72850123551327e-001

9.44794129143618e+004,-8.92845827614243e-001,-9.86431097814944e-001

9.57982963695136e+004,-8.92843098559045e-001,-1.00020167603646e+000

9.71355907516031e+004,-8.92840293182248e-001,-1.01416450584317e+000

9.84915530675926e+004,-8.92837409360583e-001,-1.02832227185715e+000

9.98664439121282e+004,-8.92834444912301e-001,-1.04267769621191e+000

1.01260527517622e+005,-8.92831397595679e-001,-1.05723353907884e+000

1.02674071805032e+005,-8.92828265107420e-001,-1.07199259919818e+000

1.04107348435354e+005,-8.92825045080745e-001,-1.08695771442061e+000

1.05560632861831e+005,-8.92821735084057e-001,-1.10213176225337e+000

1.07034204382888e+005,-8.92818332618779e-001,-1.11751766041673e+000

1.08528346195813e+005,-8.92814835118040e-001,-1.13311836740555e+000

1.10043345451179e+005,-8.92811239944360e-001,-1.14893688306220e+000

1.11579493308032e+005,-8.92807544388134e-001,-1.16497624915364e+000

1.13137084989847e+005,-8.92803745665518e-001,-1.18123954996000e+000

1.14716419841265e+005,-8.92799840916490e-001,-1.19772991286902e+000

1.16317801385624e+005,-8.92795827202848e-001,-1.21445050898076e+000

1.17941537383287e+005,-8.92791701506035e-001,-1.23140455371912e+000

1.19587939890794e+005,-8.92787460725104e-001,-1.24859530745343e+000

1.21257325320831e+005,-8.92783101674605e-001,-1.26602607612743e+000

1.22950014503040e+005,-8.92778621081975e-001,-1.28370021189877e+000

1.24666332745679e+005,-8.92774015585769e-001,-1.30162111378537e+000

1.26406609898139e+005,-8.92769281732898e-001,-1.31979222832311e+000

1.28171180414339e+005,-8.92764415976312e-001,-1.33821705023177e+000

1.29960383416997e+005,-8.92759414672650e-001,-1.35689912308889e+000

1.31774562762811e+005,-8.92754274079559e-001,-1.37584204001646e+000

1.33614067108538e+005,-8.92748990353068e-001,-1.39504944437464e+000

1.35479249978003e+005,-8.92743559545229e-001,-1.41452503046539e+000

1.37370469830040e+005,-8.92737977600883e-001,-1.43427254424805e+000

1.39288090127379e+005,-8.92732240355222e-001,-1.45429578406250e+000

1.41232479406504e+005,-8.92726343531035e-001,-1.47459860136337e+000

1.43204011348474e+005,-8.92720282735336e-001,-1.49518490146641e+000

1.45203064850745e+005,-8.92714053456643e-001,-1.51605864430273e+000

1.47230024099979e+005,-8.92707651061927e-001,-1.53722384518484e+000

1.49285278645888e+005,-8.92701070793308e-001,-1.55868457558375e+000

1.51369223476094e+005,-8.92694307764981e-001,-1.58044496391655e+000

1.53482259092041e+005,-8.92687356959735e-001,-1.60250919634552e+000

1.55624791585964e+005,-8.92680213225661e-001,-1.62488151758845e+000

1.57797232718936e+005,-8.92672871272793e-001,-1.64756623173932e+000

1.59999999999999e+005,-8.92665325669239e-001,-1.67056770310290e+000

1.62233516766403e+005,-8.92657570837899e-001,-1.69389035703848e+000

1.64498212264969e+005,-8.92649601052499e-001,-1.71753868081744e+000

1.66794521734578e+005,-8.92641410433962e-001,-1.74151722449187e+000

1.69122886489819e+005,-8.92632992946279e-001,-1.76583060177591e+000

1.71483754005805e+005,-8.92624342392756e-001,-1.79048349093970e+000

1.73877578004168e+005,-8.92615452411649e-001,-1.81548063571579e+000

1.76304818540256e+005,-8.92606316472383e-001,-1.84082684621661e+000

1.78765942091554e+005,-8.92596927870809e-001,-1.86652699986933e+000

1.81261421647326e+005,-8.92587279725142e-001,-1.89258604235850e+000

1.83791736799524e+005,-8.92577364971341e-001,-1.91900898858611e+000

1.86357373834951e+005,-8.92567176358583e-001,-1.94580092364286e+000

1.88958825828723e+005,-8.92556706444492e-001,-1.97296700379457e+000

1.91596592739027e+005,-8.92545947590378e-001,-2.00051245748141e+000

1.94271181503206e+005,-8.92534891956348e-001,-2.02844258633195e+000

1.96983106135185e+005,-8.92523531496187e-001,-2.05676276619127e+000

1.99732887824256e+005,-8.92511857952262e-001,-2.08547844816332e+000

2.02521055035243e+005,-8.92499862850286e-001,-2.11459515966840e+000

2.05348143610063e+005,-8.92487537493882e-001,-2.14411850551558e+000

2.08214696870707e+005,-8.92474872959024e-001,-2.17405416898963e+000

2.11121265723661e+005,-8.92461860088478e-001,-2.20440791295409e+000

2.14068408765776e+005,-8.92448489485998e-001,-2.23518558096897e+000

2.17056692391625e+005,-8.92434751510456e-001,-2.26639309842504e+000

2.20086690902357e+005,-8.92420636269558e-001,-2.29803647369425e+000

2.23158986616063e+005,-8.92406133614125e-001,-2.33012179929431e+000

2.26274169979693e+005,-8.92391233131235e-001,-2.36265525307334e+000

2.29432839682530e+005,-8.92375924138174e-001,-2.39564309940696e+000

2.32635602771247e+005,-8.92360195675488e-001,-2.42909169041619e+000

2.35883074766574e+005,-8.92344036500385e-001,-2.46300746719925e+000

2.39175879781588e+005,-8.92327435079840e-001,-2.49739696108249e+000

2.42514650641661e+005,-8.92310379583201e-001,-2.53226679488904e+000

2.45900029006080e+005,-8.92292857875147e-001,-2.56762368422414e+000

2.49332665491357e+005,-8.92274857508269e-001,-2.60347443877887e+000

2.52813219796278e+005,-8.92256365715221e-001,-2.63982596365339e+000

2.56342360828676e+005,-8.92237369401083e-001,-2.67668526069697e+000

2.59920766833993e+005,-8.92217855135360e-001,-2.71405942986791e+000

2.63549125525621e+005,-8.92197809143634e-001,-2.75195567061248e+000

2.67228134217075e+005,-8.92177217299313e-001,-2.79038128326272e+000

2.70958499956006e+005,-8.92156065114995e-001,-2.82934367045449e+000

2.74740939660078e+005,-8.92134337733552e-001,-2.86885033856510e+000

2.78576180254757e+005,-8.92112019919212e-001,-2.90890889917010e+000

2.82464958813007e+005,-8.92089096048249e-001,-2.94952707052296e+000

2.86408022696948e+005,-8.92065550099473e-001,-2.99071267905266e+000

2.90406129701488e+005,-8.92041365644504e-001,-3.03247366088369e+000

2.94460048199957e+005,-8.92016525837731e-001,-3.07481806337783e+000

2.98570557291775e+005,-8.91991013406044e-001,-3.11775404669641e+000

3.02738446952187e+005,-8.91964810638391e-001,-3.16128988538436e+000

3.06964518184081e+005,-8.91937899374955e-001,-3.20543396997752e+000

3.11249583171928e+005,-8.91910260995923e-001,-3.25019480863148e+000

3.15594465437872e+005,-8.91881876410269e-001,-3.29558102877372e+000

3.19999999999997e+005,-8.91852726043928e-001,-3.34160137877828e+000

3.24467033532806e+005,-8.91822789827835e-001,-3.38826472966426e+000

3.28996424529938e+005,-8.91792047185404e-001,-3.43558007681836e+000

3.33589043469155e+005,-8.91760477020112e-001,-3.48355654174042e+000

3.38245772979638e+005,-8.91728057702083e-001,-3.53220337381461e+000

3.42967508011610e+005,-8.91694767054813e-001,-3.58152995210489e+000

3.47755156008335e+005,-8.91660582341361e-001,-3.63154578717481e+000

3.52609637080511e+005,-8.91625480249934e-001,-3.68226052293422e+000

3.57531884183106e+005,-8.91589436879348e-001,-3.73368393851072e+000

3.62522843294651e+005,-8.91552427723855e-001,-3.78582595014783e+000

3.67583473599047e+005,-8.91514427657642e-001,-3.83869661312930e+000

3.72714747669902e+005,-8.91475410918698e-001,-3.89230612373078e+000

3.77917651657445e+005,-8.91435351092298e-001,-3.94666482119901e+000

3.83193185478053e+005,-8.91394221093978e-001,-4.00178318975821e+000

3.88542363006410e+005,-8.91351993151995e-001,-4.05767186064522e+000

3.93966212270369e+005,-8.91308638789069e-001,-4.11434161417269e+000

3.99465775648511e+005,-8.91264128803780e-001,-4.17180338182212e+000

4.05042110070485e+005,-8.91218433251245e-001,-4.23006824836559e+000

4.10696287220124e+005,-8.91171521423122e-001,-4.28914745401779e+000

4.16429393741414e+005,-8.91123361827112e-001,-4.34905239661892e+000

4.22242531447321e+005,-8.91073922165828e-001,-4.40979463384710e+000

4.28136817531551e+005,-8.91023169314482e-001,-4.47138588546450e+000

4.34113384783250e+005,-8.90971069298687e-001,-4.53383803559254e+000

4.40173381804713e+005,-8.90917587270784e-001,-4.59716313502208e+000

4.46317973232124e+005,-8.90862687485843e-001,-4.66137340355465e+000

4.52548339959385e+005,-8.90806333276557e-001,-4.72648123237842e+000

4.58865679365059e+005,-8.90748487027492e-001,-4.79249918647759e+000

4.65271205542494e+005,-8.90689110148556e-001,-4.85944000707645e+000

4.71766149533147e+005,-8.90628163047285e-001,-4.92731661411878e+000

4.78351759563174e+005,-8.90565605100626e-001,-4.99614210878295e+000

4.85029301283321e+005,-8.90501394625304e-001,-5.06592977603371e+000

4.91800058012158e+005,-8.90435488847726e-001,-5.13669308721053e+000

4.98665330982714e+005,-8.90367843872400e-001,-5.20844570265413e+000

5.05626439592555e+005,-8.90298414649721e-001,-5.28120147437105e+000

5.12684721657352e+005,-8.90227154942512e-001,-5.35497444873731e+000

5.19841533667984e+005,-8.90154017291298e-001,-5.42977886924231e+000

5.27098251051240e+005,-8.90078952978821e-001,-5.50562917927236e+000

5.34456268434150e+005,-8.90001911993225e-001,-5.58254002493601e+000

5.41916999912011e+005,-8.89922842989982e-001,-5.66052625793123e+000

