Freq.,VOut,OutRef

1.00000000000000e+004,-1.86276989359501e+000,-3.43121317223183e-002

1.01395947979003e+004,-1.86276989749228e+000,-3.47911104401999e-002

1.02811382665607e+004,-1.86276990149874e+000,-3.52767754198358e-002

1.04246576084112e+004,-1.86276990561749e+000,-3.57692199965641e-002

1.05701804056138e+004,-1.86276990985243e+000,-3.62685388040504e-002

1.07177346253629e+004,-1.86276991420587e+000,-3.67748278072128e-002

1.08673486252606e+004,-1.86276991868189e+000,-3.72881842998248e-002

1.10190511587661e+004,-1.86276992328348e+000,-3.78087069418335e-002

1.11728713807222e+004,-1.86276992801461e+000,-3.83364957640952e-002

1.13288388529580e+004,-1.86276993287826e+000,-3.88716522013372e-002

1.14869835499703e+004,-1.86276993787866e+000,-3.94142790961685e-002

1.16473358646846e+004,-1.86276994301947e+000,-3.99644807319453e-002

1.18099266142953e+004,-1.86276994830457e+000,-4.05223628457089e-002

1.19747870461893e+004,-1.86276995373833e+000,-4.10880326492240e-002

1.21419488439505e+004,-1.86276995932439e+000,-4.16615988555933e-002

1.23114441334492e+004,-1.86276996506769e+000,-4.22431716877567e-002

1.24833054890161e+004,-1.86276997097189e+000,-4.28328629165290e-002

1.26575659397028e+004,-1.86276997704216e+000,-4.34307858638359e-002

1.28342589756290e+004,-1.86276998328278e+000,-4.40370554395828e-002

1.30134185544193e+004,-1.86276998969848e+000,-4.46517881563464e-002

1.31950791077289e+004,-1.86276999629435e+000,-4.52751021508000e-002

1.33792755478611e+004,-1.86277000307541e+000,-4.59071172104737e-002

1.35660432744767e+004,-1.86277001004705e+000,-4.65479547934020e-002

1.37554181813974e+004,-1.86277001721412e+000,-4.71977380569323e-002

1.39474366635040e+004,-1.86277002458257e+000,-4.78565918721883e-002

1.41421356237309e+004,-1.86277003215772e+000,-4.85246428577050e-002

1.43395524801583e+004,-1.86277003994562e+000,-4.92020193954129e-002

1.45397251732031e+004,-1.86277004795212e+000,-4.98888516626690e-002

1.47426921729110e+004,-1.86277005618343e+000,-5.05852716515402e-002

1.49484924863494e+004,-1.86277006464546e+000,-5.12914132000699e-002

1.51571656651040e+004,-1.86277007334522e+000,-5.20074120084619e-002

1.53687518128801e+004,-1.86277008228909e+000,-5.27334056758795e-002

1.55832915932100e+004,-1.86277009148387e+000,-5.34695337210400e-002

1.58008262372675e+004,-1.86277010093666e+000,-5.42159376092885e-002

1.60213975517924e+004,-1.86277011065487e+000,-5.49727607792954e-002

1.62450479271247e+004,-1.86277012064566e+000,-5.57401486755462e-002

1.64718203453514e+004,-1.86277013091675e+000,-5.65182487700994e-002

1.67017583885674e+004,-1.86277014147579e+000,-5.73072105942529e-002

1.69349062472505e+004,-1.86277015233116e+000,-5.81071857649268e-002

1.71713087287550e+004,-1.86277016349092e+000,-5.89183280173179e-002

1.74110112659224e+004,-1.86277017496382e+000,-5.97407932301226e-002

1.76540599258131e+004,-1.86277018675854e+000,-6.05747394597370e-002

1.79005014185594e+004,-1.86277019888404e+000,-6.14203269680275e-002

1.81503831063432e+004,-1.86277021134951e+000,-6.22777182542019e-002

1.84037530124975e+004,-1.86277022416451e+000,-6.31470780845916e-002

1.86606598307361e+004,-1.86277023733889e+000,-6.40285735256740e-002

1.89211529345119e+004,-1.86277025088285e+000,-6.49223739742488e-002

1.91852823865052e+004,-1.86277026480616e+000,-6.58286511968187e-002

1.94530989482457e+004,-1.86277027911991e+000,-6.67475793502662e-002

1.97246540898671e+004,-1.86277029383498e+000,-6.76793350257193e-002

1.99999999999999e+004,-1.86277030896229e+000,-6.86240972804266e-002

2.02791895958005e+004,-1.86277032451368e+000,-6.95820476670334e-002

2.05622765331213e+004,-1.86277034050093e+000,-7.05533702743654e-002

2.08493152168224e+004,-1.86277035693610e+000,-7.15382517612072e-002

2.11403608112276e+004,-1.86277037383172e+000,-7.25368813904181e-002

2.14354692507258e+004,-1.86277039120073e+000,-7.35494510662067e-002

2.17346972505211e+004,-1.86277040905608e+000,-7.45761553730245e-002

2.20381023175322e+004,-1.86277042741193e+000,-7.56171916057961e-002

2.23457427614443e+004,-1.86277044628158e+000,-7.66727598209156e-002

2.26576777059159e+004,-1.86277046567972e+000,-7.77430628609857e-002

2.29739670999406e+004,-1.86277048562098e+000,-7.88283064013233e-002

2.32946717293690e+004,-1.86277050612079e+000,-7.99286989863868e-002

2.36198532285905e+004,-1.86277052719428e+000,-8.10444520749982e-002

2.39495740923785e+004,-1.86277054885755e+000,-8.21757800738489e-002

2.42838976879009e+004,-1.86277057112718e+000,-8.33229003821837e-002

2.46228882668982e+004,-1.86277059401994e+000,-8.44860334340202e-002

2.49666109780322e+004,-1.86277061755345e+000,-8.56654027381879e-002

2.53151318794055e+004,-1.86277064174528e+000,-8.68612349253909e-002

2.56685179512580e+004,-1.86277066661370e+000,-8.80737597882588e-002

2.60268371088386e+004,-1.86277069217788e+000,-8.93032103234976e-002

2.63901582154578e+004,-1.86277071845667e+000,-9.05498227851243e-002

2.67585510957221e+004,-1.86277074547032e+000,-9.18138367181933e-002

2.71320865489533e+004,-1.86277077323932e+000,-9.30954950131171e-002

2.75108363627948e+004,-1.86277080178428e+000,-9.43950439519869e-002

2.78948733270080e+004,-1.86277083112716e+000,-9.57127332494170e-002

2.82842712474618e+004,-1.86277086128991e+000,-9.70488161087223e-002

2.86791049603164e+004,-1.86277089229534e+000,-9.84035492645163e-002

2.90794503464061e+004,-1.86277092416671e+000,-9.97771930351492e-002

2.94853843458219e+004,-1.86277095692830e+000,-1.01170011369617e-001

2.98969849726987e+004,-1.86277099060457e+000,-1.02582271902615e-001

3.03143313302078e+004,-1.86277102522087e+000,-1.04014246002937e-001

3.07375036257601e+004,-1.86277106080356e+000,-1.05466208823078e-001

3.11665831864199e+004,-1.86277109737909e+000,-1.06938439359692e-001

3.16016524745350e+004,-1.86277113497510e+000,-1.08431220499092e-001

3.20427951035848e+004,-1.86277117361976e+000,-1.09944839076647e-001

3.24900958542493e+004,-1.86277121334224e+000,-1.11479585928213e-001

3.29436406907028e+004,-1.86277125417213e+000,-1.13035755950499e-001

3.34035167771346e+004,-1.86277129613994e+000,-1.14613648153376e-001

3.38698124945009e+004,-1.86277133927750e+000,-1.16213565717298e-001

3.43426174575100e+004,-1.86277138361705e+000,-1.17835816054223e-001

3.48220225318448e+004,-1.86277142919136e+000,-1.19480710867958e-001

3.53081198516260e+004,-1.86277147603473e+000,-1.21148566207481e-001

3.58010028371187e+004,-1.86277152418223e+000,-1.22839702532012e-001

3.63007662126863e+004,-1.86277157366985e+000,-1.24554444772578e-001

3.68075060249948e+004,-1.86277162453421e+000,-1.26293122394887e-001

3.73213196614721e+004,-1.86277167681326e+000,-1.28056069459240e-001

3.78423058690237e+004,-1.86277173054618e+000,-1.29843624685747e-001

3.83705647730104e+004,-1.86277178577262e+000,-1.31656131523241e-001

3.89061978964912e+004,-1.86277184253371e+000,-1.33493938209267e-001

3.94493081797342e+004,-1.86277190087163e+000,-1.35357397840147e-001

3.99999999999998e+004,-1.86277196082958e+000,-1.37246868438729e-001

4.05583791916010e+004,-1.86277202245199e+000,-1.39162713021269e-001

4.11245530662425e+004,-1.86277208578443e+000,-1.41105299669325e-001

4.16986304336447e+004,-1.86277215087374e+000,-1.43075001597965e-001

4.22807216224550e+004,-1.86277221776791e+000,-1.45072197228445e-001

4.28709385014515e+004,-1.86277228651633e+000,-1.47097270261789e-001

4.34693945010421e+004,-1.86277235716952e+000,-1.49150609750187e-001

4.40762046350642e+004,-1.86277242977965e+000,-1.51232610171887e-001

4.46914855228886e+004,-1.86277250439977e+000,-1.53343671509653e-001

4.53153554118317e+004,-1.86277258108478e+000,-1.55484199322862e-001

4.59479341998812e+004,-1.86277265989086e+000,-1.57654604828648e-001

4.65893434587380e+004,-1.86277274087573e+000,-1.59855304978478e-001

4.72397064571810e+004,-1.86277282409851e+000,-1.62086722540262e-001

4.78991481847569e+004,-1.86277290961981e+000,-1.64349286178115e-001

4.85677953758016e+004,-1.86277299750191e+000,-1.66643430533734e-001

4.92457765337964e+004,-1.86277308780891e+000,-1.68969596309404e-001

4.99332219560642e+004,-1.86277318060618e+000,-1.71328230355221e-001

5.06302637588109e+004,-1.86277327596119e+000,-1.73719785750771e-001

5.13370359025159e+004,-1.86277337394272e+000,-1.76144721895414e-001

5.20536742176771e+004,-1.86277347462163e+000,-1.78603504593546e-001

5.27803164309155e+004,-1.86277357807071e+000,-1.81096606143725e-001

5.35171021914442e+004,-1.86277368436408e+000,-1.83624505432808e-001

5.42641730979066e+004,-1.86277379357822e+000,-1.86187688022637e-001

5.50216727255895e+004,-1.86277390579143e+000,-1.88786646245396e-001

5.57897466540159e+004,-1.86277402108409e+000,-1.91421879297165e-001

5.65685424949235e+004,-1.86277413953835e+000,-1.94093893334915e-001

5.73582099206328e+004,-1.86277426123859e+000,-1.96803201571498e-001

5.81589006928121e+004,-1.86277438627149e+000,-1.99550324372751e-001

5.89707686916437e+004,-1.86277451472546e+000,-2.02335789361780e-001

5.97939699453972e+004,-1.86277464669151e+000,-2.05160131513943e-001

6.06286626604156e+004,-1.86277478226291e+000,-2.08023893261584e-001

6.14750072515201e+004,-1.86277492153479e+000,-2.10927624600660e-001

6.23331663728396e+004,-1.86277506460506e+000,-2.13871883190230e-001

6.32033049490698e+004,-1.86277521157386e+000,-2.16857234463360e-001

6.40855902071694e+004,-1.86277536254391e+000,-2.19884251731917e-001

6.49801917084985e+004,-1.86277551762029e+000,-2.22953516298932e-001

6.58872813814055e+004,-1.86277567691066e+000,-2.26065617568347e-001

6.68070335542691e+004,-1.86277584052522e+000,-2.29221153156922e-001

6.77396249890018e+004,-1.86277600857675e+000,-2.32420729010390e-001

6.86852349150199e+004,-1.86277618118100e+000,-2.35664959515093e-001

6.96440450636895e+004,-1.86277635845618e+000,-2.38954467619613e-001

7.06162397032520e+004,-1.86277654052342e+000,-2.42289884950972e-001

7.16020056742374e+004,-1.86277672750650e+000,-2.45671851937277e-001

7.26015324253724e+004,-1.86277691953232e+000,-2.49101017926195e-001

7.36150120499896e+004,-1.86277711673060e+000,-2.52578041312679e-001

7.46426393229441e+004,-1.86277731923401e+000,-2.56103589661956e-001

7.56846117380472e+004,-1.86277752717826e+000,-2.59678339838238e-001

7.67411295460207e+004,-1.86277774070216e+000,-2.63302978132909e-001

7.78123957929823e+004,-1.86277795994751e+000,-2.66978200395578e-001

7.88986163594682e+004,-1.86277818505933e+000,-2.70704712166597e-001

7.99999999999995e+004,-1.86277841618600e+000,-2.74483228810113e-001

8.11167583832018e+004,-1.86277865347888e+000,-2.78314475653054e-001

8.22491061324848e+004,-1.86277889709273e+000,-2.82199188121188e-001

8.33972608672892e+004,-1.86277914718559e+000,-2.86138111879125e-001

8.45614432449099e+004,-1.86277940391885e+000,-2.90132002973094e-001

8.57418770029029e+004,-1.86277966745738e+000,-2.94181627973355e-001

8.69387890020841e+004,-1.86277993796927e+000,-2.98287764122151e-001

8.81524092701283e+004,-1.86278021562637e+000,-3.02451199478080e-001

8.93829710457770e+004,-1.86278050060369e+000,-3.06672733070202e-001

9.06307108236633e+004,-1.86278079307976e+000,-3.10953175047157e-001

9.18958683997622e+004,-1.86278109323684e+000,-3.15293346830589e-001

9.31786869174758e+004,-1.86278140126064e+000,-3.19694081272375e-001

9.44794129143618e+004,-1.86278171734037e+000,-3.24156222812774e-001

9.57982963695136e+004,-1.86278204166868e+000,-3.28680627641198e-001

9.71355907516031e+004,-1.86278237444208e+000,-3.33268163856420e-001

9.84915530675926e+004,-1.86278271586039e+000,-3.37919711633582e-001

9.98664439121282e+004,-1.86278306612700e+000,-3.42636163390728e-001

1.01260527517622e+005,-1.86278342544904e+000,-3.47418423956371e-001

1.02674071805032e+005,-1.86278379403694e+000,-3.52267410743287e-001

1.04107348435354e+005,-1.86278417210477e+000,-3.57184053920807e-001

1.05560632861831e+005,-1.86278455986990e+000,-3.62169296591930e-001

1.07034204382888e+005,-1.86278495755337e+000,-3.67224094970523e-001

1.08528346195813e+005,-1.86278536537945e+000,-3.72349418564208e-001

1.10043345451179e+005,-1.86278578357582e+000,-3.77546250356090e-001

1.11579493308032e+005,-1.86278621237317e+000,-3.82815586993250e-001

1.13137084989847e+005,-1.86278665200568e+000,-3.88158438971347e-001

1.14716419841265e+005,-1.86278710271050e+000,-3.93575830829398e-001

1.16317801385624e+005,-1.86278756472772e+000,-3.99068801341754e-001

1.17941537383287e+005,-1.86278803830046e+000,-4.04638403713672e-001

1.19587939890794e+005,-1.86278852367446e+000,-4.10285705782122e-001

1.21257325320831e+005,-1.86278902109814e+000,-4.16011790216123e-001

1.22950014503040e+005,-1.86278953082244e+000,-4.21817754721196e-001

1.24666332745679e+005,-1.86279005310062e+000,-4.27704712246107e-001

1.26406609898139e+005,-1.86279058818788e+000,-4.33673791195216e-001

1.28171180414339e+005,-1.86279113634156e+000,-4.39726135637796e-001

1.29960383416997e+005,-1.86279169782059e+000,-4.45862905526091e-001

1.31774562762811e+005,-1.86279227288539e+000,-4.52085276912995e-001

1.33614067108538e+005,-1.86279286179764e+000,-4.58394442173355e-001

1.35479249978003e+005,-1.86279346481989e+000,-4.64791610229574e-001

1.37370469830040e+005,-1.86279408221518e+000,-4.71278006778516e-001

1.39288090127379e+005,-1.86279471424702e+000,-4.77854874521995e-001

1.41232479406504e+005,-1.86279536117883e+000,-4.84523473400605e-001

1.43204011348474e+005,-1.86279602327342e+000,-4.91285080831333e-001

1.45203064850745e+005,-1.86279670079297e+000,-4.98140991946789e-001

1.47230024099979e+005,-1.86279739399808e+000,-5.05092519839501e-001

1.49285278645888e+005,-1.86279810314772e+000,-5.12140995808261e-001

1.51369223476094e+005,-1.86279882849849e+000,-5.19287769608340e-001

1.53482259092041e+005,-1.86279957030416e+000,-5.26534209704515e-001

1.55624791585964e+005,-1.86280032881514e+000,-5.33881703527799e-001

1.57797232718936e+005,-1.86280110427771e+000,-5.41331657737540e-001

1.59999999999999e+005,-1.86280189693338e+000,-5.48885498483403e-001

1.62233516766403e+005,-1.86280270701832e+000,-5.56544671673659e-001

1.64498212264969e+005,-1.86280353476254e+000,-5.64310643246422e-001

1.66794521734578e+005,-1.86280438038891e+000,-5.72184899444615e-001

1.69122886489819e+005,-1.86280524411266e+000,-5.80168947094038e-001

1.71483754005805e+005,-1.86280612614011e+000,-5.88264313886493e-001

1.73877578004168e+005,-1.86280702666789e+000,-5.96472548666033e-001

1.76304818540256e+005,-1.86280794588207e+000,-6.04795221717665e-001

1.78765942091554e+005,-1.86280888395679e+000,-6.13233925063363e-001

1.81261421647326e+005,-1.86280984105312e+000,-6.21790272760262e-001

1.83791736799524e+005,-1.86281081731825e+000,-6.30465901200838e-001

1.86357373834951e+005,-1.86281181288362e+000,-6.39262469422340e-001

1.88958825828723e+005,-1.86281282786424e+000,-6.48181659414249e-001

1.91596592739027e+005,-1.86281386235663e+000,-6.57225176435979e-001

1.94271181503206e+005,-1.86281491643762e+000,-6.66394749335212e-001

1.96983106135185e+005,-1.86281599016289e+000,-6.75692130870928e-001

1.99732887824256e+005,-1.86281708356514e+000,-6.85119098041904e-001

2.02521055035243e+005,-1.86281819665214e+000,-6.94677452421336e-001

2.05348143610063e+005,-1.86281932940534e+000,-7.04369020491035e-001

2.08214696870707e+005,-1.86282048177745e+000,-7.14195653987068e-001

2.11121265723661e+005,-1.86282165369086e+000,-7.24159230243283e-001

2.14068408765776e+005,-1.86282284503499e+000,-7.34261652546646e-001

2.17056692391625e+005,-1.86282405566454e+000,-7.44504850490398e-001

2.20086690902357e+005,-1.86282528539679e+000,-7.54890780339174e-001

2.23158986616063e+005,-1.86282653400914e+000,-7.65421425394305e-001

2.26274169979693e+005,-1.86282780123683e+000,-7.76098796365454e-001

2.29432839682530e+005,-1.86282908676987e+000,-7.86924931749606e-001

2.32635602771247e+005,-1.86283039025026e+000,-7.97901898213574e-001

2.35883074766574e+005,-1.86283171126938e+000,-8.09031790980613e-001

2.39175879781588e+005,-1.86283304936437e+000,-8.20316734227317e-001

2.42514650641661e+005,-1.86283440401522e+000,-8.31758881481556e-001

2.45900029006080e+005,-1.86283577464147e+000,-8.43360416027394e-001

2.49332665491357e+005,-1.86283716059828e+000,-8.55123551318829e-001

2.52813219796278e+005,-1.86283856117333e+000,-8.67050531394218e-001

2.56342360828676e+005,-1.86283997558251e+000,-8.79143631302485e-001

2.59920766833993e+005,-1.86284140296634e+000,-8.91405157530695e-001

2.63549125525621e+005,-1.86284284238554e+000,-9.03837448441895e-001

2.67228134217075e+005,-1.86284429281678e+000,-9.16442874717643e-001

2.70958499956006e+005,-1.86284575314863e+000,-9.29223839805247e-001

2.74740939660078e+005,-1.86284722217636e+000,-9.42182780376351e-001

2.78576180254757e+005,-1.86284869859750e+000,-9.55322166788238e-001

2.82464958813007e+005,-1.86285018100694e+000,-9.68644503553525e-001

2.86408022696948e+005,-1.86285166789151e+000,-9.82152329817938e-001

2.90406129701488e+005,-1.86285315762492e+000,-9.95848219844147e-001

2.94460048199957e+005,-1.86285464846217e+000,-1.00973478350293e+000

2.98570557291775e+005,-1.86285613853397e+000,-1.02381466677269e+000

3.02738446952187e+005,-1.86285762584066e+000,-1.03809055224696e+000

3.06964518184081e+005,-1.86285910824655e+000,-1.05256515964728e+000

3.11249583171928e+005,-1.86286058347342e+000,-1.06724124634757e+000

3.15594465437872e+005,-1.86286204909424e+000,-1.08212160790403e+000

3.19999999999997e+005,-1.86286350252653e+000,-1.09720907859447e+000

3.24467033532806e+005,-1.86286494102574e+000,-1.11250653196599e+000

3.28996424529938e+005,-1.86286636167817e+000,-1.12801688139064e+000

3.33589043469155e+005,-1.86286776139384e+000,-1.14374308063108e+000

3.38245772979638e+005,-1.86286913689951e+000,-1.15968812441327e+000

3.42967508011610e+005,-1.86287048473067e+000,-1.17585504901126e+000

3.47755156008335e+005,-1.86287180122446e+000,-1.19224693283715e+000

3.52609637080511e+005,-1.86287308251139e+000,-1.20886689704500e+000

3.57531884183106e+005,-1.86287432450783e+000,-1.22571810614021e+000

3.62522843294651e+005,-1.86287552290746e+000,-1.24280376860179e+000

3.67583473599047e+005,-1.86287667317336e+000,-1.26012713751242e+000

3.72714747669902e+005,-1.86287777052922e+000,-1.27769151120076e+000

3.77917651657445e+005,-1.86287880995111e+000,-1.29550023389138e+000

3.83193185478053e+005,-1.86287978615857e+000,-1.31355669636723e+000

3.88542363006410e+005,-1.86288069360586e+000,-1.33186433664192e+000

3.93966212270369e+005,-1.86288152647295e+000,-1.35042664064319e+000

3.99465775648511e+005,-1.86288227865662e+000,-1.36924714290630e+000

4.05042110070485e+005,-1.86288294376103e+000,-1.38832942727988e+000

4.10696287220124e+005,-1.86288351508873e+000,-1.40767712764231e+000

4.16429393741414e+005,-1.86288398563123e+000,-1.42729392862847e+000

4.22242531447321e+005,-1.86288434805953e+000,-1.44718356637112e+000

4.28136817531551e+005,-1.86288459471468e+000,-1.46734982924994e+000

4.34113384783250e+005,-1.86288471759840e+000,-1.48779655865628e+000

4.40173381804713e+005,-1.86288470836327e+000,-1.50852764976699e+000

4.46317973232124e+005,-1.86288455830338e+000,-1.52954705233180e+000

4.52548339959385e+005,-1.86288425834460e+000,-1.55085877147271e+000

4.58865679365059e+005,-1.86288379903495e+000,-1.57246686849641e+000

4.65271205542494e+005,-1.86288317053511e+000,-1.59437546171733e+000

4.71766149533147e+005,-1.86288236260873e+000,-1.61658872729581e+000

4.78351759563174e+005,-1.86288136461292e+000,-1.63911090008729e+000

4.85029301283321e+005,-1.86288016548875e+000,-1.66194627450441e+000

4.91800058012158e+005,-1.86287875375166e+000,-1.68509920539385e+000

4.98665330982714e+005,-1.86287711748220e+000,-1.70857410892396e+000

5.05626439592555e+005,-1.86287524431671e+000,-1.73237546348627e+000

5.12684721657352e+005,-1.86287312143785e+000,-1.75650781061155e+000

5.19841533667984e+005,-1.86287073556560e+000,-1.78097575589772e+000

5.27098251051240e+005,-1.86286807294829e+000,-1.80578396995056e+000

5.34456268434150e+005,-1.86286511935318e+000,-1.83093718934132e+000

5.41916999912011e+005,-1.86286186005811e+000,-1.85644021757245e+000

