Freq.,VOut,OutRef

1.00000000000000e+004,-1.42729601597511e+001,-1.72380292826683e-001

1.01395947979003e+004,-1.42729605085166e+001,-1.74786608486279e-001

1.02811382665607e+004,-1.42729608670846e+001,-1.77226514060532e-001

1.04246576084112e+004,-1.42729612357306e+001,-1.79700478404811e-001

1.05701804056138e+004,-1.42729616147379e+001,-1.82208976917077e-001

1.07177346253629e+004,-1.42729620043976e+001,-1.84752491630330e-001

1.08673486252606e+004,-1.42729624050087e+001,-1.87331511306036e-001

1.10190511587661e+004,-1.42729628168792e+001,-1.89946531522963e-001

1.11728713807222e+004,-1.42729632403254e+001,-1.92598054778546e-001

1.13288388529580e+004,-1.42729636756724e+001,-1.95286590582048e-001

1.14869835499703e+004,-1.42729641232548e+001,-1.98012655551139e-001

1.16473358646846e+004,-1.42729645834162e+001,-2.00776773515783e-001

1.18099266142953e+004,-1.42729650565100e+001,-2.03579475614167e-001

1.19747870461893e+004,-1.42729655428995e+001,-2.06421300395737e-001

1.21419488439505e+004,-1.42729660429583e+001,-2.09302793926028e-001

1.23114441334492e+004,-1.42729665570704e+001,-2.12224509890120e-001

1.24833054890161e+004,-1.42729670856307e+001,-2.15187009699148e-001

1.26575659397028e+004,-1.42729676290448e+001,-2.18190862599092e-001

1.28342589756290e+004,-1.42729681877302e+001,-2.21236645777953e-001

1.30134185544193e+004,-1.42729687621157e+001,-2.24324944478092e-001

1.31950791077289e+004,-1.42729693526425e+001,-2.27456352107995e-001

1.33792755478611e+004,-1.42729699597639e+001,-2.30631470356659e-001

1.35660432744767e+004,-1.42729705839458e+001,-2.33850909308752e-001

1.37554181813974e+004,-1.42729712256679e+001,-2.37115287558036e-001

1.39474366635040e+004,-1.42729718854224e+001,-2.40425232334784e-001

1.41421356237309e+004,-1.42729725637161e+001,-2.43781379616456e-001

1.43395524801583e+004,-1.42729732610694e+001,-2.47184374257223e-001

1.45397251732031e+004,-1.42729739780177e+001,-2.50634870105294e-001

1.47426921729110e+004,-1.42729747151113e+001,-2.54133530133854e-001

1.49484924863494e+004,-1.42729754729160e+001,-2.57681026563480e-001

1.51571656651040e+004,-1.42729762520133e+001,-2.61278040996219e-001

1.53687518128801e+004,-1.42729770530012e+001,-2.64925264540625e-001

1.55832915932100e+004,-1.42729778764945e+001,-2.68623397947889e-001

1.58008262372675e+004,-1.42729787231249e+001,-2.72373151747041e-001

1.60213975517924e+004,-1.42729795935422e+001,-2.76175246377074e-001

1.62450479271247e+004,-1.42729804884144e+001,-2.80030412327265e-001

1.64718203453514e+004,-1.42729814084277e+001,-2.83939390280601e-001

1.67017583885674e+004,-1.42729823542885e+001,-2.87902931248094e-001

1.69349062472505e+004,-1.42729833267220e+001,-2.91921796720978e-001

1.71713087287550e+004,-1.42729843264745e+001,-2.95996758810213e-001

1.74110112659224e+004,-1.42729853543126e+001,-3.00128600398442e-001

1.76540599258131e+004,-1.42729864110249e+001,-3.04318115288464e-001

1.79005014185594e+004,-1.42729874974219e+001,-3.08566108353342e-001

1.81503831063432e+004,-1.42729886143368e+001,-3.12873395695281e-001

1.84037530124975e+004,-1.42729897626260e+001,-3.17240804799407e-001

1.86606598307361e+004,-1.42729909431702e+001,-3.21669174689745e-001

1.89211529345119e+004,-1.42729921568746e+001,-3.26159356094624e-001

1.91852823865052e+004,-1.42729934046697e+001,-3.30712211606140e-001

1.94530989482457e+004,-1.42729946875123e+001,-3.35328615847745e-001

1.97246540898671e+004,-1.42729960063857e+001,-3.40009455639078e-001

1.99999999999999e+004,-1.42729973623010e+001,-3.44755630167490e-001

2.02791895958005e+004,-1.42729987562974e+001,-3.49568051161442e-001

2.05622765331213e+004,-1.42730001894434e+001,-3.54447643060848e-001

2.08493152168224e+004,-1.42730016628372e+001,-3.59395343198489e-001

2.11403608112276e+004,-1.42730031776079e+001,-3.64412101977616e-001

2.14354692507258e+004,-1.42730047349161e+001,-3.69498883051870e-001

2.17346972505211e+004,-1.42730063359550e+001,-3.74656663513010e-001

2.20381023175322e+004,-1.42730079819512e+001,-3.79886434075061e-001

2.23457427614443e+004,-1.42730096741654e+001,-3.85189199266874e-001

2.26576777059159e+004,-1.42730114138937e+001,-3.90565977620112e-001

2.29739670999406e+004,-1.42730132024684e+001,-3.96017801867731e-001

2.32946717293690e+004,-1.42730150412595e+001,-4.01545719138464e-001

2.36198532285905e+004,-1.42730169316744e+001,-4.07150791160774e-001

2.39495740923785e+004,-1.42730188751608e+001,-4.12834094461147e-001

2.42838976879009e+004,-1.42730208732062e+001,-4.18596720573350e-001

2.46228882668982e+004,-1.42730229273399e+001,-4.24439776245519e-001

2.49666109780322e+004,-1.42730250391341e+001,-4.30364383652048e-001

2.53151318794055e+004,-1.42730272102048e+001,-4.36371680606565e-001

2.56685179512580e+004,-1.42730294422131e+001,-4.42462820782051e-001

2.60268371088386e+004,-1.42730317368664e+001,-4.48638973929087e-001

2.63901582154578e+004,-1.42730340959201e+001,-4.54901326097852e-001

2.67585510957221e+004,-1.42730365211782e+001,-4.61251079868617e-001

2.71320865489533e+004,-1.42730390144954e+001,-4.67689454577594e-001

2.75108363627948e+004,-1.42730415777779e+001,-4.74217686551091e-001

2.78948733270080e+004,-1.42730442129854e+001,-4.80837029340603e-001

2.82842712474618e+004,-1.42730469221321e+001,-4.87548753962494e-001

2.86791049603164e+004,-1.42730497072882e+001,-4.94354149140312e-001

2.90794503464061e+004,-1.42730525705819e+001,-5.01254521551613e-001

2.94853843458219e+004,-1.42730555142005e+001,-5.08251196073490e-001

2.98969849726987e+004,-1.42730585403926e+001,-5.15345516038975e-001

3.03143313302078e+004,-1.42730616514691e+001,-5.22538843490654e-001

3.07375036257601e+004,-1.42730648498055e+001,-5.29832559440783e-001

3.11665831864199e+004,-1.42730681378433e+001,-5.37228064134988e-001

3.16016524745350e+004,-1.42730715180921e+001,-5.44726777316285e-001

3.20427951035848e+004,-1.42730749931314e+001,-5.52330138498442e-001

3.24900958542493e+004,-1.42730785656122e+001,-5.60039607238369e-001

3.29436406907028e+004,-1.42730822382596e+001,-5.67856663413173e-001

3.34035167771346e+004,-1.42730860138743e+001,-5.75782807502560e-001

3.38698124945009e+004,-1.42730898953349e+001,-5.83819560873806e-001

3.43426174575100e+004,-1.42730938856000e+001,-5.91968466070330e-001

3.48220225318448e+004,-1.42730979877104e+001,-6.00231087105840e-001

3.53081198516260e+004,-1.42731022047915e+001,-6.08609009760152e-001

3.58010028371187e+004,-1.42731065400552e+001,-6.17103841881908e-001

3.63007662126863e+004,-1.42731109968029e+001,-6.25717213690389e-001

3.68075060249948e+004,-1.42731155784273e+001,-6.34450778090017e-001

3.73213196614721e+004,-1.42731202884154e+001,-6.43306210979058e-001

3.78423058690237e+004,-1.42731251303506e+001,-6.52285211570246e-001

3.83705647730104e+004,-1.42731301079160e+001,-6.61389502711110e-001

3.89061978964912e+004,-1.42731352248965e+001,-6.70620831211179e-001

3.94493081797342e+004,-1.42731404851818e+001,-6.79980968173901e-001

3.99999999999998e+004,-1.42731458927695e+001,-6.89471709328604e-001

4.05583791916010e+004,-1.42731514517675e+001,-6.99094875374189e-001

4.11245530662425e+004,-1.42731571663974e+001,-7.08852312321605e-001

4.16986304336447e+004,-1.42731630409977e+001,-7.18745891841681e-001

4.22807216224550e+004,-1.42731690800265e+001,-7.28777511621853e-001

4.28709385014515e+004,-1.42731752880652e+001,-7.38949095721438e-001

4.34693945010421e+004,-1.42731816698215e+001,-7.49262594937102e-001

4.40762046350642e+004,-1.42731882301332e+001,-7.59719987170371e-001

4.46914855228886e+004,-1.42731949739711e+001,-7.70323277799946e-001

4.53153554118317e+004,-1.42732019064436e+001,-7.81074500060379e-001

4.59479341998812e+004,-1.42732090327990e+001,-7.91975715426521e-001

4.65893434587380e+004,-1.42732163584309e+001,-8.03029013997996e-001

4.72397064571810e+004,-1.42732238888807e+001,-8.14236514897184e-001

4.78991481847569e+004,-1.42732316298422e+001,-8.25600366664470e-001

4.85677953758016e+004,-1.42732395871660e+001,-8.37122747663222e-001

4.92457765337964e+004,-1.42732477668629e+001,-8.48805866489546e-001

4.99332219560642e+004,-1.42732561751090e+001,-8.60651962386474e-001

5.06302637588109e+004,-1.42732648182496e+001,-8.72663305663878e-001

5.13370359025159e+004,-1.42732737028036e+001,-8.84842198125750e-001

5.20536742176771e+004,-1.42732828354688e+001,-8.97190973499318e-001

5.27803164309155e+004,-1.42732922231262e+001,-9.09711997873405e-001

5.35171021914442e+004,-1.42733018728446e+001,-9.22407670141360e-001

5.42641730979066e+004,-1.42733117918862e+001,-9.35280422449502e-001

5.50216727255895e+004,-1.42733219877114e+001,-9.48332720651033e-001

5.57897466540159e+004,-1.42733324679838e+001,-9.61567064767498e-001

5.65685424949235e+004,-1.42733432405761e+001,-9.74985989454481e-001

5.73582099206328e+004,-1.42733543135754e+001,-9.88592064474184e-001

5.81589006928121e+004,-1.42733656952883e+001,-1.00238789517572e+000

5.89707686916437e+004,-1.42733773942475e+001,-1.01637612297700e+000

5.97939699453972e+004,-1.42733894192173e+001,-1.03055942585903e+000

6.06286626604156e+004,-1.42734017791996e+001,-1.04494051886235e+000

6.14750072515201e+004,-1.42734144834402e+001,-1.05952215459055e+000

6.23331663728396e+004,-1.42734275414351e+001,-1.07430712372137e+000

6.32033049490698e+004,-1.42734409629371e+001,-1.08929825552433e+000

6.40855902071694e+004,-1.42734547579622e+001,-1.10449841838399e+000

6.49801917084985e+004,-1.42734689367968e+001,-1.11991052032969e+000

6.58872813814055e+004,-1.42734835100040e+001,-1.13553750957491e+000

6.68070335542691e+004,-1.42734984884317e+001,-1.15138237505951e+000

6.77396249890018e+004,-1.42735138832188e+001,-1.16744814700136e+000

6.86852349150199e+004,-1.42735297058035e+001,-1.18373789745556e+000

6.96440450636895e+004,-1.42735459679305e+001,-1.20025474087751e+000

7.06162397032520e+004,-1.42735626816586e+001,-1.21700183469777e+000

7.16020056742374e+004,-1.42735798593694e+001,-1.23398237989952e+000

7.26015324253724e+004,-1.42735975137745e+001,-1.25119962160610e+000

7.36150120499896e+004,-1.42736156579246e+001,-1.26865684967649e+000

7.46426393229441e+004,-1.42736343052175e+001,-1.28635739930482e+000

7.56846117380472e+004,-1.42736534694070e+001,-1.30430465163100e+000

7.67411295460207e+004,-1.42736731646116e+001,-1.32250203435795e+000

7.78123957929823e+004,-1.42736934053238e+001,-1.34095302237424e+000

7.88986163594682e+004,-1.42737142064191e+001,-1.35966113838771e+000

7.99999999999995e+004,-1.42737355831655e+001,-1.37862995356581e+000

8.11167583832018e+004,-1.42737575512331e+001,-1.39786308818225e+000

8.22491061324848e+004,-1.42737801267042e+001,-1.41736421227339e+000

8.33972608672892e+004,-1.42738033260827e+001,-1.43713704630273e+000

8.45614432449099e+004,-1.42738271663048e+001,-1.45718536183221e+000

8.57418770029029e+004,-1.42738516647493e+001,-1.47751298220246e+000

8.69387890020841e+004,-1.42738768392482e+001,-1.49812378322169e+000

8.81524092701283e+004,-1.42739027080974e+001,-1.51902169386155e+000

8.93829710457770e+004,-1.42739292900677e+001,-1.54021069696419e+000

9.06307108236633e+004,-1.42739566044161e+001,-1.56169482995367e+000

9.18958683997622e+004,-1.42739846708972e+001,-1.58347818555918e+000

9.31786869174758e+004,-1.42740135097748e+001,-1.60556491254666e+000

9.44794129143618e+004,-1.42740431418335e+001,-1.62795921645721e+000

9.57982963695136e+004,-1.42740735883911e+001,-1.65066536035538e+000

9.71355907516031e+004,-1.42741048713105e+001,-1.67368766558711e+000

9.84915530675926e+004,-1.42741370130119e+001,-1.69703051254586e+000

9.98664439121282e+004,-1.42741700364859e+001,-1.72069834144684e+000

1.01260527517622e+005,-1.42742039653059e+001,-1.74469565311168e+000

1.02674071805032e+005,-1.42742388236411e+001,-1.76902700976218e+000

1.04107348435354e+005,-1.42742746362700e+001,-1.79369703582211e+000

1.05560632861831e+005,-1.42743114285931e+001,-1.81871041872931e+000

1.07034204382888e+005,-1.42743492266471e+001,-1.84407190975711e+000

1.08528346195813e+005,-1.42743880571179e+001,-1.86978632484549e+000

1.10043345451179e+005,-1.42744279473551e+001,-1.89585854543979e+000

1.11579493308032e+005,-1.42744689253856e+001,-1.92229351934228e+000

1.13137084989847e+005,-1.42745110199278e+001,-1.94909626157066e+000

1.14716419841265e+005,-1.42745542604061e+001,-1.97627185522765e+000

1.16317801385624e+005,-1.42745986769652e+001,-2.00382545238021e+000

1.17941537383287e+005,-1.42746443004847e+001,-2.03176227494874e+000

1.19587939890794e+005,-1.42746911625941e+001,-2.06008761560596e+000

1.21257325320831e+005,-1.42747392956869e+001,-2.08880683868610e+000

1.22950014503040e+005,-1.42747887329366e+001,-2.11792538110480e+000

1.24666332745679e+005,-1.42748395083105e+001,-2.14744875328885e+000

1.26406609898139e+005,-1.42748916565860e+001,-2.17738254011493e+000

1.28171180414339e+005,-1.42749452133647e+001,-2.20773240186252e+000

1.29960383416997e+005,-1.42750002150883e+001,-2.23850407517307e+000

1.31774562762811e+005,-1.42750566990536e+001,-2.26970337402238e+000

1.33614067108538e+005,-1.42751147034277e+001,-2.30133619070438e+000

1.35479249978003e+005,-1.42751742672635e+001,-2.33340849682200e+000

1.37370469830040e+005,-1.42752354305146e+001,-2.36592634429453e+000

1.39288090127379e+005,-1.42752982340507e+001,-2.39889586637149e+000

1.41232479406504e+005,-1.42753627196726e+001,-2.43232327866014e+000

1.43204011348474e+005,-1.42754289301277e+001,-2.46621488016245e+000

1.45203064850745e+005,-1.42754969091241e+001,-2.50057705432665e+000

1.47230024099979e+005,-1.42755667013462e+001,-2.53541627010732e+000

1.49285278645888e+005,-1.42756383524690e+001,-2.57073908303824e+000

1.51369223476094e+005,-1.42757119091727e+001,-2.60655213631859e+000

1.53482259092041e+005,-1.42757874191567e+001,-2.64286216190844e+000

1.55624791585964e+005,-1.42758649311538e+001,-2.67967598163981e+000

1.57797232718936e+005,-1.42759444949438e+001,-2.71700050833668e+000

1.59999999999999e+005,-1.42760261613673e+001,-2.75484274695046e+000

1.62233516766403e+005,-1.42761099823380e+001,-2.79320979570735e+000

1.64498212264969e+005,-1.42761960108560e+001,-2.83210884726786e+000

1.66794521734578e+005,-1.42762843010200e+001,-2.87154718990054e+000

1.69122886489819e+005,-1.42763749080386e+001,-2.91153220866954e+000

1.71483754005805e+005,-1.42764678882422e+001,-2.95207138663394e+000

1.73877578004168e+005,-1.42765632990929e+001,-2.99317230606466e+000

1.76304818540256e+005,-1.42766611991957e+001,-3.03484264967137e+000

1.78765942091554e+005,-1.42767616483071e+001,-3.07709020184726e+000

1.81261421647326e+005,-1.42768647073441e+001,-3.11992284992745e+000

1.83791736799524e+005,-1.42769704383925e+001,-3.16334858546276e+000

1.86357373834951e+005,-1.42770789047140e+001,-3.20737550550869e+000

1.88958825828723e+005,-1.42771901707524e+001,-3.25201181393142e+000

1.91596592739027e+005,-1.42773043021395e+001,-3.29726582272922e+000

1.94271181503206e+005,-1.42774213656995e+001,-3.34314595337092e+000

1.96983106135185e+005,-1.42775414294521e+001,-3.38966073815259e+000

1.99732887824256e+005,-1.42776645626160e+001,-3.43681882156985e+000

2.02521055035243e+005,-1.42777908356093e+001,-3.48462896171114e+000

2.05348143610063e+005,-1.42779203200502e+001,-3.53310003166692e+000

2.08214696870707e+005,-1.42780530887556e+001,-3.58224102096103e+000

2.11121265723661e+005,-1.42781892157391e+001,-3.63206103700045e+000

2.14068408765776e+005,-1.42783287762070e+001,-3.68256930654489e+000

2.17056692391625e+005,-1.42784718465530e+001,-3.73377517720009e+000

2.20086690902357e+005,-1.42786185043521e+001,-3.78568811893084e+000

2.23158986616063e+005,-1.42787688283518e+001,-3.83831772559780e+000

2.26274169979693e+005,-1.42789228984624e+001,-3.89167371651809e+000

2.29432839682530e+005,-1.42790807957460e+001,-3.94576593804903e+000

2.32635602771247e+005,-1.42792426024026e+001,-4.00060436519861e+000

2.35883074766574e+005,-1.42794084017556e+001,-4.05619910326103e+000

2.39175879781588e+005,-1.42795782782348e+001,-4.11256038947930e+000

2.42514650641661e+005,-1.42797523173576e+001,-4.16969859473741e+000

2.45900029006080e+005,-1.42799306057084e+001,-4.22762422527964e+000

2.49332665491357e+005,-1.42801132309160e+001,-4.28634792446108e+000

2.52813219796278e+005,-1.42803002816290e+001,-4.34588047453010e+000

2.56342360828676e+005,-1.42804918474887e+001,-4.40623279844269e+000

2.59920766833993e+005,-1.42806880191003e+001,-4.46741596171066e+000

2.63549125525621e+005,-1.42808888880024e+001,-4.52944117428551e+000

2.67228134217075e+005,-1.42810945466332e+001,-4.59231979247792e+000

2.70958499956006e+005,-1.42813050882952e+001,-4.65606332091689e+000

2.74740939660078e+005,-1.42815206071181e+001,-4.72068341454580e+000

2.78576180254757e+005,-1.42817411980187e+001,-4.78619188066188e+000

2.82464958813007e+005,-1.42819669566588e+001,-4.85260068099556e+000

2.86408022696948e+005,-1.42821979794014e+001,-4.91992193383670e+000

2.90406129701488e+005,-1.42824343632643e+001,-4.98816791620384e+000

2.94460048199957e+005,-1.42826762058715e+001,-5.05735106606235e+000

2.98570557291775e+005,-1.42829236054028e+001,-5.12748398459125e+000

3.02738446952187e+005,-1.42831766605412e+001,-5.19857943850123e+000

3.06964518184081e+005,-1.42834354704184e+001,-5.27065036240451e+000

3.11249583171928e+005,-1.42837001345582e+001,-5.34370986124030e+000

3.15594465437872e+005,-1.42839707528185e+001,-5.41777121275574e+000

3.19999999999997e+005,-1.42842474253314e+001,-5.49284787004603e+000

3.24467033532806e+005,-1.42845302524412e+001,-5.56895346415406e+000

3.28996424529938e+005,-1.42848193346422e+001,-5.64610180673266e+000

3.33589043469155e+005,-1.42851147725135e+001,-5.72430689277095e+000

3.38245772979638e+005,-1.42854166666548e+001,-5.80358290338634e+000

3.42967508011610e+005,-1.42857251176192e+001,-5.88394420868517e+000

3.47755156008335e+005,-1.42860402258466e+001,-5.96540537069324e+000

3.52609637080511e+005,-1.42863620915961e+001,-6.04798114635820e+000

3.57531884183106e+005,-1.42866908148783e+001,-6.13168649062517e+000

3.62522843294651e+005,-1.42870264953874e+001,-6.21653655958961e+000

3.67583473599047e+005,-1.42873692324340e+001,-6.30254671372628e+000

3.72714747669902e+005,-1.42877191248779e+001,-6.38973252119799e+000

3.77917651657445e+005,-1.42880762710621e+001,-6.47810976124601e+000

3.83193185478053e+005,-1.42884407687486e+001,-6.56769442766230e+000

3.88542363006410e+005,-1.42888127150544e+001,-6.65850273234698e+000

3.93966212270369e+005,-1.42891922063911e+001,-6.75055110895069e+000

3.99465775648511e+005,-1.42895793384057e+001,-6.84385621660548e+000

4.05042110070485e+005,-1.42899742059244e+001,-6.93843494374208e+000

4.10696287220124e+005,-1.42903769029007e+001,-7.03430441199912e+000

4.16429393741414e+005,-1.42907875223650e+001,-7.13148198022162e+000

4.22242531447321e+005,-1.42912061563807e+001,-7.22998524855108e+000

4.28136817531551e+005,-1.42916328960033e+001,-7.32983206260819e+000

4.34113384783250e+005,-1.42920678312453e+001,-7.43104051776867e+000

4.40173381804713e+005,-1.42925110510463e+001,-7.53362896353100e+000

4.46317973232124e+005,-1.42929626432500e+001,-7.63761600797903e+000

4.52548339959385e+005,-1.42934226945864e+001,-7.74302052233691e+000

4.58865679365059e+005,-1.42938912906631e+001,-7.84986164561823e+000

4.65271205542494e+005,-1.42943685159626e+001,-7.95815878936627e+000

4.71766149533147e+005,-1.42948544538486e+001,-8.06793164248829e+000

4.78351759563174e+005,-1.42953491865812e+001,-8.17920017617983e+000

4.85029301283321e+005,-1.42958527953413e+001,-8.29198464893993e+000

4.91800058012158e+005,-1.42963653602641e+001,-8.40630561167436e+000

4.98665330982714e+005,-1.42968869604847e+001,-8.52218391288738e+000

5.05626439592555e+005,-1.42974176741923e+001,-8.63964070395836e+000

5.12684721657352e+005,-1.42979575786979e+001,-8.75869744450222e+000

5.19841533667984e+005,-1.42985067505125e+001,-8.87937590781095e+000

5.27098251051240e+005,-1.42990652654378e+001,-9.00169818637437e+000

5.34456268434150e+005,-1.42996331986706e+001,-9.12568669747746e+000

5.41916999912011e+005,-1.43002106249189e+001,-9.25136418886983e+000

