Freq.,VOut,OutRef

1.00000000000000e+004,-1.83465611234897e+001,-1.07544511527868e-001

1.01395947979003e+004,-1.83465615226977e+001,-1.09045750640832e-001

1.02811382665607e+004,-1.83465619331258e+001,-1.10567945155076e-001

1.04246576084112e+004,-1.83465623550898e+001,-1.12111387546635e-001

1.05701804056138e+004,-1.83465627889137e+001,-1.13676374376437e-001

1.07177346253629e+004,-1.83465632349304e+001,-1.15263206343692e-001

1.08673486252606e+004,-1.83465636934829e+001,-1.16872188338756e-001

1.10190511587661e+004,-1.83465641649232e+001,-1.18503629511062e-001

1.11728713807222e+004,-1.83465646496137e+001,-1.20157843317286e-001

1.13288388529580e+004,-1.83465651479263e+001,-1.21835147594957e-001

1.14869835499703e+004,-1.83465656602440e+001,-1.23535864607726e-001

1.16473358646846e+004,-1.83465661869601e+001,-1.25260321122045e-001

1.18099266142953e+004,-1.83465667284793e+001,-1.27008848457499e-001

1.19747870461893e+004,-1.83465672852173e+001,-1.28781782560764e-001

1.21419488439505e+004,-1.83465678576019e+001,-1.30579464060061e-001

1.23114441334492e+004,-1.83465684460726e+001,-1.32402238339645e-001

1.24833054890161e+004,-1.83465690510811e+001,-1.34250455600598e-001

1.26575659397028e+004,-1.83465696730922e+001,-1.36124470927516e-001

1.28342589756290e+004,-1.83465703125833e+001,-1.38024644361286e-001

1.30134185544193e+004,-1.83465709700457e+001,-1.39951340962159e-001

1.31950791077289e+004,-1.83465716459841e+001,-1.41904930883217e-001

1.33792755478611e+004,-1.83465723409176e+001,-1.43885789441081e-001

1.35660432744767e+004,-1.83465730553795e+001,-1.45894297188392e-001

1.37554181813974e+004,-1.83465737899187e+001,-1.47930839982784e-001

1.39474366635040e+004,-1.83465745450987e+001,-1.49995809067621e-001

1.41421356237309e+004,-1.83465753214996e+001,-1.52089601138258e-001

1.43395524801583e+004,-1.83465761197172e+001,-1.54212618426940e-001

1.45397251732031e+004,-1.83465769403643e+001,-1.56365268773184e-001

1.47426921729110e+004,-1.83465777840709e+001,-1.58547965705668e-001

1.49484924863494e+004,-1.83465786514843e+001,-1.60761128519252e-001

1.51571656651040e+004,-1.83465795432707e+001,-1.63005182355319e-001

1.53687518128801e+004,-1.83465804601144e+001,-1.65280558284719e-001

1.55832915932100e+004,-1.83465814027187e+001,-1.67587693391049e-001

1.58008262372675e+004,-1.83465823718073e+001,-1.69927030849195e-001

1.60213975517924e+004,-1.83465833681240e+001,-1.72299020014878e-001

1.62450479271247e+004,-1.83465843924331e+001,-1.74704116510614e-001

1.64718203453514e+004,-1.83465854455205e+001,-1.77142782310595e-001

1.67017583885674e+004,-1.83465865281943e+001,-1.79615485829713e-001

1.69349062472505e+004,-1.83465876412852e+001,-1.82122702013777e-001

1.71713087287550e+004,-1.83465887856472e+001,-1.84664912429560e-001

1.74110112659224e+004,-1.83465899621578e+001,-1.87242605358904e-001

1.76540599258131e+004,-1.83465911717198e+001,-1.89856275888716e-001

1.79005014185594e+004,-1.83465924152611e+001,-1.92506426006632e-001

1.81503831063432e+004,-1.83465936937351e+001,-1.95193564700576e-001

1.84037530124975e+004,-1.83465950081226e+001,-1.97918208050525e-001

1.86606598307361e+004,-1.83465963594315e+001,-2.00680879330091e-001

1.89211529345119e+004,-1.83465977486980e+001,-2.03482109107073e-001

1.91852823865052e+004,-1.83465991769876e+001,-2.06322435341791e-001

1.94530989482457e+004,-1.83466006453951e+001,-2.09202403494022e-001

1.97246540898671e+004,-1.83466021550464e+001,-2.12122566622988e-001

1.99999999999999e+004,-1.83466037070988e+001,-2.15083485496331e-001

2.02791895958005e+004,-1.83466053027420e+001,-2.18085728694309e-001

2.05622765331213e+004,-1.83466069431992e+001,-2.21129872719441e-001

2.08493152168224e+004,-1.83466086297276e+001,-2.24216502106608e-001

2.11403608112276e+004,-1.83466103636195e+001,-2.27346209536414e-001

2.14354692507258e+004,-1.83466121462037e+001,-2.30519595944086e-001

2.17346972505211e+004,-1.83466139788462e+001,-2.33737270635559e-001

2.20381023175322e+004,-1.83466158629508e+001,-2.36999851407467e-001

2.23457427614443e+004,-1.83466177999611e+001,-2.40307964657436e-001

2.26576777059159e+004,-1.83466197913606e+001,-2.43662245512173e-001

2.29739670999406e+004,-1.83466218386748e+001,-2.47063337939413e-001

2.32946717293690e+004,-1.83466239434716e+001,-2.50511894877512e-001

2.36198532285905e+004,-1.83466261073625e+001,-2.54008578357368e-001

2.39495740923785e+004,-1.83466283320045e+001,-2.57554059626741e-001

2.42838976879009e+004,-1.83466306191009e+001,-2.61149019280184e-001

2.46228882668982e+004,-1.83466329704021e+001,-2.64794147388153e-001

2.49666109780322e+004,-1.83466353877083e+001,-2.68490143626116e-001

2.53151318794055e+004,-1.83466378728690e+001,-2.72237717412129e-001

2.56685179512580e+004,-1.83466404277862e+001,-2.76037588034953e-001

2.60268371088386e+004,-1.83466430544145e+001,-2.79890484798132e-001

2.63901582154578e+004,-1.83466457547634e+001,-2.83797147152700e-001

2.67585510957221e+004,-1.83466485308984e+001,-2.87758324839377e-001

2.71320865489533e+004,-1.83466513849427e+001,-2.91774778032681e-001

2.75108363627948e+004,-1.83466543190787e+001,-2.95847277482448e-001

2.78948733270080e+004,-1.83466573355497e+001,-2.99976604661617e-001

2.82842712474618e+004,-1.83466604366618e+001,-3.04163551913048e-001

2.86791049603164e+004,-1.83466636247852e+001,-3.08408922601337e-001

2.90794503464061e+004,-1.83466669023562e+001,-3.12713531264497e-001

2.94853843458219e+004,-1.83466702718793e+001,-3.17078203765960e-001

2.98969849726987e+004,-1.83466737359284e+001,-3.21503777455761e-001

3.03143313302078e+004,-1.83466772971496e+001,-3.25991101322583e-001

3.07375036257601e+004,-1.83466809582624e+001,-3.30541036159477e-001

3.11665831864199e+004,-1.83466847220622e+001,-3.35154454724925e-001

3.16016524745350e+004,-1.83466885914221e+001,-3.39832241906919e-001

3.20427951035848e+004,-1.83466925692956e+001,-3.44575294889515e-001

3.24900958542493e+004,-1.83466966587180e+001,-3.49384523325886e-001

3.29436406907028e+004,-1.83467008628090e+001,-3.54260849505475e-001

3.34035167771346e+004,-1.83467051847755e+001,-3.59205208530134e-001

3.38698124945009e+004,-1.83467096279132e+001,-3.64218548490354e-001

3.43426174575100e+004,-1.83467141956098e+001,-3.69301830641922e-001

3.48220225318448e+004,-1.83467188913468e+001,-3.74456029591032e-001

3.53081198516260e+004,-1.83467237187027e+001,-3.79682133472395e-001

3.58010028371187e+004,-1.83467286813552e+001,-3.84981144139191e-001

3.63007662126863e+004,-1.83467337830842e+001,-3.90354077348855e-001

3.68075060249948e+004,-1.83467390277746e+001,-3.95801962955385e-001

3.73213196614721e+004,-1.83467444194189e+001,-4.01325845101684e-001

3.78423058690237e+004,-1.83467499621205e+001,-4.06926782414668e-001

3.83705647730104e+004,-1.83467556600964e+001,-4.12605848206852e-001

3.89061978964912e+004,-1.83467615176808e+001,-4.18364130672567e-001

3.94493081797342e+004,-1.83467675393275e+001,-4.24202733096468e-001

3.99999999999998e+004,-1.83467737296141e+001,-4.30122774055936e-001

4.05583791916010e+004,-1.83467800932446e+001,-4.36125387631937e-001

4.11245530662425e+004,-1.83467866350533e+001,-4.42211723620969e-001

4.16986304336447e+004,-1.83467933600080e+001,-4.48382947750086e-001

4.22807216224550e+004,-1.83468002732141e+001,-4.54640241892189e-001

4.28709385014515e+004,-1.83468073799179e+001,-4.60984804286879e-001

4.34693945010421e+004,-1.83468146855106e+001,-4.67417849765260e-001

4.40762046350642e+004,-1.83468221955322e+001,-4.73940609973732e-001

4.46914855228886e+004,-1.83468299156755e+001,-4.80554333603730e-001

4.53153554118317e+004,-1.83468378517903e+001,-4.87260286623309e-001

4.59479341998812e+004,-1.83468460098877e+001,-4.94059752512096e-001

4.65893434587380e+004,-1.83468543961441e+001,-5.00954032498354e-001

4.72397064571810e+004,-1.83468630169062e+001,-5.07944445800356e-001

4.78991481847569e+004,-1.83468718786951e+001,-5.15032329870663e-001

4.85677953758016e+004,-1.83468809882113e+001,-5.22219040641663e-001

4.92457765337964e+004,-1.83468903523392e+001,-5.29505952778182e-001

4.99332219560642e+004,-1.83468999781526e+001,-5.36894459926717e-001

5.06302637588109e+004,-1.83469098729189e+001,-5.44385974977975e-001

5.13370359025159e+004,-1.83469200441052e+001,-5.51981930319229e-001

5.20536742176771e+004,-1.83469304993830e+001,-5.59683778103663e-001

5.27803164309155e+004,-1.83469412466337e+001,-5.67492990513791e-001

5.35171021914442e+004,-1.83469522939546e+001,-5.75411060030268e-001

5.42641730979066e+004,-1.83469636496643e+001,-5.83439499707567e-001

5.50216727255895e+004,-1.83469753223086e+001,-5.91579843447012e-001

5.57897466540159e+004,-1.83469873206664e+001,-5.99833646280324e-001

5.65685424949235e+004,-1.83469996537562e+001,-6.08202484649486e-001

5.73582099206328e+004,-1.83470123308423e+001,-6.16687956694506e-001

5.81589006928121e+004,-1.83470253614410e+001,-6.25291682545841e-001

5.89707686916437e+004,-1.83470387553275e+001,-6.34015304614106e-001

5.97939699453972e+004,-1.83470525225427e+001,-6.42860487891328e-001

6.06286626604156e+004,-1.83470666734000e+001,-6.51828920248428e-001

6.14750072515201e+004,-1.83470812184923e+001,-6.60922312743768e-001

6.23331663728396e+004,-1.83470961686999e+001,-6.70142399927694e-001

6.32033049490698e+004,-1.83471115351972e+001,-6.79490940155337e-001

6.40855902071694e+004,-1.83471273294610e+001,-6.88969715904147e-001

6.49801917084985e+004,-1.83471435632774e+001,-6.98580534092286e-001

6.58872813814055e+004,-1.83471602487512e+001,-7.08325226399084e-001

6.68070335542691e+004,-1.83471773983127e+001,-7.18205649597356e-001

6.77396249890018e+004,-1.83471950247270e+001,-7.28223685878549e-001

6.86852349150199e+004,-1.83472131411019e+001,-7.38381243192604e-001

6.96440450636895e+004,-1.83472317608974e+001,-7.48680255581101e-001

7.06162397032520e+004,-1.83472508979340e+001,-7.59122683525122e-001

7.16020056742374e+004,-1.83472705664021e+001,-7.69710514286711e-001

7.26015324253724e+004,-1.83472907808716e+001,-7.80445762262899e-001

7.36150120499896e+004,-1.83473115563011e+001,-7.91330469337469e-001

7.46426393229441e+004,-1.83473329080479e+001,-8.02366705240639e-001

7.56846117380472e+004,-1.83473548518779e+001,-8.13556567910546e-001

7.67411295460207e+004,-1.83473774039758e+001,-8.24902183860515e-001

7.78123957929823e+004,-1.83474005809560e+001,-8.36405708547284e-001

7.88986163594682e+004,-1.83474243998721e+001,-8.48069326748364e-001

7.99999999999995e+004,-1.83474488782292e+001,-8.59895252938545e-001

8.11167583832018e+004,-1.83474740339939e+001,-8.71885731672798e-001

8.22491061324848e+004,-1.83474998856061e+001,-8.84043037974047e-001

8.33972608672892e+004,-1.83475264519904e+001,-8.96369477722909e-001

8.45614432449099e+004,-1.83475537525681e+001,-9.08867388053393e-001

8.57418770029029e+004,-1.83475818072691e+001,-9.21539137751654e-001

8.69387890020841e+004,-1.83476106365438e+001,-9.34387127660624e-001

8.81524092701283e+004,-1.83476402613762e+001,-9.47413791085982e-001

8.93829710457770e+004,-1.83476707032961e+001,-9.60621594209609e-001

9.06307108236633e+004,-1.83477019843923e+001,-9.74013036503896e-001

9.18958683997622e+004,-1.83477341273258e+001,-9.87590651154445e-001

9.31786869174758e+004,-1.83477671553431e+001,-1.00135700548180e+000

9.44794129143618e+004,-1.83478010922898e+001,-1.01531470137322e+000

9.57982963695136e+004,-1.83478359626249e+001,-1.02946637571266e+000

9.71355907516031e+004,-1.83478717914343e+001,-1.04381470082066e+000

9.84915530675926e+004,-1.83479086044455e+001,-1.05836238489510e+000

9.98664439121282e+004,-1.83479464280426e+001,-1.07311217245568e+000

1.01260527517622e+005,-1.83479852892802e+001,-1.08806684479650e+000

1.02674071805032e+005,-1.83480252158993e+001,-1.10322922043786e+000

1.04107348435354e+005,-1.83480662363421e+001,-1.11860215558748e+000

1.05560632861831e+005,-1.83481083797675e+001,-1.13418854460122e+000

1.07034204382888e+005,-1.83481516760670e+001,-1.14999132045254e+000

1.08528346195813e+005,-1.83481961558806e+001,-1.16601345520096e+000

1.10043345451179e+005,-1.83482418506128e+001,-1.18225796047163e+000

1.11579493308032e+005,-1.83482887924491e+001,-1.19872788793113e+000

1.13137084989847e+005,-1.83483370143720e+001,-1.21542632977652e+000

1.14716419841265e+005,-1.83483865501787e+001,-1.23235641921946e+000

1.16317801385624e+005,-1.83484374344968e+001,-1.24952133098220e+000

1.17941537383287e+005,-1.83484897028024e+001,-1.26692428179267e+000

1.19587939890794e+005,-1.83485433914364e+001,-1.28456853088795e+000

1.21257325320831e+005,-1.83485985376226e+001,-1.30245738051781e+000

1.22950014503040e+005,-1.83486551794846e+001,-1.32059417645625e+000

1.24666332745679e+005,-1.83487133560640e+001,-1.33898230851454e+000

1.26406609898139e+005,-1.83487731073375e+001,-1.35762521106000e+000

1.28171180414339e+005,-1.83488344742353e+001,-1.37652636353961e+000

1.29960383416997e+005,-1.83488974986586e+001,-1.39568929100584e+000

1.31774562762811e+005,-1.83489622234976e+001,-1.41511756464847e+000

1.33614067108538e+005,-1.83490286926497e+001,-1.43481480232986e+000

1.35479249978003e+005,-1.83490969510375e+001,-1.45478466912552e+000

1.37370469830040e+005,-1.83491670446268e+001,-1.47503087786706e+000

1.39288090127379e+005,-1.83492390204445e+001,-1.49555718969202e+000

1.41232479406504e+005,-1.83493129265967e+001,-1.51636741459584e+000

1.43204011348474e+005,-1.83493888122869e+001,-1.53746541198957e+000

1.45203064850745e+005,-1.83494667278333e+001,-1.55885509126140e+000

1.47230024099979e+005,-1.83495467246870e+001,-1.58054041234241e+000

1.49285278645888e+005,-1.83496288554492e+001,-1.60252538627752e+000

1.51369223476094e+005,-1.83497131738890e+001,-1.62481407580113e+000

1.53482259092041e+005,-1.83497997349603e+001,-1.64741059591511e+000

1.55624791585964e+005,-1.83498885948189e+001,-1.67031911447558e+000

1.57797232718936e+005,-1.83499798108392e+001,-1.69354385277966e+000

1.59999999999999e+005,-1.83500734416303e+001,-1.71708908616132e+000

1.62233516766403e+005,-1.83501695470526e+001,-1.74095914458908e+000

1.64498212264969e+005,-1.83502681882328e+001,-1.76515841326951e+000

1.66794521734578e+005,-1.83503694275795e+001,-1.78969133325739e+000

1.69122886489819e+005,-1.83504733287979e+001,-1.81456240206864e+000

1.71483754005805e+005,-1.83505799569038e+001,-1.83977617430134e+000

1.73877578004168e+005,-1.83506893782373e+001,-1.86533726225917e+000

1.76304818540256e+005,-1.83508016604761e+001,-1.89125033658301e+000

1.78765942091554e+005,-1.83509168726474e+001,-1.91752012688823e+000

1.81261421647326e+005,-1.83510350851400e+001,-1.94415142240656e+000

1.83791736799524e+005,-1.83511563697145e+001,-1.97114907263596e+000

1.86357373834951e+005,-1.83512807995143e+001,-1.99851798799591e+000

1.88958825828723e+005,-1.83514084490736e+001,-2.02626314049043e+000

1.91596592739027e+005,-1.83515393943266e+001,-2.05438956437811e+000

1.94271181503206e+005,-1.83516737126140e+001,-2.08290235684856e+000

1.96983106135185e+005,-1.83518114826895e+001,-2.11180667870820e+000

1.99732887824256e+005,-1.83519527847246e+001,-2.14110775507315e+000

2.02521055035243e+005,-1.83520977003124e+001,-2.17081087607212e+000

2.05348143610063e+005,-1.83522463124704e+001,-2.20092139755541e+000

2.08214696870707e+005,-1.83523987056412e+001,-2.23144474181751e+000

2.11121265723661e+005,-1.83525549656929e+001,-2.26238639832587e+000

2.14068408765776e+005,-1.83527151799171e+001,-2.29375192446293e+000

2.17056692391625e+005,-1.83528794370258e+001,-2.32554694627755e+000

2.20086690902357e+005,-1.83530478271468e+001,-2.35777715924911e+000

2.23158986616063e+005,-1.83532204418172e+001,-2.39044832906379e+000

2.26274169979693e+005,-1.83533973739754e+001,-2.42356629240318e+000

2.29432839682530e+005,-1.83535787179509e+001,-2.45713695774833e+000

2.32635602771247e+005,-1.83537645694530e+001,-2.49116630619611e+000

2.35883074766574e+005,-1.83539550255569e+001,-2.52566039229375e+000

2.39175879781588e+005,-1.83541501846879e+001,-2.56062534488660e+000

2.42514650641661e+005,-1.83543501466045e+001,-2.59606736798497e+000

2.45900029006080e+005,-1.83545550123776e+001,-2.63199274165061e+000

2.49332665491357e+005,-1.83547648843694e+001,-2.66840782289806e+000

2.52813219796278e+005,-1.83549798662094e+001,-2.70531904662016e+000

2.56342360828676e+005,-1.83552000627679e+001,-2.74273292653382e+000

2.59920766833993e+005,-1.83554255801274e+001,-2.78065605614733e+000

2.63549125525621e+005,-1.83556565255522e+001,-2.81909510975273e+000

2.67228134217075e+005,-1.83558930074550e+001,-2.85805684344383e+000

2.70958499956006e+005,-1.83561351353617e+001,-2.89754809615793e+000

2.74740939660078e+005,-1.83563830198734e+001,-2.93757579074886e+000

2.78576180254757e+005,-1.83566367726267e+001,-2.97814693508665e+000

2.82464958813007e+005,-1.83568965062508e+001,-3.01926862318923e+000

2.86408022696948e+005,-1.83571623343230e+001,-3.06094803638663e+000

2.90406129701488e+005,-1.83574343713215e+001,-3.10319244451812e+000

2.94460048199957e+005,-1.83577127325764e+001,-3.14600920716546e+000

2.98570557291775e+005,-1.83579975342178e+001,-3.18940577492398e+000

3.02738446952187e+005,-1.83582888931225e+001,-3.23338969071131e+000

3.06964518184081e+005,-1.83585869268578e+001,-3.27796859111835e+000

3.11249583171928e+005,-1.83588917536243e+001,-3.32315020780146e+000

3.15594465437872e+005,-1.83592034921959e+001,-3.36894236891975e+000

3.19999999999997e+005,-1.83595222618588e+001,-3.41535300061856e+000

3.24467033532806e+005,-1.83598481823484e+001,-3.46239012856059e+000

3.28996424529938e+005,-1.83601813737848e+001,-3.51006187950785e+000

3.33589043469155e+005,-1.83605219566072e+001,-3.55837648295446e+000

3.38245772979638e+005,-1.83608700515073e+001,-3.60734227281413e+000

3.42967508011610e+005,-1.83612257793613e+001,-3.65696768916257e+000

3.47755156008335e+005,-1.83615892611618e+001,-3.70726128003773e+000

3.52609637080511e+005,-1.83619606179491e+001,-3.75823170330077e+000

3.57531884183106e+005,-1.83623399707424e+001,-3.80988772855504e+000

3.62522843294651e+005,-1.83627274404708e+001,-3.86223823913211e+000

3.67583473599047e+005,-1.83631231479057e+001,-3.91529223413902e+000

3.72714747669902e+005,-1.83635272135933e+001,-3.96905883057423e+000

3.77917651657445e+005,-1.83639397577882e+001,-4.02354726551105e+000

3.83193185478053e+005,-1.83643609003888e+001,-4.07876689835013e+000

3.88542363006410e+005,-1.83647907608753e+001,-4.13472721314374e+000

3.93966212270369e+005,-1.83652294582488e+001,-4.19143782099134e+000

3.99465775648511e+005,-1.83656771109744e+001,-4.24890846250994e+000

4.05042110070485e+005,-1.83661338369270e+001,-4.30714901037805e+000

4.10696287220124e+005,-1.83665997533409e+001,-4.36616947195568e+000

4.16429393741414e+005,-1.83670749767642e+001,-4.42597999198074e+000

4.22242531447321e+005,-1.83675596230172e+001,-4.48659085534195e+000

4.28136817531551e+005,-1.83680538071573e+001,-4.54801248992927e+000

4.34113384783250e+005,-1.83685576434483e+001,-4.61025546956191e+000

4.40173381804713e+005,-1.83690712453377e+001,-4.67333051699458e+000

4.46317973232124e+005,-1.83695947254400e+001,-4.73724850700068e+000

4.52548339959385e+005,-1.83701281955281e+001,-4.80202046953180e+000

4.58865679365059e+005,-1.83706717665328e+001,-4.86765759295569e+000

4.65271205542494e+005,-1.83712255485511e+001,-4.93417122736812e+000

4.71766149533147e+005,-1.83717896508644e+001,-5.00157288797938e+000

4.78351759563174e+005,-1.83723641819656e+001,-5.06987425857508e+000

4.85029301283321e+005,-1.83729492495982e+001,-5.13908719504766e+000

4.91800058012158e+005,-1.83735449608058e+001,-5.20922372899684e+000

4.98665330982714e+005,-1.83741514219934e+001,-5.28029607139926e+000

5.05626439592555e+005,-1.83747687390015e+001,-5.35231661634128e+000

5.12684721657352e+005,-1.83753970171928e+001,-5.42529794481557e+000

5.19841533667984e+005,-1.83760363615527e+001,-5.49925282857681e+000

5.27098251051240e+005,-1.83766868768034e+001,-5.57419423405308e+000

5.34456268434150e+005,-1.83773486675325e+001,-5.65013532631034e+000

5.41916999912011e+005,-1.83780218383375e+001,-5.72708947306622e+000

