Freq.,VOut,OutRef

1.00000000000000e+004,-1.97278167302575e+001,-3.47590211727191e-001

1.01395947979003e+004,-1.97278183227162e+001,-3.52442338440330e-001

1.02811382665607e+004,-1.97278199599408e+001,-3.57362196118515e-001

1.04246576084112e+004,-1.97278216431894e+001,-3.62350730157098e-001

1.05701804056138e+004,-1.97278233737560e+001,-3.67408899143887e-001

1.07177346253629e+004,-1.97278251529706e+001,-3.72537675045837e-001

1.08673486252606e+004,-1.97278269822002e+001,-3.77738043393436e-001

1.10190511587661e+004,-1.97278288628510e+001,-3.83011003469067e-001

1.11728713807222e+004,-1.97278307963682e+001,-3.88357568500266e-001

1.13288388529580e+004,-1.97278327842378e+001,-3.93778765854385e-001

1.14869835499703e+004,-1.97278348279874e+001,-3.99275637234577e-001

1.16473358646846e+004,-1.97278369291877e+001,-4.04849238880997e-001

1.18099266142953e+004,-1.97278390894535e+001,-4.10500641771987e-001

1.19747870461893e+004,-1.97278413104448e+001,-4.16230931831699e-001

1.21419488439505e+004,-1.97278435938686e+001,-4.22041210135305e-001

1.23114441334492e+004,-1.97278459414794e+001,-4.27932593124141e-001

1.24833054890161e+004,-1.97278483550813e+001,-4.33906212817284e-001

1.26575659397028e+004,-1.97278508365293e+001,-4.39963217027883e-001

1.28342589756290e+004,-1.97278533877300e+001,-4.46104769586679e-001

1.30134185544193e+004,-1.97278560106439e+001,-4.52332050563601e-001

1.31950791077289e+004,-1.97278587072864e+001,-4.58646256493339e-001

1.33792755478611e+004,-1.97278614797298e+001,-4.65048600605059e-001

1.35660432744767e+004,-1.97278643301045e+001,-4.71540313056343e-001

1.37554181813974e+004,-1.97278672606006e+001,-4.78122641167962e-001

1.39474366635040e+004,-1.97278702734699e+001,-4.84796849664401e-001

1.41421356237309e+004,-1.97278733710274e+001,-4.91564220914617e-001

1.43395524801583e+004,-1.97278765556532e+001,-4.98426055179300e-001

1.45397251732031e+004,-1.97278798297941e+001,-5.05383670859090e-001

1.47426921729110e+004,-1.97278831959658e+001,-5.12438404749646e-001

1.49484924863494e+004,-1.97278866567548e+001,-5.19591612294562e-001

1.51571656651040e+004,-1.97278902148198e+001,-5.26844667848347e-001

1.53687518128801e+004,-1.97278938728946e+001,-5.34198964938239e-001

1.55832915932100e+004,-1.97278976337896e+001,-5.41655916531225e-001

1.58008262372675e+004,-1.97279015003943e+001,-5.49216955306044e-001

1.60213975517924e+004,-1.97279054756794e+001,-5.56883533926255e-001

1.62450479271247e+004,-1.97279095626985e+001,-5.64657125321017e-001

1.64718203453514e+004,-1.97279137645916e+001,-5.72539222964346e-001

1.67017583885674e+004,-1.97279180845868e+001,-5.80531341162730e-001

1.69349062472505e+004,-1.97279225260025e+001,-5.88635015346655e-001

1.71713087287550e+004,-1.97279270922507e+001,-5.96851802361888e-001

1.74110112659224e+004,-1.97279317868390e+001,-6.05183280770583e-001

1.76540599258131e+004,-1.97279366133735e+001,-6.13631051151454e-001

1.79005014185594e+004,-1.97279415755616e+001,-6.22196736407814e-001

1.81503831063432e+004,-1.97279466772149e+001,-6.30881982077133e-001

1.84037530124975e+004,-1.97279519222520e+001,-6.39688456647825e-001

1.86606598307361e+004,-1.97279573147016e+001,-6.48617851876473e-001

1.89211529345119e+004,-1.97279628587052e+001,-6.57671883114341e-001

1.91852823865052e+004,-1.97279685585209e+001,-6.66852289633795e-001

1.94530989482457e+004,-1.97279744185263e+001,-6.76160834962197e-001

1.97246540898671e+004,-1.97279804432218e+001,-6.85599307218503e-001

1.99999999999999e+004,-1.97279866372344e+001,-6.95169519456322e-001

2.02791895958005e+004,-1.97279930053206e+001,-7.04873310011377e-001

2.05622765331213e+004,-1.97279995523708e+001,-7.14712542851577e-001

2.08493152168224e+004,-1.97280062834125e+001,-7.24689107934756e-001

2.11403608112276e+004,-1.97280132036142e+001,-7.34804921570448e-001

2.14354692507258e+004,-1.97280203182898e+001,-7.45061926785440e-001

2.17346972505211e+004,-1.97280276329021e+001,-7.55462093695695e-001

2.20381023175322e+004,-1.97280351530673e+001,-7.66007419883252e-001

2.23457427614443e+004,-1.97280428845593e+001,-7.76699930778513e-001

2.26576777059159e+004,-1.97280508333139e+001,-7.87541680045956e-001

2.29739670999406e+004,-1.97280590054336e+001,-7.98534749978915e-001

2.32946717293690e+004,-1.97280674071919e+001,-8.09681251895251e-001

2.36198532285905e+004,-1.97280760450386e+001,-8.20983326541697e-001

2.39495740923785e+004,-1.97280849256044e+001,-8.32443144503255e-001

2.42838976879009e+004,-1.97280940557060e+001,-8.44062906616549e-001

2.46228882668982e+004,-1.97281034423513e+001,-8.55844844392106e-001

2.49666109780322e+004,-1.97281130927450e+001,-8.67791220437396e-001

2.53151318794055e+004,-1.97281230142936e+001,-8.79904328892336e-001

2.56685179512580e+004,-1.97281332146116e+001,-8.92186495864137e-001

2.60268371088386e+004,-1.97281437015269e+001,-9.04640079873093e-001

2.63901582154578e+004,-1.97281544830870e+001,-9.17267472300845e-001

2.67585510957221e+004,-1.97281655675652e+001,-9.30071097849079e-001

2.71320865489533e+004,-1.97281769634667e+001,-9.43053414998948e-001

2.75108363627948e+004,-1.97281886795351e+001,-9.56216916482113e-001

2.78948733270080e+004,-1.97282007247593e+001,-9.69564129754803e-001

2.82842712474618e+004,-1.97282131083802e+001,-9.83097617479484e-001

2.86791049603164e+004,-1.97282258398977e+001,-9.96819978013687e-001

2.90794503464061e+004,-1.97282389290780e+001,-1.01073384590514e+000

2.94853843458219e+004,-1.97282523859611e+001,-1.02484189239147e+000

2.98969849726987e+004,-1.97282662208684e+001,-1.03914682591206e+000

3.03143313302078e+004,-1.97282804444105e+001,-1.05365139262148e+000

3.07375036257601e+004,-1.97282950674953e+001,-1.06835837691140e+000

3.11665831864199e+004,-1.97283101013364e+001,-1.08327060194287e+000

3.16016524745350e+004,-1.97283255574616e+001,-1.09839093018039e+000

3.20427951035848e+004,-1.97283414477216e+001,-1.11372226393842e+000

3.24900958542493e+004,-1.97283577842991e+001,-1.12926754593173e+000

3.29436406907028e+004,-1.97283745797178e+001,-1.14502975983510e+000

3.34035167771346e+004,-1.97283918468525e+001,-1.16101193084919e+000

3.38698124945009e+004,-1.97284095989383e+001,-1.17721712627674e+000

3.43426174575100e+004,-1.97284278495809e+001,-1.19364845610376e+000

3.48220225318448e+004,-1.97284466127670e+001,-1.21030907358827e+000

3.53081198516260e+004,-1.97284659028747e+001,-1.22720217586219e+000

3.58010028371187e+004,-1.97284857346847e+001,-1.24433100453357e+000

3.63007662126863e+004,-1.97285061233911e+001,-1.26169884630382e+000

3.68075060249948e+004,-1.97285270846136e+001,-1.27930903358906e+000

3.73213196614721e+004,-1.97285486344085e+001,-1.29716494515197e+000

3.78423058690237e+004,-1.97285707892815e+001,-1.31527000674196e+000

3.83705647730104e+004,-1.97285935661999e+001,-1.33362769174127e+000

3.89061978964912e+004,-1.97286169826057e+001,-1.35224152182523e+000

3.94493081797342e+004,-1.97286410564284e+001,-1.37111506762615e+000

3.99999999999998e+004,-1.97286658060990e+001,-1.39025194940829e+000

4.05583791916010e+004,-1.97286912505637e+001,-1.40965583775224e+000

4.11245530662425e+004,-1.97287174092981e+001,-1.42933045424854e+000

4.16986304336447e+004,-1.97287443023222e+001,-1.44927957219900e+000

4.22807216224550e+004,-1.97287719502155e+001,-1.46950701732903e+000

4.28709385014515e+004,-1.97288003741321e+001,-1.49001666850941e+000

4.34693945010421e+004,-1.97288295958175e+001,-1.51081245848578e+000

4.40762046350642e+004,-1.97288596376238e+001,-1.53189837462174e+000

4.46914855228886e+004,-1.97288905225276e+001,-1.55327845964712e+000

4.53153554118317e+004,-1.97289222741472e+001,-1.57495681241911e+000

4.59479341998812e+004,-1.97289549167594e+001,-1.59693758869458e+000

4.65893434587380e+004,-1.97289884753190e+001,-1.61922500190853e+000

4.72397064571810e+004,-1.97290229754767e+001,-1.64182332396704e+000

4.78991481847569e+004,-1.97290584435990e+001,-1.66473688604797e+000

4.85677953758016e+004,-1.97290949067874e+001,-1.68797007941431e+000

4.92457765337964e+004,-1.97291323928992e+001,-1.71152735623579e+000

4.99332219560642e+004,-1.97291709305680e+001,-1.73541323042402e+000

5.06302637588109e+004,-1.97292105492256e+001,-1.75963227847655e+000

5.13370359025159e+004,-1.97292512791236e+001,-1.78418914033322e+000

5.20536742176771e+004,-1.97292931513564e+001,-1.80908852024300e+000

5.27803164309155e+004,-1.97293361978841e+001,-1.83433518764227e+000

5.35171021914442e+004,-1.97293804515568e+001,-1.85993397804482e+000

5.42641730979066e+004,-1.97294259461386e+001,-1.88588979394414e+000

5.50216727255895e+004,-1.97294727163330e+001,-1.91220760572566e+000

5.57897466540159e+004,-1.97295207978094e+001,-1.93889245259191e+000

5.65685424949235e+004,-1.97295702272284e+001,-1.96594944350047e+000

5.73582099206328e+004,-1.97296210422701e+001,-1.99338375811223e+000

5.81589006928121e+004,-1.97296732816616e+001,-2.02120064775359e+000

5.89707686916437e+004,-1.97297269852062e+001,-2.04940543638950e+000

5.97939699453972e+004,-1.97297821938123e+001,-2.07800352161048e+000

6.06286626604156e+004,-1.97298389495243e+001,-2.10700037563118e+000

6.14750072515201e+004,-1.97298972955533e+001,-2.13640154630237e+000

6.23331663728396e+004,-1.97299572763094e+001,-2.16621265813531e+000

6.32033049490698e+004,-1.97300189374343e+001,-2.19643941333979e+000

6.40855902071694e+004,-1.97300823258351e+001,-2.22708759287447e+000

6.49801917084985e+004,-1.97301474897185e+001,-2.25816305751184e+000

6.58872813814055e+004,-1.97302144786272e+001,-2.28967174891442e+000

6.68070335542691e+004,-1.97302833434752e+001,-2.32161969072764e+000

6.77396249890018e+004,-1.97303541365859e+001,-2.35401298968316e+000

6.86852349150199e+004,-1.97304269117306e+001,-2.38685783671811e+000

6.96440450636895e+004,-1.97305017241672e+001,-2.42016050810827e+000

7.06162397032520e+004,-1.97305786306814e+001,-2.45392736661325e+000

7.16020056742374e+004,-1.97306576896275e+001,-2.48816486263917e+000

7.26015324253724e+004,-1.97307389609717e+001,-2.52287953541301e+000

7.36150120499896e+004,-1.97308225063352e+001,-2.55807801417152e+000

7.46426393229441e+004,-1.97309083890392e+001,-2.59376701936749e+000

7.56846117380472e+004,-1.97309966741511e+001,-2.62995336388712e+000

7.67411295460207e+004,-1.97310874285314e+001,-2.66664395428474e+000

7.78123957929823e+004,-1.97311807208825e+001,-2.70384579203138e+000

7.88986163594682e+004,-1.97312766217978e+001,-2.74156597477919e+000

7.99999999999995e+004,-1.97313752038132e+001,-2.77981169763991e+000

8.11167583832018e+004,-1.97314765414592e+001,-2.81859025448022e+000

8.22491061324848e+004,-1.97315807113141e+001,-2.85790903923141e+000

8.33972608672892e+004,-1.97316877920598e+001,-2.89777554721482e+000

8.45614432449099e+004,-1.97317978645374e+001,-2.93819737648375e+000

8.57418770029029e+004,-1.97319110118054e+001,-2.97918222918028e+000

8.69387890020841e+004,-1.97320273191990e+001,-3.02073791290795e+000

8.81524092701283e+004,-1.97321468743907e+001,-3.06287234212197e+000

8.93829710457770e+004,-1.97322697674528e+001,-3.10559353953321e+000

9.06307108236633e+004,-1.97323960909213e+001,-3.14890963753136e+000

9.18958683997622e+004,-1.97325259398613e+001,-3.19282887962128e+000

9.31786869174758e+004,-1.97326594119342e+001,-3.23735962187797e+000

9.44794129143618e+004,-1.97327966074664e+001,-3.28251033441854e+000

9.57982963695136e+004,-1.97329376295200e+001,-3.32828960288855e+000

9.71355907516031e+004,-1.97330825839653e+001,-3.37470612996710e+000

9.84915530675926e+004,-1.97332315795540e+001,-3.42176873688823e+000

9.98664439121282e+004,-1.97333847279963e+001,-3.46948636497887e+000

1.01260527517622e+005,-1.97335421440376e+001,-3.51786807721434e+000

1.02674071805032e+005,-1.97337039455389e+001,-3.56692305979126e+000

1.04107348435354e+005,-1.97338702535577e+001,-3.61666062371628e+000

1.05560632861831e+005,-1.97340411924323e+001,-3.66709020641373e+000

1.07034204382888e+005,-1.97342168898670e+001,-3.71822137335013e+000

1.08528346195813e+005,-1.97343974770194e+001,-3.77006381967571e+000

1.10043345451179e+005,-1.97345830885911e+001,-3.82262737188286e+000

1.11579493308032e+005,-1.97347738629186e+001,-3.87592198948518e+000

1.13137084989847e+005,-1.97349699420680e+001,-3.92995776670962e+000

1.14716419841265e+005,-1.97351714719310e+001,-3.98474493421028e+000

1.16317801385624e+005,-1.97353786023236e+001,-4.04029386079741e+000

1.17941537383287e+005,-1.97355914870869e+001,-4.09661505518603e+000

1.19587939890794e+005,-1.97358102841903e+001,-4.15371916776139e+000

1.21257325320831e+005,-1.97360351558372e+001,-4.21161699236156e+000

1.22950014503040e+005,-1.97362662685730e+001,-4.27031946808031e+000

1.24666332745679e+005,-1.97365037933956e+001,-4.32983768108599e+000

1.26406609898139e+005,-1.97367479058683e+001,-4.39018286645831e+000

1.28171180414339e+005,-1.97369987862360e+001,-4.45136641004500e+000

1.29960383416997e+005,-1.97372566195424e+001,-4.51339985033479e+000

1.31774562762811e+005,-1.97375215957521e+001,-4.57629488034899e+000

1.33614067108538e+005,-1.97377939098732e+001,-4.64006334955182e+000

1.35479249978003e+005,-1.97380737620840e+001,-4.70471726577751e+000

1.37370469830040e+005,-1.97383613578622e+001,-4.77026879717753e+000

1.39288090127379e+005,-1.97386569081164e+001,-4.83673027418358e+000

1.41232479406504e+005,-1.97389606293215e+001,-4.90411419149098e+000

1.43204011348474e+005,-1.97392727436560e+001,-4.97243321005854e+000

1.45203064850745e+005,-1.97395934791427e+001,-5.04170015912802e+000

1.47230024099979e+005,-1.97399230697925e+001,-5.11192803826048e+000

1.49285278645888e+005,-1.97402617557509e+001,-5.18313001939175e+000

1.51369223476094e+005,-1.97406097834483e+001,-5.25531944890558e+000

1.53482259092041e+005,-1.97409674057522e+001,-5.32850984972517e+000

1.55624791585964e+005,-1.97413348821238e+001,-5.40271492342346e+000

1.57797232718936e+005,-1.97417124787775e+001,-5.47794855234976e+000

1.59999999999999e+005,-1.97421004688429e+001,-5.55422480177722e+000

1.62233516766403e+005,-1.97424991325311e+001,-5.63155792206596e+000

1.64498212264969e+005,-1.97429087573036e+001,-5.70996235084653e+000

1.66794521734578e+005,-1.97433296380455e+001,-5.78945271521985e+000

1.69122886489819e+005,-1.97437620772408e+001,-5.87004383397620e+000

1.71483754005805e+005,-1.97442063851525e+001,-5.95175071983247e+000

1.73877578004168e+005,-1.97446628800052e+001,-6.03458858168772e+000

1.76304818540256e+005,-1.97451318881718e+001,-6.11857282689614e+000

1.78765942091554e+005,-1.97456137443638e+001,-6.20371906355926e+000

1.81261421647326e+005,-1.97461087918247e+001,-6.29004310283637e+000

1.83791736799524e+005,-1.97466173825280e+001,-6.37756096127231e+000

1.86357373834951e+005,-1.97471398773777e+001,-6.46628886314554e+000

1.88958825828723e+005,-1.97476766464137e+001,-6.55624324283219e+000

1.91596592739027e+005,-1.97482280690207e+001,-6.64744074719096e+000

1.94271181503206e+005,-1.97487945341398e+001,-6.73989823796530e+000

1.96983106135185e+005,-1.97493764404862e+001,-6.83363279420447e+000

1.99732887824256e+005,-1.97499741967686e+001,-6.92866171470425e+000

2.02521055035243e+005,-1.97505882219141e+001,-7.02500252046442e+000

2.05348143610063e+005,-1.97512189452963e+001,-7.12267295716834e+000

2.08214696870707e+005,-1.97518668069678e+001,-7.22169099767915e+000

2.11121265723661e+005,-1.97525322578966e+001,-7.32207484455664e+000

2.14068408765776e+005,-1.97532157602074e+001,-7.42384293259275e+000

2.17056692391625e+005,-1.97539177874258e+001,-7.52701393136803e+000

2.20086690902357e+005,-1.97546388247277e+001,-7.63160674782708e+000

2.23158986616063e+005,-1.97553793691936e+001,-7.73764052887381e+000

2.26274169979693e+005,-1.97561399300654e+001,-7.84513466398879e+000

2.29432839682530e+005,-1.97569210290095e+001,-7.95410878786523e+000

2.32635602771247e+005,-1.97577232003839e+001,-8.06458278306788e+000

2.35883074766574e+005,-1.97585469915094e+001,-8.17657678271141e+000

2.39175879781588e+005,-1.97593929629460e+001,-8.29011117316213e+000

2.42514650641661e+005,-1.97602616887739e+001,-8.40520659676053e+000

2.45900029006080e+005,-1.97611537568795e+001,-8.52188395456695e+000

2.49332665491357e+005,-1.97620697692463e+001,-8.64016440912936e+000

2.52813219796278e+005,-1.97630103422507e+001,-8.76006938727520e+000

2.56342360828676e+005,-1.97639761069631e+001,-8.88162058292619e+000

2.59920766833993e+005,-1.97649677094547e+001,-9.00483995993732e+000

2.63549125525621e+005,-1.97659858111088e+001,-9.12974975496088e+000

2.67228134217075e+005,-1.97670310889386e+001,-9.25637248033528e+000

2.70958499956006e+005,-1.97681042359104e+001,-9.38473092699935e+000

2.74740939660078e+005,-1.97692059612726e+001,-9.51484816743260e+000

2.78576180254757e+005,-1.97703369908904e+001,-9.64674755862260e+000

2.82464958813007e+005,-1.97714980675878e+001,-9.78045274505922e+000

2.86408022696948e+005,-1.97726899514953e+001,-9.91598766175625e+000

2.90406129701488e+005,-1.97739134204038e+001,-1.00533765373013e+001

2.94460048199957e+005,-1.97751692701268e+001,-1.01926438969346e+001

2.98570557291775e+005,-1.97764583148683e+001,-1.03338145656566e+001

3.02738446952187e+005,-1.97777813875991e+001,-1.04769136713651e+001

3.06964518184081e+005,-1.97791393404404e+001,-1.06219666480227e+001

3.11249583171928e+005,-1.97805330450553e+001,-1.07689992388543e+001

3.15594465437872e+005,-1.97819633930490e+001,-1.09180374995753e+001

3.19999999999997e+005,-1.97834312963769e+001,-1.10691078016515e+001

3.24467033532806e+005,-1.97849376877629e+001,-1.12222368355886e+001

3.28996424529938e+005,-1.97864835211263e+001,-1.13774516142550e+001

3.33589043469155e+005,-1.97880697720181e+001,-1.15347794762348e+001

3.38245772979638e+005,-1.97896974380687e+001,-1.16942480892117e+001

3.42967508011610e+005,-1.97913675394453e+001,-1.18558854533862e+001

3.47755156008335e+005,-1.97930811193212e+001,-1.20197199049206e+001

3.52609637080511e+005,-1.97948392443560e+001,-1.21857801194173e+001

3.57531884183106e+005,-1.97966430051884e+001,-1.23540951154252e+001

3.62522843294651e+005,-1.97984935169419e+001,-1.25246942579753e+001

3.67583473599047e+005,-1.98003919197433e+001,-1.26976072621459e+001

3.72714747669902e+005,-1.98023393792555e+001,-1.28728641966525e+001

3.77917651657445e+005,-1.98043370872244e+001,-1.30504954874652e+001

3.83193185478053e+005,-1.98063862620410e+001,-1.32305319214488e+001

3.88542363006410e+005,-1.98084881493196e+001,-1.34130046500258e+001

3.93966212270369e+005,-1.98106440224919e+001,-1.35979451928584e+001

3.99465775648511e+005,-1.98128551834184e+001,-1.37853854415483e+001

4.05042110070485e+005,-1.98151229630178e+001,-1.39753576633518e+001

4.10696287220124e+005,-1.98174487219147e+001,-1.41678945049046e+001

4.16429393741414e+005,-1.98198338511063e+001,-1.43630289959560e+001

4.22242531447321e+005,-1.98222797726495e+001,-1.45607945531068e+001

4.28136817531551e+005,-1.98247879403685e+001,-1.47612249835470e+001

4.34113384783250e+005,-1.98273598405840e+001,-1.49643544887876e+001

4.40173381804713e+005,-1.98299969928638e+001,-1.51702176683842e+001

4.46317973232124e+005,-1.98327009507975e+001,-1.53788495236434e+001

4.52548339959385e+005,-1.98354733027940e+001,-1.55902854613080e+001

4.58865679365059e+005,-1.98383156729034e+001,-1.58045612972143e+001

4.65271205542494e+005,-1.98412297216641e+001,-1.60217132599140e+001

4.71766149533147e+005,-1.98442171469758e+001,-1.62417779942529e+001

4.78351759563174e+005,-1.98472796849981e+001,-1.64647925648997e+001

4.85029301283321e+005,-1.98504191110765e+001,-1.66907944598142e+001

4.91800058012158e+005,-1.98536372406964e+001,-1.69198215936483e+001

4.98665330982714e+005,-1.98569359304638e+001,-1.71519123110679e+001

5.05626439592555e+005,-1.98603170791156e+001,-1.73871053899870e+001

5.12684721657352e+005,-1.98637826285586e+001,-1.76254400447025e+001

5.19841533667984e+005,-1.98673345649370e+001,-1.78669559289191e+001

5.27098251051240e+005,-1.98709749197304e+001,-1.81116931386520e+001

5.34456268434150e+005,-1.98747057708807e+001,-1.83596922149953e+001

5.41916999912011e+005,-1.98785292439492e+001,-1.86109941467432e+001

