Freq.,VOut,OutRef

1.00000000000000e+004,-1.26464970356302e+000,-2.14932216295355e-002

1.01395947979003e+004,-1.26464981599167e+000,-2.17932462933214e-002

1.02811382665607e+004,-1.26464993158022e+000,-2.20974587398040e-002

1.04246576084112e+004,-1.26465005041719e+000,-2.24059174127181e-002

1.05701804056138e+004,-1.26465017259408e+000,-2.27186815675359e-002

1.07177346253629e+004,-1.26465029820447e+000,-2.30358112897568e-002

1.08673486252606e+004,-1.26465042734486e+000,-2.33573675005981e-002

1.10190511587661e+004,-1.26465056011443e+000,-2.36834119715169e-002

1.11728713807222e+004,-1.26465069661531e+000,-2.40140073334076e-002

1.13288388529580e+004,-1.26465083695247e+000,-2.43492170916118e-002

1.14869835499703e+004,-1.26465098123290e+000,-2.46891056427596e-002

1.16473358646846e+004,-1.26465112956840e+000,-2.50337382696611e-002

1.18099266142953e+004,-1.26465128207197e+000,-2.53831811782470e-002

1.19747870461893e+004,-1.26465143886115e+000,-2.57375014881608e-002

1.21419488439505e+004,-1.26465160005622e+000,-2.60967672591566e-002

1.23114441334492e+004,-1.26465176578121e+000,-2.64610474970346e-002

1.24833054890161e+004,-1.26465193616266e+000,-2.68304121763169e-002

1.26575659397028e+004,-1.26465211133190e+000,-2.72049322385868e-002

1.28342589756290e+004,-1.26465229142345e+000,-2.75846796180939e-002

1.30134185544193e+004,-1.26465247657539e+000,-2.79697272534385e-002

1.31950791077289e+004,-1.26465266692946e+000,-2.83601491003225e-002

1.33792755478611e+004,-1.26465286263242e+000,-2.87560201399338e-002

1.35660432744767e+004,-1.26465306383393e+000,-2.91574164055955e-002

1.37554181813974e+004,-1.26465327068877e+000,-2.95644149848674e-002

1.39474366635040e+004,-1.26465348335570e+000,-2.99770940416957e-002

1.41421356237309e+004,-1.26465370199737e+000,-3.03955328334311e-002

1.43395524801583e+004,-1.26465392678212e+000,-3.08198117148135e-002

1.45397251732031e+004,-1.26465415788234e+000,-3.12500121638470e-002

1.47426921729110e+004,-1.26465439547504e+000,-3.16862167964830e-002

1.49484924863494e+004,-1.26465463974294e+000,-3.21285093745647e-002

1.51571656651040e+004,-1.26465489087296e+000,-3.25769748326716e-002

1.53687518128801e+004,-1.26465514905793e+000,-3.30316992846438e-002

1.55832915932100e+004,-1.26465541449604e+000,-3.34927700452666e-002

1.58008262372675e+004,-1.26465568739078e+000,-3.39602756458886e-002

1.60213975517924e+004,-1.26465596795147e+000,-3.44343058516444e-002

1.62450479271247e+004,-1.26465625639298e+000,-3.49149516793891e-002

1.64718203453514e+004,-1.26465655293706e+000,-3.54023054083774e-002

1.67017583885674e+004,-1.26465685781064e+000,-3.58964606103996e-002

1.69349062472505e+004,-1.26465717124793e+000,-3.63975121533369e-002

1.71713087287550e+004,-1.26465749348868e+000,-3.69055562341771e-002

1.74110112659224e+004,-1.26465782478033e+000,-3.74206903822448e-002

1.76540599258131e+004,-1.26465816537665e+000,-3.79430134892557e-002

1.79005014185594e+004,-1.26465851553903e+000,-3.84726258206606e-002

1.81503831063432e+004,-1.26465887553540e+000,-3.90096290425212e-002

1.84037530124975e+004,-1.26465924564182e+000,-3.95541262322988e-002

1.86606598307361e+004,-1.26465962614226e+000,-4.01062219015860e-002

1.89211529345119e+004,-1.26466001732783e+000,-4.06660220213734e-002

1.91852823865052e+004,-1.26466041949838e+000,-4.12336340342955e-002

1.94530989482457e+004,-1.26466083296199e+000,-4.18091668792158e-002

1.97246540898671e+004,-1.26466125803548e+000,-4.23927310099037e-002

1.99999999999999e+004,-1.26466169504423e+000,-4.29844384195043e-002

2.02791895958005e+004,-1.26466214432347e+000,-4.35844026543224e-002

2.05622765331213e+004,-1.26466260621642e+000,-4.41927388491555e-002

2.08493152168224e+004,-1.26466308107757e+000,-4.48095637301979e-002

2.11403608112276e+004,-1.26466356926999e+000,-4.54349956548676e-002

2.14354692507258e+004,-1.26466407116752e+000,-4.60691546242736e-002

2.17346972505211e+004,-1.26466458715457e+000,-4.67121623060887e-002

2.20381023175322e+004,-1.26466511762554e+000,-4.73641420654832e-002

2.23457427614443e+004,-1.26466566298695e+000,-4.80252189758764e-002

2.26576777059159e+004,-1.26466622365571e+000,-4.86955198552284e-002

2.29739670999406e+004,-1.26466680006077e+000,-4.93751732821198e-002

2.32946717293690e+004,-1.26466739264318e+000,-5.00643096215759e-002

2.36198532285905e+004,-1.26466800185635e+000,-5.07630610500451e-002

2.39495740923785e+004,-1.26466862816590e+000,-5.14715615832679e-002

2.42838976879009e+004,-1.26466927205052e+000,-5.21899470987955e-002

2.46228882668982e+004,-1.26466993400298e+000,-5.29183553569592e-002

2.49666109780322e+004,-1.26467061452907e+000,-5.36569260369133e-002

2.53151318794055e+004,-1.26467131414867e+000,-5.44058007568030e-002

2.56685179512580e+004,-1.26467203339655e+000,-5.51651230996196e-002

2.60268371088386e+004,-1.26467277282231e+000,-5.59350386419848e-002

2.63901582154578e+004,-1.26467353299056e+000,-5.67156949838152e-002

2.67585510957221e+004,-1.26467431448216e+000,-5.75072417699845e-002

2.71320865489533e+004,-1.26467511789349e+000,-5.83098307268526e-002

2.75108363627948e+004,-1.26467594383822e+000,-5.91236156810487e-002

2.78948733270080e+004,-1.26467679294664e+000,-5.99487525970526e-002

2.82842712474618e+004,-1.26467766586664e+000,-6.07853996014582e-002

2.86791049603164e+004,-1.26467856326452e+000,-6.16337170122376e-002

2.90794503464061e+004,-1.26467948582451e+000,-6.24938673738774e-002

2.94853843458219e+004,-1.26468043425053e+000,-6.33660154795666e-002

2.98969849726987e+004,-1.26468140926553e+000,-6.42503284108952e-002

3.03143313302078e+004,-1.26468241161290e+000,-6.51469755620101e-002

3.07375036257601e+004,-1.26468344205644e+000,-6.60561286759084e-002

3.11665831864199e+004,-1.26468450138130e+000,-6.69779618735035e-002

3.16016524745350e+004,-1.26468559039447e+000,-6.79126516869612e-002

3.20427951035848e+004,-1.26468670992532e+000,-6.88603770927969e-002

3.24900958542493e+004,-1.26468786082613e+000,-6.98213195457304e-002

3.29436406907028e+004,-1.26468904397277e+000,-7.07956630123788e-002

3.34035167771346e+004,-1.26469026026595e+000,-7.17835940005520e-002

3.38698124945009e+004,-1.26469151063053e+000,-7.27853016040451e-002

3.43426174575100e+004,-1.26469279601750e+000,-7.38009775275646e-002

3.48220225318448e+004,-1.26469411740399e+000,-7.48308161278910e-002

3.53081198516260e+004,-1.26469547579449e+000,-7.58750144466480e-002

3.58010028371187e+004,-1.26469687222083e+000,-7.69337722503358e-002

3.63007662126863e+004,-1.26469830774379e+000,-7.80072920629811e-002

3.68075060249948e+004,-1.26469978345306e+000,-7.90957792079832e-002

3.73213196614721e+004,-1.26470130046903e+000,-8.01994418395985e-002

3.78423058690237e+004,-1.26470285994227e+000,-8.13184909901193e-002

3.83705647730104e+004,-1.26470446305583e+000,-8.24531405983009e-002

3.89061978964912e+004,-1.26470611102518e+000,-8.36036075560421e-002

3.94493081797342e+004,-1.26470780509886e+000,-8.47701117481280e-002

3.99999999999998e+004,-1.26470954656050e+000,-8.59528760858092e-002

4.05583791916010e+004,-1.26471133672865e+000,-8.71521265547504e-002

4.11245530662425e+004,-1.26471317695827e+000,-8.83680922524020e-002

4.16986304336447e+004,-1.26471506864167e+000,-8.96010054299971e-002

4.22807216224550e+004,-1.26471701320937e+000,-9.08511015361313e-002

4.28709385014515e+004,-1.26471901213123e+000,-9.21186192581628e-002

4.34693945010421e+004,-1.26472106691752e+000,-9.34038005659183e-002

4.40762046350642e+004,-1.26472317911995e+000,-9.47068907553582e-002

4.46914855228886e+004,-1.26472535033255e+000,-9.60281384940029e-002

4.53153554118317e+004,-1.26472758219336e+000,-9.73677958637364e-002

4.59479341998812e+004,-1.26472987638493e+000,-9.87261184086248e-002

4.65893434587380e+004,-1.26473223463647e+000,-1.00103365175291e-001

4.72397064571810e+004,-1.26473465872381e+000,-1.01499798768119e-001

4.78991481847569e+004,-1.26473715047146e+000,-1.02915685389595e-001

4.85677953758016e+004,-1.26473971175391e+000,-1.04351294889872e-001

4.92457765337964e+004,-1.26474234449676e+000,-1.05806900813605e-001

4.99332219560642e+004,-1.26474505067803e+000,-1.07282780450685e-001

5.06302637588109e+004,-1.26474783232946e+000,-1.08779214885328e-001

5.13370359025159e+004,-1.26475069153815e+000,-1.10296489043861e-001

5.20536742176771e+004,-1.26475363044837e+000,-1.11834891743722e-001

5.27803164309155e+004,-1.26475665126175e+000,-1.13394715751726e-001

5.35171021914442e+004,-1.26475975624029e+000,-1.14976257826454e-001

5.42641730979066e+004,-1.26476294770693e+000,-1.16579818776735e-001

5.50216727255895e+004,-1.26476622804786e+000,-1.18205703509020e-001

5.57897466540159e+004,-1.26476959971330e+000,-1.19854221086601e-001

5.65685424949235e+004,-1.26477306522000e+000,-1.21525684777892e-001

5.73582099206328e+004,-1.26477662715258e+000,-1.23220412113287e-001

5.81589006928121e+004,-1.26478028816512e+000,-1.24938724940085e-001

5.89707686916437e+004,-1.26478405098316e+000,-1.26680949478115e-001

5.97939699453972e+004,-1.26478791840569e+000,-1.28447416373714e-001

6.06286626604156e+004,-1.26479189330657e+000,-1.30238460759777e-001

6.14750072515201e+004,-1.26479597863668e+000,-1.32054422310948e-001

6.23331663728396e+004,-1.26480017742624e+000,-1.33895645300232e-001

6.32033049490698e+004,-1.26480449278607e+000,-1.35762478660447e-001

6.40855902071694e+004,-1.26480892791038e+000,-1.37655276040305e-001

6.49801917084985e+004,-1.26481348607809e+000,-1.39574395866993e-001

6.58872813814055e+004,-1.26481817065557e+000,-1.41520201404401e-001

6.68070335542691e+004,-1.26482298509889e+000,-1.43493060811800e-001

6.77396249890018e+004,-1.26482793295537e+000,-1.45493347210484e-001

6.86852349150199e+004,-1.26483301786625e+000,-1.47521438742373e-001

6.96440450636895e+004,-1.26483824356941e+000,-1.49577718630927e-001

7.06162397032520e+004,-1.26484361390095e+000,-1.51662575248080e-001

7.16020056742374e+004,-1.26484913279818e+000,-1.53776402174944e-001

7.26015324253724e+004,-1.26485480430187e+000,-1.55919598267258e-001

7.36150120499896e+004,-1.26486063255864e+000,-1.58092567720363e-001

7.46426393229441e+004,-1.26486662182383e+000,-1.60295720133762e-001

7.56846117380472e+004,-1.26487277646395e+000,-1.62529470576497e-001

7.67411295460207e+004,-1.26487910095925e+000,-1.64794239655421e-001

7.78123957929823e+004,-1.26488559990638e+000,-1.67090453581444e-001

7.88986163594682e+004,-1.26489227802141e+000,-1.69418544236222e-001

7.99999999999995e+004,-1.26489914014263e+000,-1.71778949239562e-001

8.11167583832018e+004,-1.26490619123275e+000,-1.74172112022654e-001

8.22491061324848e+004,-1.26491343638285e+000,-1.76598481890133e-001

8.33972608672892e+004,-1.26492088081452e+000,-1.79058514095599e-001

8.45614432449099e+004,-1.26492852988337e+000,-1.81552669907054e-001

8.57418770029029e+004,-1.26493638908144e+000,-1.84081416683113e-001

8.69387890020841e+004,-1.26494446404103e+000,-1.86645227938355e-001

8.81524092701283e+004,-1.26495276053740e+000,-1.89244583418488e-001

8.93829710457770e+004,-1.26496128449185e+000,-1.91879969172489e-001

9.06307108236633e+004,-1.26497004197547e+000,-1.94551877621560e-001

9.18958683997622e+004,-1.26497903921213e+000,-1.97260807635426e-001

9.31786869174758e+004,-1.26498828258123e+000,-2.00007264607041e-001

9.44794129143618e+004,-1.26499777862233e+000,-2.02791760520497e-001

9.57982963695136e+004,-1.26500753403735e+000,-2.05614814031036e-001

9.71355907516031e+004,-1.26501755569454e+000,-2.08476950537767e-001

9.84915530675926e+004,-1.26502785063194e+000,-2.11378702257467e-001

9.98664439121282e+004,-1.26503842606100e+000,-2.14320608300463e-001

1.01260527517622e+005,-1.26504928936951e+000,-2.17303214748822e-001

1.02674071805032e+005,-1.26506044812612e+000,-2.20327074727509e-001

1.04107348435354e+005,-1.26507191008317e+000,-2.23392748485334e-001

1.05560632861831e+005,-1.26508368318058e+000,-2.26500803469213e-001

1.07034204382888e+005,-1.26509577554950e+000,-2.29651814402159e-001

1.08528346195813e+005,-1.26510819551596e+000,-2.32846363359497e-001

1.10043345451179e+005,-1.26512095160462e+000,-2.36085039846319e-001

1.11579493308032e+005,-1.26513405254219e+000,-2.39368440877529e-001

1.13137084989847e+005,-1.26514750726161e+000,-2.42697171050934e-001

1.14716419841265e+005,-1.26516132490505e+000,-2.46071842631584e-001

1.16317801385624e+005,-1.26517551482828e+000,-2.49493075624301e-001

1.17941537383287e+005,-1.26519008660392e+000,-2.52961497855779e-001

1.19587939890794e+005,-1.26520505002538e+000,-2.56477745051053e-001

1.21257325320831e+005,-1.26522041511013e+000,-2.60042460914078e-001

1.22950014503040e+005,-1.26523619210395e+000,-2.63656297203684e-001

1.24666332745679e+005,-1.26525239148357e+000,-2.67319913817102e-001

1.26406609898139e+005,-1.26526902396120e+000,-2.71033978863622e-001

1.28171180414339e+005,-1.26528610048757e+000,-2.74799168745983e-001

1.29960383416997e+005,-1.26530363225515e+000,-2.78616168240959e-001

1.31774562762811e+005,-1.26532163070201e+000,-2.82485670575249e-001

1.33614067108538e+005,-1.26534010751490e+000,-2.86408377505659e-001

1.35479249978003e+005,-1.26535907463218e+000,-2.90384999400249e-001

1.37370469830040e+005,-1.26537854424748e+000,-2.94416255313500e-001

1.39288090127379e+005,-1.26539852881257e+000,-2.98502873066901e-001

1.41232479406504e+005,-1.26541904104004e+000,-3.02645589327906e-001

1.43204011348474e+005,-1.26544009390605e+000,-3.06845149689823e-001

1.45203064850745e+005,-1.26546170065345e+000,-3.11102308747277e-001

1.47230024099979e+005,-1.26548387479385e+000,-3.15417830176941e-001

1.49285278645888e+005,-1.26550663010987e+000,-3.19792486816384e-001

1.51369223476094e+005,-1.26552998065787e+000,-3.24227060739583e-001

1.53482259092041e+005,-1.26555394076924e+000,-3.28722343337987e-001

1.55624791585964e+005,-1.26557852505242e+000,-3.33279135397327e-001

1.57797232718936e+005,-1.26560374839450e+000,-3.37898247175373e-001

1.59999999999999e+005,-1.26562962596238e+000,-3.42580498479919e-001

1.62233516766403e+005,-1.26565617320371e+000,-3.47326718746795e-001

1.64498212264969e+005,-1.26568340584776e+000,-3.52137747116574e-001

1.66794521734578e+005,-1.26571133990590e+000,-3.57014432512845e-001

1.69122886489819e+005,-1.26573999167135e+000,-3.61957633720513e-001

1.71483754005805e+005,-1.26576937771954e+000,-3.66968219460336e-001

1.73877578004168e+005,-1.26579951490683e+000,-3.72047068470767e-001

1.76304818540256e+005,-1.26583042037008e+000,-3.77195069581528e-001

1.78765942091554e+005,-1.26586211152514e+000,-3.82413121793105e-001

1.81261421647326e+005,-1.26589460606463e+000,-3.87702134355774e-001

1.83791736799524e+005,-1.26592792195639e+000,-3.93063026844017e-001

1.86357373834951e+005,-1.26596207744021e+000,-3.98496729238125e-001

1.88958825828723e+005,-1.26599709102450e+000,-4.04004182002118e-001

1.91596592739027e+005,-1.26603298148304e+000,-4.09586336161169e-001

1.94271181503206e+005,-1.26606976784994e+000,-4.15244153383918e-001

1.96983106135185e+005,-1.26610746941548e+000,-4.20978606058890e-001

1.99732887824256e+005,-1.26614610571974e+000,-4.26790677379682e-001

2.02521055035243e+005,-1.26618569654702e+000,-4.32681361423570e-001

2.05348143610063e+005,-1.26622626191871e+000,-4.38651663235570e-001

2.08214696870707e+005,-1.26626782208559e+000,-4.44702598912912e-001

2.11121265723661e+005,-1.26631039751995e+000,-4.50835195687457e-001

2.14068408765776e+005,-1.26635400890592e+000,-4.57050492016683e-001

2.17056692391625e+005,-1.26639867713006e+000,-4.63349537668047e-001

2.20086690902357e+005,-1.26644442327055e+000,-4.69733393810130e-001

2.23158986616063e+005,-1.26649126858532e+000,-4.76203133106864e-001

2.26274169979693e+005,-1.26653923450006e+000,-4.82759839809129e-001

2.29432839682530e+005,-1.26658834259454e+000,-4.89404609852573e-001

2.32635602771247e+005,-1.26663861458842e+000,-4.96138550957687e-001

2.35883074766574e+005,-1.26669007232583e+000,-5.02962782732624e-001

2.39175879781588e+005,-1.26674273775901e+000,-5.09878436779271e-001

2.42514650641661e+005,-1.26679663293119e+000,-5.16886656802019e-001

2.45900029006080e+005,-1.26685177995806e+000,-5.23988598721885e-001

2.49332665491357e+005,-1.26690820100807e+000,-5.31185430795179e-001

2.52813219796278e+005,-1.26696591828185e+000,-5.38478333736381e-001

2.56342360828676e+005,-1.26702495399075e+000,-5.45868500843543e-001

2.59920766833993e+005,-1.26708533033331e+000,-5.53357138135225e-001

2.63549125525621e+005,-1.26714706947153e+000,-5.60945464487034e-001

2.67228134217075e+005,-1.26721019350549e+000,-5.68634711777500e-001

2.70958499956006e+005,-1.26727472444640e+000,-5.76426125041833e-001

2.74740939660078e+005,-1.26734068418932e+000,-5.84320962629573e-001

2.78576180254757e+005,-1.26740809448357e+000,-5.92320496373712e-001

2.82464958813007e+005,-1.26747697690261e+000,-6.00426011766180e-001

2.86408022696948e+005,-1.26754735281271e+000,-6.08638808140877e-001

2.90406129701488e+005,-1.26761924333927e+000,-6.16960198871194e-001

2.94460048199957e+005,-1.26769266933374e+000,-6.25391511570069e-001

2.98570557291775e+005,-1.26776765133737e+000,-6.33934088307366e-001

3.02738446952187e+005,-1.26784420954490e+000,-6.42589285835642e-001

3.06964518184081e+005,-1.26792236376675e+000,-6.51358475826183e-001

3.11249583171928e+005,-1.26800213338967e+000,-6.60243045121322e-001

3.15594465437872e+005,-1.26808353733670e+000,-6.69244395996199e-001

3.19999999999997e+005,-1.26816659402553e+000,-6.78363946437009e-001

3.24467033532806e+005,-1.26825132132611e+000,-6.87603130431201e-001

3.28996424529938e+005,-1.26833773651682e+000,-6.96963398275507e-001

3.33589043469155e+005,-1.26842585623995e+000,-7.06446216897206e-001

3.38245772979638e+005,-1.26851569645594e+000,-7.16053070194079e-001

3.42967508011610e+005,-1.26860727239674e+000,-7.25785459390247e-001

3.47755156008335e+005,-1.26870059851874e+000,-7.35644903408635e-001

3.52609637080511e+005,-1.26879568845414e+000,-7.45632939265552e-001

3.57531884183106e+005,-1.26889255496242e+000,-7.55751122480403e-001

3.62522843294651e+005,-1.26899120988071e+000,-7.66001027507825e-001

3.67583473599047e+005,-1.26909166407405e+000,-7.76384248188558e-001

3.72714747669902e+005,-1.26919392738474e+000,-7.86902398222889e-001

3.77917651657445e+005,-1.26929800858187e+000,-7.97557111665062e-001

3.83193185478053e+005,-1.26940391531077e+000,-8.08350043438007e-001

3.88542363006410e+005,-1.26951165404185e+000,-8.19282869874047e-001

3.93966212270369e+005,-1.26962123002008e+000,-8.30357289276797e-001

3.99465775648511e+005,-1.26973264721483e+000,-8.41575022504315e-001

4.05042110070485e+005,-1.26984590826914e+000,-8.52937813583754e-001

4.10696287220124e+005,-1.26996101445113e+000,-8.64447430339421e-001

4.16429393741414e+005,-1.27007796560450e+000,-8.76105665055736e-001

4.22242531447321e+005,-1.27019676010119e+000,-8.87914335157938e-001

4.28136817531551e+005,-1.27031739479428e+000,-8.99875283921213e-001

4.34113384783250e+005,-1.27043986497265e+000,-9.11990381203838e-001

4.40173381804713e+005,-1.27056416431682e+000,-9.24261524204931e-001

4.46317973232124e+005,-1.27069028485618e+000,-9.36690638249320e-001

4.52548339959385e+005,-1.27081821692872e+000,-9.49279677594005e-001

4.58865679365059e+005,-1.27094794914211e+000,-9.62030626261388e-001

4.65271205542494e+005,-1.27107946833725e+000,-9.74945498896907e-001

4.71766149533147e+005,-1.27121275955396e+000,-9.88026341651233e-001

4.78351759563174e+005,-1.27134780599977e+000,-1.00127523308223e+000

4.85029301283321e+005,-1.27148458902083e+000,-1.01469428508564e+000

4.91800058012158e+005,-1.27162308807631e+000,-1.02828564384266e+000

4.98665330982714e+005,-1.27176328071551e+000,-1.04205149079272e+000

5.05626439592555e+005,-1.27190514255878e+000,-1.05599404362451e+000

5.12684721657352e+005,-1.27204864728137e+000,-1.07011555728857e+000

5.19841533667984e+005,-1.27219376660144e+000,-1.08441832502690e+000

5.27098251051240e+005,-1.27234047027158e+000,-1.09890467942095e+000

5.34456268434150e+005,-1.27248872607437e+000,-1.11357699345609e+000

5.41916999912011e+005,-1.27263849982229e+000,-1.12843768160007e+000

