Freq.,VOut,OutRef

1.00000000000000e+004,-2.14566615075263e+001,-2.76693699013672e-001

1.01395947979003e+004,-2.14566626796812e+001,-2.80556161937773e-001

1.02811382665607e+004,-2.14566638847867e+001,-2.84472541256957e-001

1.04246576084112e+004,-2.14566651237690e+001,-2.88443589548071e-001

1.05701804056138e+004,-2.14566663975802e+001,-2.92470069892887e-001

1.07177346253629e+004,-2.14566677071993e+001,-2.96552756020576e-001

1.08673486252606e+004,-2.14566690536330e+001,-3.00692432458200e-001

1.10190511587661e+004,-2.14566704379158e+001,-3.04889894682932e-001

1.11728713807222e+004,-2.14566718611116e+001,-3.09145949270978e-001

1.13288388529580e+004,-2.14566733243142e+001,-3.13461414055448e-001

1.14869835499703e+004,-2.14566748286481e+001,-3.17837118281795e-001

1.16473358646846e+004,-2.14566763752694e+001,-3.22273902767959e-001

1.18099266142953e+004,-2.14566779653665e+001,-3.26772620065511e-001

1.19747870461893e+004,-2.14566796001614e+001,-3.31334134623413e-001

1.21419488439505e+004,-2.14566812809106e+001,-3.35959322950922e-001

1.23114441334492e+004,-2.14566830089054e+001,-3.40649073792421e-001

1.24833054890161e+004,-2.14566847854739e+001,-3.45404288290712e-001

1.26575659397028e+004,-2.14566866119812e+001,-3.50225880165119e-001

1.28342589756290e+004,-2.14566884898310e+001,-3.55114775883660e-001

1.30134185544193e+004,-2.14566904204660e+001,-3.60071914843694e-001

1.31950791077289e+004,-2.14566924053700e+001,-3.65098249548307e-001

1.33792755478611e+004,-2.14566944460681e+001,-3.70194745793007e-001

1.35660432744767e+004,-2.14566965441283e+001,-3.75362382849186e-001

1.37554181813974e+004,-2.14566987011628e+001,-3.80602153651944e-001

1.39474366635040e+004,-2.14567009188291e+001,-3.85915064989327e-001

1.41421356237309e+004,-2.14567031988311e+001,-3.91302137698157e-001

1.43395524801583e+004,-2.14567055429205e+001,-3.96764406859470e-001

1.45397251732031e+004,-2.14567079528986e+001,-4.02302921993716e-001

1.47426921729110e+004,-2.14567104306169e+001,-4.07918747266107e-001

1.49484924863494e+004,-2.14567129779792e+001,-4.13612961688171e-001

1.51571656651040e+004,-2.14567155969424e+001,-4.19386659326360e-001

1.53687518128801e+004,-2.14567182895190e+001,-4.25240949509808e-001

1.55832915932100e+004,-2.14567210577772e+001,-4.31176957046050e-001

1.58008262372675e+004,-2.14567239038441e+001,-4.37195822432389e-001

1.60213975517924e+004,-2.14567268299061e+001,-4.43298702078575e-001

1.62450479271247e+004,-2.14567298382110e+001,-4.49486768527438e-001

1.64718203453514e+004,-2.14567329310699e+001,-4.55761210677596e-001

1.67017583885674e+004,-2.14567361108587e+001,-4.62123234013923e-001

1.69349062472505e+004,-2.14567393800202e+001,-4.68574060836796e-001

1.71713087287550e+004,-2.14567427410654e+001,-4.75114930498350e-001

1.74110112659224e+004,-2.14567461965764e+001,-4.81747099637317e-001

1.76540599258131e+004,-2.14567497492073e+001,-4.88471842422056e-001

1.79005014185594e+004,-2.14567534016871e+001,-4.95290450793882e-001

1.81503831063432e+004,-2.14567571568211e+001,-5.02204234714105e-001

1.84037530124975e+004,-2.14567610174937e+001,-5.09214522415371e-001

1.86606598307361e+004,-2.14567649866699e+001,-5.16322660657671e-001

1.89211529345119e+004,-2.14567690673985e+001,-5.23530014982314e-001

1.91852823865052e+004,-2.14567732628133e+001,-5.30837969977672e-001

1.94530989482457e+004,-2.14567775761365e+001,-5.38247929542798e-001

1.97246540898671e+004,-2.14567820106807e+001,-5.45761317153956e-001

1.99999999999999e+004,-2.14567865698513e+001,-5.53379576141337e-001

2.02791895958005e+004,-2.14567912571495e+001,-5.61104169962298e-001

2.05622765331213e+004,-2.14567960761747e+001,-5.68936582482371e-001

2.08493152168224e+004,-2.14568010306273e+001,-5.76878318259968e-001

2.11403608112276e+004,-2.14568061243118e+001,-5.84930902832793e-001

2.14354692507258e+004,-2.14568113611390e+001,-5.93095883011904e-001

2.17346972505211e+004,-2.14568167451300e+001,-6.01374827174178e-001

2.20381023175322e+004,-2.14568222804185e+001,-6.09769325566939e-001

2.23457427614443e+004,-2.14568279712541e+001,-6.18280990608768e-001

2.26576777059159e+004,-2.14568338220059e+001,-6.26911457198095e-001

2.29739670999406e+004,-2.14568398371655e+001,-6.35662383027808e-001

2.32946717293690e+004,-2.14568460213504e+001,-6.44535448900832e-001

2.36198532285905e+004,-2.14568523793079e+001,-6.53532359051181e-001

2.39495740923785e+004,-2.14568589159183e+001,-6.62654841470775e-001

2.42838976879009e+004,-2.14568656361989e+001,-6.71904648237579e-001

2.46228882668982e+004,-2.14568725453077e+001,-6.81283555853876e-001

2.49666109780322e+004,-2.14568796485476e+001,-6.90793365582536e-001

2.53151318794055e+004,-2.14568869513699e+001,-7.00435903792556e-001

2.56685179512580e+004,-2.14568944593789e+001,-7.10213022308035e-001

2.60268371088386e+004,-2.14569021783364e+001,-7.20126598759850e-001

2.63901582154578e+004,-2.14569101141654e+001,-7.30178536947659e-001

2.67585510957221e+004,-2.14569182729551e+001,-7.40370767199901e-001

2.71320865489533e+004,-2.14569266609656e+001,-7.50705246744187e-001

2.75108363627948e+004,-2.14569352846323e+001,-7.61183960079780e-001

2.78948733270080e+004,-2.14569441505712e+001,-7.71808919357047e-001

2.82842712474618e+004,-2.14569532655836e+001,-7.82582164761231e-001

2.86791049603164e+004,-2.14569626366617e+001,-7.93505764899492e-001

2.90794503464061e+004,-2.14569722709935e+001,-8.04581817198207e-001

2.94853843458219e+004,-2.14569821759684e+001,-8.15812448301545e-001

2.98969849726987e+004,-2.14569923591832e+001,-8.27199814475911e-001

3.03143313302078e+004,-2.14570028284471e+001,-8.38746102022028e-001

3.07375036257601e+004,-2.14570135917887e+001,-8.50453527690918e-001

3.11665831864199e+004,-2.14570246574608e+001,-8.62324339106382e-001

3.16016524745350e+004,-2.14570360339483e+001,-8.74360815190937e-001

3.20427951035848e+004,-2.14570477299730e+001,-8.86565266603102e-001

3.24900958542493e+004,-2.14570597545014e+001,-8.98940036174375e-001

3.29436406907028e+004,-2.14570721167509e+001,-9.11487499355816e-001

3.34035167771346e+004,-2.14570848261972e+001,-9.24210064669586e-001

3.38698124945009e+004,-2.14570978925813e+001,-9.37110174166770e-001

3.43426174575100e+004,-2.14571113259167e+001,-9.50190303892359e-001

3.48220225318448e+004,-2.14571251364974e+001,-9.63452964354759e-001

3.53081198516260e+004,-2.14571393349056e+001,-9.76900701002581e-001

3.58010028371187e+004,-2.14571539320194e+001,-9.90536094709137e-001

3.63007662126863e+004,-2.14571689390216e+001,-1.00436176226104e+000

3.68075060249948e+004,-2.14571843674076e+001,-1.01838035685544e+000

3.73213196614721e+004,-2.14572002289946e+001,-1.03259456860381e+000

3.78423058690237e+004,-2.14572165359303e+001,-1.04700712504039e+000

3.83705647730104e+004,-2.14572333007020e+001,-1.06162079164071e+000

3.89061978964912e+004,-2.14572505361465e+001,-1.07643837234552e+000

3.94493081797342e+004,-2.14572682554592e+001,-1.09146271009053e+000

3.99999999999998e+004,-2.14572864722046e+001,-1.10669668734630e+000

4.05583791916010e+004,-2.14573052003261e+001,-1.12214322666289e+000

4.11245530662425e+004,-2.14573244541570e+001,-1.13780529122266e+000

4.16986304336447e+004,-2.14573442484311e+001,-1.15368588540022e+000

4.22807216224550e+004,-2.14573645982936e+001,-1.16978805533191e+000

4.28709385014515e+004,-2.14573855193129e+001,-1.18611488948963e+000

4.34693945010421e+004,-2.14574070274922e+001,-1.20266951926396e+000

4.40762046350642e+004,-2.14574291392813e+001,-1.21945511955677e+000

4.46914855228886e+004,-2.14574518715896e+001,-1.23647490937770e+000

4.53153554118317e+004,-2.14574752417981e+001,-1.25373215245401e+000

4.59479341998812e+004,-2.14574992677731e+001,-1.27123015784257e+000

4.65893434587380e+004,-2.14575239678792e+001,-1.28897228055508e+000

4.72397064571810e+004,-2.14575493609932e+001,-1.30696192218955e+000

4.78991481847569e+004,-2.14575754665185e+001,-1.32520253156885e+000

4.85677953758016e+004,-2.14576023043994e+001,-1.34369760539080e+000

4.92457765337964e+004,-2.14576298951361e+001,-1.36245068888379e+000

4.99332219560642e+004,-2.14576582598001e+001,-1.38146537647377e+000

5.06302637588109e+004,-2.14576874200502e+001,-1.40074531245739e+000

5.13370359025159e+004,-2.14577173981481e+001,-1.42029419168745e+000

5.20536742176771e+004,-2.14577482169758e+001,-1.44011576026294e+000

5.27803164309155e+004,-2.14577799000522e+001,-1.46021381623287e+000

5.35171021914442e+004,-2.14578124715506e+001,-1.48059221030606e+000

5.42641730979066e+004,-2.14578459563172e+001,-1.50125484657114e+000

5.50216727255895e+004,-2.14578803798891e+001,-1.52220568322656e+000

5.57897466540159e+004,-2.14579157685136e+001,-1.54344873331983e+000

5.65685424949235e+004,-2.14579521491680e+001,-1.56498806549558e+000

5.73582099206328e+004,-2.14579895495787e+001,-1.58682780475595e+000

5.81589006928121e+004,-2.14580279982429e+001,-1.60897213322676e+000

5.89707686916437e+004,-2.14580675244491e+001,-1.63142529093723e+000

5.97939699453972e+004,-2.14581081582990e+001,-1.65419157660880e+000

6.06286626604156e+004,-2.14581499307296e+001,-1.67727534845262e+000

6.14750072515201e+004,-2.14581928735363e+001,-1.70068102498035e+000

6.23331663728396e+004,-2.14582370193966e+001,-1.72441308582136e+000

6.32033049490698e+004,-2.14582824018935e+001,-1.74847607255538e+000

6.40855902071694e+004,-2.14583290555410e+001,-1.77287458955117e+000

6.49801917084985e+004,-2.14583770158091e+001,-1.79761330481813e+000

6.58872813814055e+004,-2.14584263191498e+001,-1.82269695087041e+000

6.68070335542691e+004,-2.14584770030246e+001,-1.84813032559719e+000

6.77396249890018e+004,-2.14585291059309e+001,-1.87391829315031e+000

6.86852349150199e+004,-2.14585826674310e+001,-1.90006578483705e+000

6.96440450636895e+004,-2.14586377281808e+001,-1.92657780002903e+000

7.06162397032520e+004,-2.14586943299596e+001,-1.95345940707919e+000

7.16020056742374e+004,-2.14587525157003e+001,-1.98071574425268e+000

7.26015324253724e+004,-2.14588123295211e+001,-2.00835202066783e+000

7.36150120499896e+004,-2.14588738167573e+001,-2.03637351725019e+000

7.46426393229441e+004,-2.14589370239943e+001,-2.06478558769651e+000

7.56846117380472e+004,-2.14590019991014e+001,-2.09359365945300e+000

7.67411295460207e+004,-2.14590687912666e+001,-2.12280323470415e+000

7.78123957929823e+004,-2.14591374510319e+001,-2.15241989137521e+000

7.88986163594682e+004,-2.14592080303301e+001,-2.18244928414411e+000

7.99999999999995e+004,-2.14592805825218e+001,-2.21289714547033e+000

8.11167583832018e+004,-2.14593551624345e+001,-2.24376928663132e+000

8.22491061324848e+004,-2.14594318264009e+001,-2.27507159877591e+000

8.33972608672892e+004,-2.14595106323004e+001,-2.30681005398740e+000

8.45614432449099e+004,-2.14595916395997e+001,-2.33899070636204e+000

8.57418770029029e+004,-2.14596749093956e+001,-2.37161969309737e+000

8.69387890020841e+004,-2.14597605044584e+001,-2.40470323559761e+000

8.81524092701283e+004,-2.14598484892766e+001,-2.43824764058853e+000

8.93829710457770e+004,-2.14599389301030e+001,-2.47225930124760e+000

9.06307108236633e+004,-2.14600318950006e+001,-2.50674469834844e+000

9.18958683997622e+004,-2.14601274538918e+001,-2.54171040141545e+000

9.31786869174758e+004,-2.14602256786071e+001,-2.57716306989581e+000

9.44794129143618e+004,-2.14603266429358e+001,-2.61310945434282e+000

9.57982963695136e+004,-2.14604304226774e+001,-2.64955639761402e+000

9.71355907516031e+004,-2.14605370956951e+001,-2.68651083608321e+000

9.84915530675926e+004,-2.14606467419701e+001,-2.72397980086517e+000

9.98664439121282e+004,-2.14607594436567e+001,-2.76197041905749e+000

1.01260527517622e+005,-2.14608752851403e+001,-2.80048991499272e+000

1.02674071805032e+005,-2.14609943530948e+001,-2.83954561150822e+000

1.04107348435354e+005,-2.14611167365433e+001,-2.87914493122849e+000

1.05560632861831e+005,-2.14612425269189e+001,-2.91929539786217e+000

1.07034204382888e+005,-2.14613718181275e+001,-2.96000463751510e+000

1.08528346195813e+005,-2.14615047066125e+001,-3.00128038001513e+000

1.10043345451179e+005,-2.14616412914198e+001,-3.04313046025502e+000

1.11579493308032e+005,-2.14617816742660e+001,-3.08556281954792e+000

1.13137084989847e+005,-2.14619259596069e+001,-3.12858550699873e+000

1.14716419841265e+005,-2.14620742547083e+001,-3.17220668088920e+000

1.16317801385624e+005,-2.14622266697178e+001,-3.21643461008071e+000

1.17941537383287e+005,-2.14623833177395e+001,-3.26127767542931e+000

1.19587939890794e+005,-2.14625443149087e+001,-3.30674437121807e+000

1.21257325320831e+005,-2.14627097804702e+001,-3.35284330660320e+000

1.22950014503040e+005,-2.14628798368568e+001,-3.39958320707717e+000

1.24666332745679e+005,-2.14630546097706e+001,-3.44697291594582e+000

1.26406609898139e+005,-2.14632342282654e+001,-3.49502139582254e+000

1.28171180414339e+005,-2.14634188248322e+001,-3.54373773013552e+000

1.29960383416997e+005,-2.14636085354849e+001,-3.59313112465400e+000

1.31774562762811e+005,-2.14638034998492e+001,-3.64321090902816e+000

1.33614067108538e+005,-2.14640038612531e+001,-3.69398653834503e+000

1.35479249978003e+005,-2.14642097668194e+001,-3.74546759470026e+000

1.37370469830040e+005,-2.14644213675598e+001,-3.79766378878743e+000

1.39288090127379e+005,-2.14646388184723e+001,-3.85058496150033e+000

1.41232479406504e+005,-2.14648622786389e+001,-3.90424108555514e+000

1.43204011348474e+005,-2.14650919113269e+001,-3.95864226712499e+000

1.45203064850745e+005,-2.14653278840919e+001,-4.01379874749419e+000

1.47230024099979e+005,-2.14655703688826e+001,-4.06972090472555e+000

1.49285278645888e+005,-2.14658195421482e+001,-4.12641925534731e+000

1.51369223476094e+005,-2.14660755849484e+001,-4.18390445605386e+000

1.53482259092041e+005,-2.14663386830645e+001,-4.24218730542461e+000

1.55624791585964e+005,-2.14666090271141e+001,-4.30127874565859e+000

1.57797232718936e+005,-2.14668868126677e+001,-4.36118986432687e+000

1.59999999999999e+005,-2.14671722403672e+001,-4.42193189614021e+000

1.62233516766403e+005,-2.14674655160471e+001,-4.48351622473521e+000

1.64498212264969e+005,-2.14677668508589e+001,-4.54595438447632e+000

1.66794521734578e+005,-2.14680764613964e+001,-4.60925806227552e+000

1.69122886489819e+005,-2.14683945698251e+001,-4.67343909942890e+000

1.71483754005805e+005,-2.14687214040129e+001,-4.73850949347067e+000

1.73877578004168e+005,-2.14690571976640e+001,-4.80448140004474e+000

1.76304818540256e+005,-2.14694021904555e+001,-4.87136713479359e+000

1.78765942091554e+005,-2.14697566281759e+001,-4.93917917526507e+000

1.81261421647326e+005,-2.14701207628669e+001,-5.00793016283692e+000

1.83791736799524e+005,-2.14704948529678e+001,-5.07763290465948e+000

1.86357373834951e+005,-2.14708791634623e+001,-5.14830037561607e+000

1.88958825828723e+005,-2.14712739660284e+001,-5.21994572030238e+000

1.91596592739027e+005,-2.14716795391908e+001,-5.29258225502408e+000

1.94271181503206e+005,-2.14720961684760e+001,-5.36622346981334e+000

1.96983106135185e+005,-2.14725241465710e+001,-5.44088303046334e+000

1.99732887824256e+005,-2.14729637734839e+001,-5.51657478058415e+000

2.02521055035243e+005,-2.14734153567081e+001,-5.59331274367551e+000

2.05348143610063e+005,-2.14738792113889e+001,-5.67111112522128e+000

2.08214696870707e+005,-2.14743556604937e+001,-5.74998431480314e+000

2.11121265723661e+005,-2.14748450349850e+001,-5.82994688823392e+000

2.14068408765776e+005,-2.14753476739960e+001,-5.91101360971363e+000

2.17056692391625e+005,-2.14758639250102e+001,-5.99319943400349e+000

2.20086690902357e+005,-2.14763941440433e+001,-6.07651950862448e+000

2.23158986616063e+005,-2.14769386958291e+001,-6.16098917607513e+000

2.26274169979693e+005,-2.14774979540081e+001,-6.24662397607263e+000

2.29432839682530e+005,-2.14780723013194e+001,-6.33343964781704e+000

2.32635602771247e+005,-2.14786621297970e+001,-6.42145213227667e+000

2.35883074766574e+005,-2.14792678409676e+001,-6.51067757449933e+000

2.39175879781588e+005,-2.14798898460542e+001,-6.60113232594577e+000

2.42514650641661e+005,-2.14805285661818e+001,-6.69283294684890e+000

2.45900029006080e+005,-2.14811844325869e+001,-6.78579620859695e+000

2.49332665491357e+005,-2.14818578868316e+001,-6.88003909614436e+000

2.52813219796278e+005,-2.14825493810206e+001,-6.97557881044616e+000

2.56342360828676e+005,-2.14832593780229e+001,-7.07243277092215e+000

2.59920766833993e+005,-2.14839883516971e+001,-7.17061861794678e+000

2.63549125525621e+005,-2.14847367871212e+001,-7.27015421536839e+000

2.67228134217075e+005,-2.14855051808265e+001,-7.37105765305670e+000

2.70958499956006e+005,-2.14862940410358e+001,-7.47334724948067e+000

2.74740939660078e+005,-2.14871038879072e+001,-7.57704155431644e+000

2.78576180254757e+005,-2.14879352537810e+001,-7.68215935108665e+000

2.82464958813007e+005,-2.14887886834331e+001,-7.78871965983168e+000

2.86408022696948e+005,-2.14896647343324e+001,-7.89674173981394e+000

2.90406129701488e+005,-2.14905639769044e+001,-8.00624509225484e+000

2.94460048199957e+005,-2.14914869947994e+001,-8.11724946310742e+000

2.98570557291775e+005,-2.14924343851672e+001,-8.22977484586301e+000

3.02738446952187e+005,-2.14934067589376e+001,-8.34384148439429e+000

3.06964518184081e+005,-2.14944047411067e+001,-8.45946987583478e+000

3.11249583171928e+005,-2.14954289710304e+001,-8.57668077349624e+000

3.15594465437872e+005,-2.14964801027241e+001,-8.69549518982350e+000

3.19999999999997e+005,-2.14975588051699e+001,-8.81593439938890e+000

3.24467033532806e+005,-2.14986657626311e+001,-8.93801994192525e+000

3.28996424529938e+005,-2.14998016749743e+001,-9.06177362540016e+000

3.33589043469155e+005,-2.15009672580004e+001,-9.18721752912992e+000

3.38245772979638e+005,-2.15021632437830e+001,-9.31437400693545e+000

3.42967508011610e+005,-2.15033903810168e+001,-9.44326569033883e+000

3.47755156008335e+005,-2.15046494353749e+001,-9.57391549180276e+000

3.52609637080511e+005,-2.15059411898758e+001,-9.70634660801154e+000

3.57531884183106e+005,-2.15072664452615e+001,-9.84058252319419e+000

3.62522843294651e+005,-2.15086260203853e+001,-9.97664701249066e+000

3.67583473599047e+005,-2.15100207526121e+001,-1.01145641453593e+001

3.72714747669902e+005,-2.15114514982296e+001,-1.02543582890264e+001

3.77917651657445e+005,-2.15129191328729e+001,-1.03960541119777e+001

3.83193185478053e+005,-2.15144245519616e+001,-1.05396765874895e+001

3.88542363006410e+005,-2.15159686711502e+001,-1.06852509972011e+001

3.93966212270369e+005,-2.15175524267941e+001,-1.08328029347257e+001

3.99465775648511e+005,-2.15191767764292e+001,-1.09823583092980e+001

4.05042110070485e+005,-2.15208426992677e+001,-1.11339433494600e+001

4.10696287220124e+005,-2.15225511967105e+001,-1.12875846067793e+001

4.16429393741414e+005,-2.15243032928761e+001,-1.14433089596013e+001

4.22242531447321e+005,-2.15261000351476e+001,-1.16011436168305e+001

4.28136817531551e+005,-2.15279424947376e+001,-1.17611161217407e+001

4.34113384783250e+005,-2.15298317672734e+001,-1.19232543558084e+001

4.40173381804713e+005,-2.15317689734009e+001,-1.20875865425686e+001

4.46317973232124e+005,-2.15337552594102e+001,-1.22541412514878e+001

4.52548339959385e+005,-2.15357917978821e+001,-1.24229474018513e+001

4.58865679365059e+005,-2.15378797883570e+001,-1.25940342666598e+001

4.65271205542494e+005,-2.15400204580267e+001,-1.27674314765308e+001

4.71766149533147e+005,-2.15422150624501e+001,-1.29431690235993e+001

4.78351759563174e+005,-2.15444648862932e+001,-1.31212772654135e+001

4.85029301283321e+005,-2.15467712440946e+001,-1.33017869288174e+001

4.91800058012158e+005,-2.15491354810559e+001,-1.34847291138165e+001

4.98665330982714e+005,-2.15515589738602e+001,-1.36701352974174e+001

5.05626439592555e+005,-2.15540431315166e+001,-1.38580373374358e+001

5.12684721657352e+005,-2.15565893962328e+001,-1.40484674762642e+001

5.19841533667984e+005,-2.15591992443164e+001,-1.42414583445916e+001

5.27098251051240e+005,-2.15618741871053e+001,-1.44370429650675e+001

5.34456268434150e+005,-2.15646157719266e+001,-1.46352547558981e+001

5.41916999912011e+005,-2.15674255830868e+001,-1.48361275343701e+001

