Freq.,VOut,OutRef

1.00000000000000e+004,-9.80923045636219e+000,-1.25465153630115e-001

1.01395947979003e+004,-9.80923044188598e+000,-1.27216575744551e-001

1.02811382665607e+004,-9.80923042700206e+000,-1.28992446538890e-001

1.04246576084112e+004,-9.80923041169889e+000,-1.30793107293186e-001

1.05701804056138e+004,-9.80923039596452e+000,-1.32618904051207e-001

1.07177346253629e+004,-9.80923037978708e+000,-1.34470187684860e-001

1.08673486252606e+004,-9.80923036315369e+000,-1.36347313967420e-001

1.10190511587661e+004,-9.80923034605183e+000,-1.38250643633494e-001

1.11728713807222e+004,-9.80923032846811e+000,-1.40180542455673e-001

1.13288388529580e+004,-9.80923031038889e+000,-1.42137381311901e-001

1.14869835499703e+004,-9.80923029180036e+000,-1.44121536254982e-001

1.16473358646846e+004,-9.80923027268778e+000,-1.46133388589947e-001

1.18099266142953e+004,-9.80923025303675e+000,-1.48173324939287e-001

1.19747870461893e+004,-9.80923023283184e+000,-1.50241737325872e-001

1.21419488439505e+004,-9.80923021205731e+000,-1.52339023243286e-001

1.23114441334492e+004,-9.80923019069744e+000,-1.54465585730459e-001

1.24833054890161e+004,-9.80923016873524e+000,-1.56621833456687e-001

1.26575659397028e+004,-9.80923014615381e+000,-1.58808180791793e-001

1.28342589756290e+004,-9.80923012293594e+000,-1.61025047888245e-001

1.30134185544193e+004,-9.80923009906312e+000,-1.63272860767516e-001

1.31950791077289e+004,-9.80923007451729e+000,-1.65552051391273e-001

1.33792755478611e+004,-9.80923004927922e+000,-1.67863057754374e-001

1.35660432744767e+004,-9.80923002332918e+000,-1.70206323964102e-001

1.37554181813974e+004,-9.80922999664736e+000,-1.72582300323885e-001

1.39474366635040e+004,-9.80922996921287e+000,-1.74991443424970e-001

1.41421356237309e+004,-9.80922994100438e+000,-1.77434216229979e-001

1.43395524801583e+004,-9.80922991199981e+000,-1.79911088164495e-001

1.45397251732031e+004,-9.80922988217704e+000,-1.82422535201873e-001

1.47426921729110e+004,-9.80922985151258e+000,-1.84969039962882e-001

1.49484924863494e+004,-9.80922981998275e+000,-1.87551091801700e-001

1.51571656651040e+004,-9.80922978756283e+000,-1.90169186904115e-001

1.53687518128801e+004,-9.80922975422774e+000,-1.92823828378702e-001

1.55832915932100e+004,-9.80922971995150e+000,-1.95515526357332e-001

1.58008262372675e+004,-9.80922968470753e+000,-1.98244798089888e-001

1.60213975517924e+004,-9.80922964846827e+000,-2.01012168047223e-001

1.62450479271247e+004,-9.80922961120540e+000,-2.03818168018976e-001

1.64718203453514e+004,-9.80922957289006e+000,-2.06663337215378e-001

1.67017583885674e+004,-9.80922953349235e+000,-2.09548222373132e-001

1.69349062472505e+004,-9.80922949298138e+000,-2.12473377859611e-001

1.71713087287550e+004,-9.80922945132571e+000,-2.15439365777310e-001

1.74110112659224e+004,-9.80922940849285e+000,-2.18446756073605e-001

1.76540599258131e+004,-9.80922936444921e+000,-2.21496126651445e-001

1.79005014185594e+004,-9.80922931916031e+000,-2.24588063478146e-001

1.81503831063432e+004,-9.80922927259111e+000,-2.27723160695362e-001

1.84037530124975e+004,-9.80922922470490e+000,-2.30902020740871e-001

1.86606598307361e+004,-9.80922917546419e+000,-2.34125254457211e-001

1.89211529345119e+004,-9.80922912483053e+000,-2.37393481211457e-001

1.91852823865052e+004,-9.80922907276428e+000,-2.40707329013466e-001

1.94530989482457e+004,-9.80922901922473e+000,-2.44067434637019e-001

1.97246540898671e+004,-9.80922896416965e+000,-2.47474443743798e-001

1.99999999999999e+004,-9.80922890755616e+000,-2.50929011001868e-001

2.02791895958005e+004,-9.80922884933969e+000,-2.54431800217896e-001

2.05622765331213e+004,-9.80922878947453e+000,-2.57983484460097e-001

2.08493152168224e+004,-9.80922872791368e+000,-2.61584746188966e-001

2.11403608112276e+004,-9.80922866460857e+000,-2.65236277389154e-001

2.14354692507258e+004,-9.80922859950967e+000,-2.68938779698403e-001

2.17346972505211e+004,-9.80922853256567e+000,-2.72692964546998e-001

2.20381023175322e+004,-9.80922846372365e+000,-2.76499553293024e-001

2.23457427614443e+004,-9.80922839292960e+000,-2.80359277357096e-001

2.26576777059159e+004,-9.80922832012755e+000,-2.84272878367984e-001

2.29739670999406e+004,-9.80922824525999e+000,-2.88241108301411e-001

2.32946717293690e+004,-9.80922816826789e+000,-2.92264729625102e-001

2.36198532285905e+004,-9.80922808909046e+000,-2.96344515444858e-001

2.39495740923785e+004,-9.80922800766484e+000,-3.00481249655181e-001

2.42838976879009e+004,-9.80922792392688e+000,-3.04675727084261e-001

2.46228882668982e+004,-9.80922783780995e+000,-3.08928753653695e-001

2.49666109780322e+004,-9.80922774924601e+000,-3.13241146525717e-001

2.53151318794055e+004,-9.80922765816458e+000,-3.17613734265756e-001

2.56685179512580e+004,-9.80922756449342e+000,-3.22047356997671e-001

2.60268371088386e+004,-9.80922746815797e+000,-3.26542866566618e-001

2.63901582154578e+004,-9.80922736908169e+000,-3.31101126701108e-001

2.67585510957221e+004,-9.80922726718560e+000,-3.35723013179676e-001

2.71320865489533e+004,-9.80922716238863e+000,-3.40409413997685e-001

2.75108363627948e+004,-9.80922705460696e+000,-3.45161229539955e-001

2.78948733270080e+004,-9.80922694375448e+000,-3.49979372750733e-001

2.82842712474618e+004,-9.80922682974275e+000,-3.54864769308350e-001

2.86791049603164e+004,-9.80922671248035e+000,-3.59818357805522e-001

2.90794503464061e+004,-9.80922659187344e+000,-3.64841089926287e-001

2.94853843458219e+004,-9.80922646782507e+000,-3.69933930631308e-001

2.98969849726987e+004,-9.80922634023574e+000,-3.75097858339120e-001

3.03143313302078e+004,-9.80922620900289e+000,-3.80333865116279e-001

3.07375036257601e+004,-9.80922607402079e+000,-3.85642956867165e-001

3.11665831864199e+004,-9.80922593518068e+000,-3.91026153525092e-001

3.16016524745350e+004,-9.80922579237041e+000,-3.96484489249722e-001

3.20427951035848e+004,-9.80922564547471e+000,-4.02019012623303e-001

3.24900958542493e+004,-9.80922549437461e+000,-4.07630786852746e-001

3.29436406907028e+004,-9.80922533894770e+000,-4.13320889972471e-001

3.34035167771346e+004,-9.80922517906792e+000,-4.19090415050677e-001

3.38698124945009e+004,-9.80922501460519e+000,-4.24940470400370e-001

3.43426174575100e+004,-9.80922484542575e+000,-4.30872179788930e-001

3.48220225318448e+004,-9.80922467139173e+000,-4.36886682654142e-001

3.53081198516260e+004,-9.80922449236113e+000,-4.42985134322852e-001

3.58010028371187e+004,-9.80922430818734e+000,-4.49168706233065e-001

3.63007662126863e+004,-9.80922411871971e+000,-4.55438586154271e-001

3.68075060249948e+004,-9.80922392380279e+000,-4.61795978418668e-001

3.73213196614721e+004,-9.80922372327627e+000,-4.68242104150198e-001

3.78423058690237e+004,-9.80922351697531e+000,-4.74778201496101e-001

3.83705647730104e+004,-9.80922330472967e+000,-4.81405525866968e-001

3.89061978964912e+004,-9.80922308636391e+000,-4.88125350175822e-001

3.94493081797342e+004,-9.80922286169740e+000,-4.94938965079028e-001

3.99999999999998e+004,-9.80922263054373e+000,-5.01847679226484e-001

4.05583791916010e+004,-9.80922239271092e+000,-5.08852819508911e-001

4.11245530662425e+004,-9.80922214800085e+000,-5.15955731313873e-001

4.16986304336447e+004,-9.80922189620932e+000,-5.23157778781057e-001

4.22807216224550e+004,-9.80922163712588e+000,-5.30460345063031e-001

4.28709385014515e+004,-9.80922137053343e+000,-5.37864832590256e-001

4.34693945010421e+004,-9.80922109620793e+000,-5.45372663339293e-001

4.40762046350642e+004,-9.80922081391858e+000,-5.52985279102064e-001

4.46914855228886e+004,-9.80922052342718e+000,-5.60704141763520e-001

4.53153554118317e+004,-9.80922022448815e+000,-5.68530733578956e-001

4.59479341998812e+004,-9.80921991684800e+000,-5.76466557458359e-001

4.65893434587380e+004,-9.80921960024517e+000,-5.84513137253045e-001

4.72397064571810e+004,-9.80921927440999e+000,-5.92672018044347e-001

4.78991481847569e+004,-9.80921893906404e+000,-6.00944766441022e-001

4.85677953758016e+004,-9.80921859392024e+000,-6.09332970874911e-001

4.92457765337964e+004,-9.80921823868198e+000,-6.17838241907774e-001

4.99332219560642e+004,-9.80921787304330e+000,-6.26462212535329e-001

5.06302637588109e+004,-9.80921749668853e+000,-6.35206538497876e-001

5.13370359025159e+004,-9.80921710929156e+000,-6.44072898598751e-001

5.20536742176771e+004,-9.80921671051581e+000,-6.53062995022034e-001

5.27803164309155e+004,-9.80921630001370e+000,-6.62178553657086e-001

5.35171021914442e+004,-9.80921587742654e+000,-6.71421324426371e-001

5.42641730979066e+004,-9.80921544238355e+000,-6.80793081620934e-001

5.50216727255895e+004,-9.80921499450214e+000,-6.90295624234707e-001

5.57897466540159e+004,-9.80921453338687e+000,-6.99930776310093e-001

5.65685424949235e+004,-9.80921405862946e+000,-7.09700387281663e-001

5.73582099206328e+004,-9.80921356980794e+000,-7.19606332330995e-001

5.81589006928121e+004,-9.80921306648636e+000,-7.29650512740667e-001

5.89707686916437e+004,-9.80921254821412e+000,-7.39834856257758e-001

5.97939699453972e+004,-9.80921201452586e+000,-7.50161317456522e-001

6.06286626604156e+004,-9.80921146494021e+000,-7.60631878114310e-001

6.14750072515201e+004,-9.80921089895980e+000,-7.71248547584298e-001

6.23331663728396e+004,-9.80921031607044e+000,-7.82013363178113e-001

6.32033049490698e+004,-9.80920971574040e+000,-7.92928390552321e-001

6.40855902071694e+004,-9.80920909741988e+000,-8.03995724100403e-001

6.49801917084985e+004,-9.80920846054018e+000,-8.15217487350400e-001

6.58872813814055e+004,-9.80920780451327e+000,-8.26595833365598e-001

6.68070335542691e+004,-9.80920712873072e+000,-8.38132945154552e-001

6.77396249890018e+004,-9.80920643256319e+000,-8.49831036083258e-001

6.86852349150199e+004,-9.80920571535934e+000,-8.61692350295295e-001

6.96440450636895e+004,-9.80920497644513e+000,-8.73719163136454e-001

7.06162397032520e+004,-9.80920421512314e+000,-8.85913781583625e-001

7.16020056742374e+004,-9.80920343067132e+000,-8.98278544683423e-001

7.26015324253724e+004,-9.80920262234219e+000,-9.10815823993134e-001

7.36150120499896e+004,-9.80920178936181e+000,-9.23528024029013e-001

7.46426393229441e+004,-9.80920093092869e+000,-9.36417582721305e-001

7.56846117380472e+004,-9.80920004621294e+000,-9.49486971872938e-001

7.67411295460207e+004,-9.80919913435465e+000,-9.62738697628256e-001

7.78123957929823e+004,-9.80919819446333e+000,-9.76175300943646e-001

7.88986163594682e+004,-9.80919722561598e+000,-9.89799358068733e-001

7.99999999999995e+004,-9.80919622685640e+000,-1.00361348103056e+000

8.11167583832018e+004,-9.80919519719354e+000,-1.01762031812551e+000

8.22491061324848e+004,-9.80919413560011e+000,-1.03182255441941e+000

8.33972608672892e+004,-9.80919304101096e+000,-1.04622291225268e+000

8.45614432449099e+004,-9.80919191232193e+000,-1.06082415175081e+000

8.57418770029029e+004,-9.80919074838783e+000,-1.07562907134575e+000

8.69387890020841e+004,-9.80918954802107e+000,-1.09064050829927e+000

8.81524092701283e+004,-9.80918830998963e+000,-1.10586133923852e+000

8.93829710457770e+004,-9.80918703301532e+000,-1.12129448069491e+000

9.06307108236633e+004,-9.80918571577211e+000,-1.13694288964998e+000

9.18958683997622e+004,-9.80918435688347e+000,-1.15280956409344e+000

9.31786869174758e+004,-9.80918295492099e+000,-1.16889754358147e+000

9.44794129143618e+004,-9.80918150840176e+000,-1.18520990980856e+000

9.57982963695136e+004,-9.80918001578618e+000,-1.20174978718284e+000

9.71355907516031e+004,-9.80917847547548e+000,-1.21852034341242e+000

9.84915530675926e+004,-9.80917688580929e+000,-1.23552479009665e+000

9.98664439121282e+004,-9.80917524506305e+000,-1.25276638332603e+000

1.01260527517622e+005,-9.80917355144502e+000,-1.27024842429195e+000

1.02674071805032e+005,-9.80917180309362e+000,-1.28797425990138e+000

1.04107348435354e+005,-9.80916999807436e+000,-1.30594728340224e+000

1.05560632861831e+005,-9.80916813437667e+000,-1.32417093501544e+000

1.07034204382888e+005,-9.80916620991051e+000,-1.34264870257642e+000

1.08528346195813e+005,-9.80916422250304e+000,-1.36138412218451e+000

1.10043345451179e+005,-9.80916216989499e+000,-1.38038077886063e+000

1.11579493308032e+005,-9.80916004973689e+000,-1.39964230721387e+000

1.13137084989847e+005,-9.80915785958472e+000,-1.41917239211921e+000

1.14716419841265e+005,-9.80915559689659e+000,-1.43897476939776e+000

1.16317801385624e+005,-9.80915325902757e+000,-1.45905322651424e+000

1.17941537383287e+005,-9.80915084322557e+000,-1.47941160327727e+000

1.19587939890794e+005,-9.80914834662653e+000,-1.50005379255200e+000

1.21257325320831e+005,-9.80914576624948e+000,-1.52098374098072e+000

1.22950014503040e+005,-9.80914309899114e+000,-1.54220544971455e+000

1.24666332745679e+005,-9.80914034162066e+000,-1.56372297515251e+000

1.26406609898139e+005,-9.80913749077385e+000,-1.58554042969262e+000

1.28171180414339e+005,-9.80913454294735e+000,-1.60766198249014e+000

1.29960383416997e+005,-9.80913149449201e+000,-1.63009186023012e+000

1.31774562762811e+005,-9.80912834160692e+000,-1.65283434790385e+000

1.33614067108538e+005,-9.80912508033195e+000,-1.67589378960265e+000

1.35479249978003e+005,-9.80912170654108e+000,-1.69927458931624e+000

1.37370469830040e+005,-9.80911821593467e+000,-1.72298121174462e+000

1.39288090127379e+005,-9.80911460403168e+000,-1.74701818311975e+000

1.41232479406504e+005,-9.80911086616140e+000,-1.77139009203939e+000

1.43204011348474e+005,-9.80910699745509e+000,-1.79610159030868e+000

1.45203064850745e+005,-9.80910299283669e+000,-1.82115739379722e+000

1.47230024099979e+005,-9.80909884701372e+000,-1.84656228330356e+000

1.49285278645888e+005,-9.80909455446723e+000,-1.87232110543408e+000

1.51369223476094e+005,-9.80909010944167e+000,-1.89843877349146e+000

1.53482259092041e+005,-9.80908550593414e+000,-1.92492026837622e+000

1.55624791585964e+005,-9.80908073768310e+000,-1.95177063949948e+000

1.57797232718936e+005,-9.80907579815663e+000,-1.97899500570841e+000

1.59999999999999e+005,-9.80907068054025e+000,-2.00659855622348e+000

1.62233516766403e+005,-9.80906537772385e+000,-2.03458655158976e+000

1.64498212264969e+005,-9.80905988228857e+000,-2.06296432463826e+000

1.66794521734578e+005,-9.80905418649263e+000,-2.09173728146272e+000

1.69122886489819e+005,-9.80904828225663e+000,-2.12091090240872e+000

1.71483754005805e+005,-9.80904216114831e+000,-2.15049074307559e+000

1.73877578004168e+005,-9.80903581436651e+000,-2.18048243533352e+000

1.76304818540256e+005,-9.80902923272459e+000,-2.21089168835173e+000

1.78765942091554e+005,-9.80902240663294e+000,-2.24172428964389e+000

1.81261421647326e+005,-9.80901532608055e+000,-2.27298610612653e+000

1.83791736799524e+005,-9.80900798061635e+000,-2.30468308519095e+000

1.86357373834951e+005,-9.80900035932922e+000,-2.33682125579168e+000

1.88958825828723e+005,-9.80899245082722e+000,-2.36940672954946e+000

1.91596592739027e+005,-9.80898424321602e+000,-2.40244570186967e+000

1.94271181503206e+005,-9.80897572407660e+000,-2.43594445307598e+000

1.96983106135185e+005,-9.80896688044136e+000,-2.46990934956144e+000

1.99732887824256e+005,-9.80895769877000e+000,-2.50434684495419e+000

2.02521055035243e+005,-9.80894816492386e+000,-2.53926348130076e+000

2.05348143610063e+005,-9.80893826413921e+000,-2.57466589026730e+000

2.08214696870707e+005,-9.80892798099973e+000,-2.61056079435648e+000

2.11121265723661e+005,-9.80891729940769e+000,-2.64695500814232e+000

2.14068408765776e+005,-9.80890620255362e+000,-2.68385543952590e+000

2.17056692391625e+005,-9.80889467288540e+000,-2.72126909100535e+000

2.20086690902357e+005,-9.80888269207549e+000,-2.75920306096865e+000

2.23158986616063e+005,-9.80887024098721e+000,-2.79766454500328e+000

2.26274169979693e+005,-9.80885729963954e+000,-2.83666083722699e+000

2.29432839682530e+005,-9.80884384717049e+000,-2.87619933163866e+000

2.32635602771247e+005,-9.80882986179912e+000,-2.91628752349022e+000

2.35883074766574e+005,-9.80881532078615e+000,-2.95693301067859e+000

2.39175879781588e+005,-9.80880020039271e+000,-2.99814349516168e+000

2.42514650641661e+005,-9.80878447583803e+000,-3.03992678439459e+000

2.45900029006080e+005,-9.80876812125514e+000,-3.08229079279017e+000

2.49332665491357e+005,-9.80875110964521e+000,-3.12524354320195e+000

2.52813219796278e+005,-9.80873341282985e+000,-3.16879316843253e+000

2.56342360828676e+005,-9.80871500140191e+000,-3.21294791276606e+000

2.59920766833993e+005,-9.80869584467470e+000,-3.25771613352473e+000

2.63549125525621e+005,-9.80867591062909e+000,-3.30310630265353e+000

2.67228134217075e+005,-9.80865516585867e+000,-3.34912700833064e+000

2.70958499956006e+005,-9.80863357551342e+000,-3.39578695660525e+000

2.74740939660078e+005,-9.80861110324124e+000,-3.44309497306306e+000

2.78576180254757e+005,-9.80858771112748e+000,-3.49106000452132e+000

2.82464958813007e+005,-9.80856335963239e+000,-3.53969112075389e+000

2.86408022696948e+005,-9.80853800752701e+000,-3.58899751624498e+000

2.90406129701488e+005,-9.80851161182618e+000,-3.63898851197681e+000

2.94460048199957e+005,-9.80848412772043e+000,-3.68967355724637e+000

2.98570557291775e+005,-9.80845550850490e+000,-3.74106223151739e+000

3.02738446952187e+005,-9.80842570550658e+000,-3.79316424630561e+000

3.06964518184081e+005,-9.80839466800944e+000,-3.84598944709717e+000

3.11249583171928e+005,-9.80836234317695e+000,-3.89954781530520e+000

3.15594465437872e+005,-9.80832867597278e+000,-3.95384947026138e+000

3.19999999999997e+005,-9.80829360907916e+000,-4.00890467124500e+000

3.24467033532806e+005,-9.80825708281315e+000,-4.06472381955035e+000

3.28996424529938e+005,-9.80821903504030e+000,-4.12131746059508e+000

3.33589043469155e+005,-9.80817940108648e+000,-4.17869628606685e+000

3.38245772979638e+005,-9.80813811364718e+000,-4.23687113611372e+000

3.42967508011610e+005,-9.80809510269497e+000,-4.29585300157393e+000

3.47755156008335e+005,-9.80805029538411e+000,-4.35565302625309e+000

3.52609637080511e+005,-9.80800361595359e+000,-4.41628250924253e+000

3.57531884183106e+005,-9.80795498562753e+000,-4.47775290728534e+000

3.62522843294651e+005,-9.80790432251373e+000,-4.54007583718745e+000

3.67583473599047e+005,-9.80785154149968e+000,-4.60326307827853e+000

3.72714747669902e+005,-9.80779655414695e+000,-4.66732657491901e+000

3.77917651657445e+005,-9.80773926858286e+000,-4.73227843905982e+000

3.83193185478053e+005,-9.80767958939087e+000,-4.79813095284928e+000

3.88542363006410e+005,-9.80761741749817e+000,-4.86489657129663e+000

3.93966212270369e+005,-9.80755265006201e+000,-4.93258792498336e+000

3.99465775648511e+005,-9.80748518035359e+000,-5.00121782283240e+000

4.05042110070485e+005,-9.80741489764037e+000,-5.07079925493013e+000

4.10696287220124e+005,-9.80734168706649e+000,-5.14134539540491e+000

4.16429393741414e+005,-9.80726542953152e+000,-5.21286960536269e+000

4.22242531447321e+005,-9.80718600156745e+000,-5.28538543587965e+000

4.28136817531551e+005,-9.80710327521424e+000,-5.35890663105364e+000

4.34113384783250e+005,-9.80701711789345e+000,-5.43344713111691e+000

4.40173381804713e+005,-9.80692739228098e+000,-5.50902107560590e+000

4.46317973232124e+005,-9.80683395617777e+000,-5.58564280659607e+000

4.52548339959385e+005,-9.80673666237985e+000,-5.66332687199497e+000

4.58865679365059e+005,-9.80663535854648e+000,-5.74208802890183e+000

4.65271205542494e+005,-9.80652988706768e+000,-5.82194124702697e+000

4.71766149533147e+005,-9.80642008493017e+000,-5.90290171217876e+000

4.78351759563174e+005,-9.80630578358273e+000,-5.98498482981211e+000

4.85029301283321e+005,-9.80618680880027e+000,-6.06820622864548e+000

4.91800058012158e+005,-9.80606298054707e+000,-6.15258176434071e+000

4.98665330982714e+005,-9.80593411283916e+000,-6.23812752325256e+000

5.05626439592555e+005,-9.80580001360620e+000,-6.32485982624167e+000

5.12684721657352e+005,-9.80566048455204e+000,-6.41279523255804e+000

5.19841533667984e+005,-9.80551532101514e+000,-6.50195054379013e+000

5.27098251051240e+005,-9.80536431182796e+000,-6.59234280788315e+000

5.34456268434150e+005,-9.80520723917601e+000,-6.68398932322510e+000

5.41916999912011e+005,-9.80504387845596e+000,-6.77690764280279e+000

