Freq.,VOut,OutRef

1.00000000000000e+004,-1.20241032920947e+001,-1.46415809683530e-001

1.01395947979003e+004,-1.20241034007087e+001,-1.48459686255470e-001

1.02811382665607e+004,-1.20241035123749e+001,-1.50532093772687e-001

1.04246576084112e+004,-1.20241036271791e+001,-1.52633430490647e-001

1.05701804056138e+004,-1.20241037452091e+001,-1.54764100225564e-001

1.07177346253629e+004,-1.20241038665561e+001,-1.56924512424457e-001

1.08673486252606e+004,-1.20241039913128e+001,-1.59115082254649e-001

1.10190511587661e+004,-1.20241041195750e+001,-1.61336230674912e-001

1.11728713807222e+004,-1.20241042514414e+001,-1.63588384519194e-001

1.13288388529580e+004,-1.20241043870129e+001,-1.65871976580685e-001

1.14869835499703e+004,-1.20241045263938e+001,-1.68187445690633e-001

1.16473358646846e+004,-1.20241046696909e+001,-1.70535236806244e-001

1.18099266142953e+004,-1.20241048170142e+001,-1.72915801095461e-001

1.19747870461893e+004,-1.20241049684770e+001,-1.75329596020602e-001

1.21419488439505e+004,-1.20241051241954e+001,-1.77777085429812e-001

1.23114441334492e+004,-1.20241052842886e+001,-1.80258739647116e-001

1.24833054890161e+004,-1.20241054488798e+001,-1.82775035556638e-001

1.26575659397028e+004,-1.20241056180951e+001,-1.85326456700971e-001

1.28342589756290e+004,-1.20241057920645e+001,-1.87913493368704e-001

1.30134185544193e+004,-1.20241059709211e+001,-1.90536642693475e-001

1.31950791077289e+004,-1.20241061548024e+001,-1.93196408744911e-001

1.33792755478611e+004,-1.20241063438496e+001,-1.95893302626862e-001

1.35660432744767e+004,-1.20241065382073e+001,-1.98627842578290e-001

1.37554181813974e+004,-1.20241067380248e+001,-2.01400554068778e-001

1.39474366635040e+004,-1.20241069434554e+001,-2.04211969901776e-001

1.41421356237309e+004,-1.20241071546565e+001,-2.07062630315733e-001

1.43395524801583e+004,-1.20241073717900e+001,-2.09953083089151e-001

1.45397251732031e+004,-1.20241075950226e+001,-2.12883883642955e-001

1.47426921729110e+004,-1.20241078245255e+001,-2.15855595150729e-001

1.49484924863494e+004,-1.20241080604743e+001,-2.18868788645276e-001

1.51571656651040e+004,-1.20241083030501e+001,-2.21924043126907e-001

1.53687518128801e+004,-1.20241085524389e+001,-2.25021945676250e-001

1.55832915932100e+004,-1.20241088088317e+001,-2.28163091565741e-001

1.58008262372675e+004,-1.20241090724251e+001,-2.31348084375264e-001

1.60213975517924e+004,-1.20241093434210e+001,-2.34577536107126e-001

1.62450479271247e+004,-1.20241096220272e+001,-2.37852067302946e-001

1.64718203453514e+004,-1.20241099084571e+001,-2.41172307163181e-001

1.67017583885674e+004,-1.20241102029302e+001,-2.44538893668329e-001

1.69349062472505e+004,-1.20241105056719e+001,-2.47952473703033e-001

1.71713087287550e+004,-1.20241108169143e+001,-2.51413703174190e-001

1.74110112659224e+004,-1.20241111368956e+001,-2.54923247144116e-001

1.76540599258131e+004,-1.20241114658610e+001,-2.58481779952929e-001

1.79005014185594e+004,-1.20241118040625e+001,-2.62089985349915e-001

1.81503831063432e+004,-1.20241121517586e+001,-2.65748556626437e-001

1.84037530124975e+004,-1.20241125092159e+001,-2.69458196744645e-001

1.86606598307361e+004,-1.20241128767080e+001,-2.73219618474957e-001

1.89211529345119e+004,-1.20241132545159e+001,-2.77033544534093e-001

1.91852823865052e+004,-1.20241136429290e+001,-2.80900707720742e-001

1.94530989482457e+004,-1.20241140422442e+001,-2.84821851058400e-001

1.97246540898671e+004,-1.20241144527675e+001,-2.88797727934126e-001

1.99999999999999e+004,-1.20241148748125e+001,-2.92829102249827e-001

2.02791895958005e+004,-1.20241153087021e+001,-2.96916748562186e-001

2.05622765331213e+004,-1.20241157547683e+001,-3.01061452233448e-001

2.08493152168224e+004,-1.20241162133520e+001,-3.05264009583024e-001

2.11403608112276e+004,-1.20241166848039e+001,-3.09525228038493e-001

2.14354692507258e+004,-1.20241171694844e+001,-3.13845926291403e-001

2.17346972505211e+004,-1.20241176677638e+001,-3.18226934455045e-001

2.20381023175322e+004,-1.20241181800230e+001,-3.22669094220158e-001

2.23457427614443e+004,-1.20241187066535e+001,-3.27173259019555e-001

2.26576777059159e+004,-1.20241192480573e+001,-3.31740294191727e-001

2.29739670999406e+004,-1.20241198046479e+001,-3.36371077144395e-001

2.32946717293690e+004,-1.20241203768507e+001,-3.41066497522342e-001

2.36198532285905e+004,-1.20241209651024e+001,-3.45827457381161e-001

2.39495740923785e+004,-1.20241215698518e+001,-3.50654871358731e-001

2.42838976879009e+004,-1.20241221915608e+001,-3.55549666846526e-001

2.46228882668982e+004,-1.20241228307035e+001,-3.60512784174055e-001

2.49666109780322e+004,-1.20241234877676e+001,-3.65545176782908e-001

2.53151318794055e+004,-1.20241241632542e+001,-3.70647811413312e-001

2.56685179512580e+004,-1.20241248576785e+001,-3.75821668286315e-001

2.60268371088386e+004,-1.20241255715697e+001,-3.81067741293755e-001

2.63901582154578e+004,-1.20241263054721e+001,-3.86387038186823e-001

2.67585510957221e+004,-1.20241270599447e+001,-3.91780580771666e-001

2.71320865489533e+004,-1.20241278355625e+001,-3.97249405099194e-001

2.75108363627948e+004,-1.20241286329160e+001,-4.02794561671054e-001

2.78948733270080e+004,-1.20241294526124e+001,-4.08417115634118e-001

2.82842712474618e+004,-1.20241302952756e+001,-4.14118146988206e-001

2.86791049603164e+004,-1.20241311615470e+001,-4.19898750789920e-001

2.90794503464061e+004,-1.20241320520855e+001,-4.25760037364116e-001

2.94853843458219e+004,-1.20241329675684e+001,-4.31703132516911e-001

2.98969849726987e+004,-1.20241339086917e+001,-4.37729177747290e-001

3.03143313302078e+004,-1.20241348761708e+001,-4.43839330468911e-001

3.07375036257601e+004,-1.20241358707408e+001,-4.50034764229776e-001

3.11665831864199e+004,-1.20241368931571e+001,-4.56316668937171e-001

3.16016524745350e+004,-1.20241379441961e+001,-4.62686251084280e-001

3.20427951035848e+004,-1.20241390246556e+001,-4.69144733981434e-001

3.24900958542493e+004,-1.20241401353553e+001,-4.75693357989268e-001

3.29436406907028e+004,-1.20241412771377e+001,-4.82333380757076e-001

3.34035167771346e+004,-1.20241424508686e+001,-4.89066077459394e-001

3.38698124945009e+004,-1.20241436574375e+001,-4.95892741043841e-001

3.43426174575100e+004,-1.20241448977585e+001,-5.02814682476033e-001

3.48220225318448e+004,-1.20241461727709e+001,-5.09833230988566e-001

3.53081198516260e+004,-1.20241474834399e+001,-5.16949734335968e-001

3.58010028371187e+004,-1.20241488307571e+001,-5.24165559053954e-001

3.63007662126863e+004,-1.20241502157416e+001,-5.31482090714555e-001

3.68075060249948e+004,-1.20241516394402e+001,-5.38900734196361e-001

3.73213196614721e+004,-1.20241531029289e+001,-5.46422913948446e-001

3.78423058690237e+004,-1.20241546073126e+001,-5.54050074264693e-001

3.83705647730104e+004,-1.20241561537272e+001,-5.61783679555369e-001

3.89061978964912e+004,-1.20241577433393e+001,-5.69625214629800e-001

3.94493081797342e+004,-1.20241593773474e+001,-5.77576184978781e-001

3.99999999999998e+004,-1.20241610569830e+001,-5.85638117059038e-001

4.05583791916010e+004,-1.20241627835112e+001,-5.93812558585319e-001

4.11245530662425e+004,-1.20241645582319e+001,-6.02101078825415e-001

4.16986304336447e+004,-1.20241663824800e+001,-6.10505268898675e-001

4.22807216224550e+004,-1.20241682576273e+001,-6.19026742078150e-001

4.28709385014515e+004,-1.20241701850825e+001,-6.27667134097596e-001

4.34693945010421e+004,-1.20241721662932e+001,-6.36428103462667e-001

4.40762046350642e+004,-1.20241742027460e+001,-6.45311331766907e-001

4.46914855228886e+004,-1.20241762959680e+001,-6.54318524010310e-001

4.53153554118317e+004,-1.20241784475279e+001,-6.63451408923200e-001

4.59479341998812e+004,-1.20241806590366e+001,-6.72711739296271e-001

4.65893434587380e+004,-1.20241829321490e+001,-6.82101292311361e-001

4.72397064571810e+004,-1.20241852685647e+001,-6.91621869879416e-001

4.78991481847569e+004,-1.20241876700292e+001,-7.01275298983075e-001

4.85677953758016e+004,-1.20241901383352e+001,-7.11063432022873e-001

4.92457765337964e+004,-1.20241926753236e+001,-7.20988147167207e-001

4.99332219560642e+004,-1.20241952828851e+001,-7.31051348712055e-001

5.06302637588109e+004,-1.20241979629613e+001,-7.41254967436056e-001

5.13370359025159e+004,-1.20242007175456e+001,-7.51600960972154e-001

5.20536742176771e+004,-1.20242035486854e+001,-7.62091314174456e-001

5.27803164309155e+004,-1.20242064584828e+001,-7.72728039494264e-001

5.35171021914442e+004,-1.20242094490958e+001,-7.83513177363178e-001

5.42641730979066e+004,-1.20242125227408e+001,-7.94448796575643e-001

5.50216727255895e+004,-1.20242156816927e+001,-8.05536994682838e-001

5.57897466540159e+004,-1.20242189282873e+001,-8.16779898387377e-001

5.65685424949235e+004,-1.20242222649225e+001,-8.28179663945387e-001

5.73582099206328e+004,-1.20242256940598e+001,-8.39738477574017e-001

5.81589006928121e+004,-1.20242292182263e+001,-8.51458555862311e-001

5.89707686916437e+004,-1.20242328400155e+001,-8.63342146191607e-001

5.97939699453972e+004,-1.20242365620898e+001,-8.75391527157359e-001

6.06286626604156e+004,-1.20242403871817e+001,-8.87609008998933e-001

6.14750072515201e+004,-1.20242443180955e+001,-8.99996934035730e-001

6.23331663728396e+004,-1.20242483577096e+001,-9.12557677105009e-001

6.32033049490698e+004,-1.20242525089772e+001,-9.25293646012793e-001

6.40855902071694e+004,-1.20242567749295e+001,-9.38207281982697e-001

6.49801917084985e+004,-1.20242611586762e+001,-9.51301060116938e-001

6.58872813814055e+004,-1.20242656634085e+001,-9.64577489860450e-001

6.68070335542691e+004,-1.20242702924003e+001,-9.78039115471427e-001

6.77396249890018e+004,-1.20242750490103e+001,-9.91688516499434e-001

6.86852349150199e+004,-1.20242799366843e+001,-1.00552830826747e+000

6.96440450636895e+004,-1.20242849589570e+001,-1.01956114236337e+000

7.06162397032520e+004,-1.20242901194538e+001,-1.03378970713544e+000

7.16020056742374e+004,-1.20242954218934e+001,-1.04821672819504e+000

7.26015324253724e+004,-1.20243008700897e+001,-1.06284496892624e+000

7.36150120499896e+004,-1.20243064679537e+001,-1.07767723100362e+000

7.46426393229441e+004,-1.20243122194962e+001,-1.09271635491228e+000

7.56846117380472e+004,-1.20243181288295e+001,-1.10796522048021e+000

7.67411295460207e+004,-1.20243242001699e+001,-1.12342674741460e+000

7.78123957929823e+004,-1.20243304378402e+001,-1.13910389584417e+000

7.88986163594682e+004,-1.20243368462716e+001,-1.15499966687237e+000

7.99999999999995e+004,-1.20243434300062e+001,-1.17111710313348e+000

8.11167583832018e+004,-1.20243501936995e+001,-1.18745928935956e+000

8.22491061324848e+004,-1.20243571421226e+001,-1.20402935295203e+000

8.33972608672892e+004,-1.20243642801648e+001,-1.22083046456191e+000

8.45614432449099e+004,-1.20243716128358e+001,-1.23786583867844e+000

8.57418770029029e+004,-1.20243791452683e+001,-1.25513873422372e+000

8.69387890020841e+004,-1.20243868827206e+001,-1.27265245515506e+000

8.81524092701283e+004,-1.20243948305788e+001,-1.29041035107759e+000

8.93829710457770e+004,-1.20244029943597e+001,-1.30841581786030e+000

9.06307108236633e+004,-1.20244113797129e+001,-1.32667229826508e+000

9.18958683997622e+004,-1.20244199924238e+001,-1.34518328257910e+000

9.31786869174758e+004,-1.20244288384155e+001,-1.36395230926037e+000

9.44794129143618e+004,-1.20244379237520e+001,-1.38298296558550e+000

9.57982963695136e+004,-1.20244472546405e+001,-1.40227888831164e+000

9.71355907516031e+004,-1.20244568374337e+001,-1.42184376434194e+000

9.84915530675926e+004,-1.20244666786329e+001,-1.44168133140390e+000

9.98664439121282e+004,-1.20244767848897e+001,-1.46179537873298e+000

1.01260527517622e+005,-1.20244871630095e+001,-1.48218974776660e+000

1.02674071805032e+005,-1.20244978199531e+001,-1.50286833284557e+000

1.04107348435354e+005,-1.20245087628398e+001,-1.52383508192592e+000

1.05560632861831e+005,-1.20245199989493e+001,-1.54509399730004e+000

1.07034204382888e+005,-1.20245315357248e+001,-1.56664913632377e+000

1.08528346195813e+005,-1.20245433807744e+001,-1.58850461215734e+000

1.10043345451179e+005,-1.20245555418745e+001,-1.61066459451012e+000

1.11579493308032e+005,-1.20245680269711e+001,-1.63313331040128e+000

1.13137084989847e+005,-1.20245808441826e+001,-1.65591504492379e+000

1.14716419841265e+005,-1.20245940018016e+001,-1.67901414202195e+000

1.16317801385624e+005,-1.20246075082970e+001,-1.70243500527665e+000

1.17941537383287e+005,-1.20246213723162e+001,-1.72618209870225e+000

1.19587939890794e+005,-1.20246356026864e+001,-1.75025994755105e+000

1.21257325320831e+005,-1.20246502084169e+001,-1.77467313913030e+000

1.22950014503040e+005,-1.20246651987006e+001,-1.79942632362783e+000

1.24666332745679e+005,-1.20246805829152e+001,-1.82452421494710e+000

1.26406609898139e+005,-1.20246963706248e+001,-1.84997159155672e+000

1.28171180414339e+005,-1.20247125715811e+001,-1.87577329734494e+000

1.29960383416997e+005,-1.20247291957245e+001,-1.90193424248907e+000

1.31774562762811e+005,-1.20247462531846e+001,-1.92845940433385e+000

1.33614067108538e+005,-1.20247637542813e+001,-1.95535382828089e+000

1.35479249978003e+005,-1.20247817095250e+001,-1.98262262869060e+000

1.37370469830040e+005,-1.20248001296168e+001,-2.01027098979171e+000

1.39288090127379e+005,-1.20248190254486e+001,-2.03830416660746e+000

1.41232479406504e+005,-1.20248384081030e+001,-2.06672748588785e+000

1.43204011348474e+005,-1.20248582888522e+001,-2.09554634705770e+000

1.45203064850745e+005,-1.20248786791576e+001,-2.12476622317469e+000

1.47230024099979e+005,-1.20248995906686e+001,-2.15439266189883e+000

1.49285278645888e+005,-1.20249210352209e+001,-2.18443128647505e+000

1.51369223476094e+005,-1.20249430248349e+001,-2.21488779672853e+000

1.53482259092041e+005,-1.20249655717129e+001,-2.24576797007134e+000

1.55624791585964e+005,-1.20249886882371e+001,-2.27707766252229e+000

1.57797232718936e+005,-1.20250123869662e+001,-2.30882280973883e+000

1.59999999999999e+005,-1.20250366806318e+001,-2.34100942806460e+000

1.62233516766403e+005,-1.20250615821345e+001,-2.37364361558683e+000

1.64498212264969e+005,-1.20250871045391e+001,-2.40673155320917e+000

1.66794521734578e+005,-1.20251132610699e+001,-2.44027950573839e+000

1.69122886489819e+005,-1.20251400651048e+001,-2.47429382298368e+000

1.71483754005805e+005,-1.20251675301688e+001,-2.50878094087176e+000

1.73877578004168e+005,-1.20251956699277e+001,-2.54374738257489e+000

1.76304818540256e+005,-1.20252244981798e+001,-2.57919975965483e+000

1.78765942091554e+005,-1.20252540288483e+001,-2.61514477322051e+000

1.81261421647326e+005,-1.20252842759719e+001,-2.65158921510203e+000

1.83791736799524e+005,-1.20253152536949e+001,-2.68853996903997e+000

1.86357373834951e+005,-1.20253469762569e+001,-2.72600401188990e+000

1.88958825828723e+005,-1.20253794579810e+001,-2.76398841484435e+000

1.91596592739027e+005,-1.20254127132621e+001,-2.80250034466922e+000

1.94271181503206e+005,-1.20254467565526e+001,-2.84154706495934e+000

1.96983106135185e+005,-1.20254816023489e+001,-2.88113593741029e+000

1.99732887824256e+005,-1.20255172651759e+001,-2.92127442310746e+000

2.02521055035243e+005,-1.20255537595707e+001,-2.96197008383349e+000

2.05348143610063e+005,-1.20255911000648e+001,-3.00323058339419e+000

2.08214696870707e+005,-1.20256293011661e+001,-3.04506368896471e+000

2.11121265723661e+005,-1.20256683773385e+001,-3.08747727245144e+000

2.14068408765776e+005,-1.20257083429812e+001,-3.13047931187829e+000

2.17056692391625e+005,-1.20257492124063e+001,-3.17407789279012e+000

2.20086690902357e+005,-1.20257909998151e+001,-3.21828120967853e+000

2.23158986616063e+005,-1.20258337192730e+001,-3.26309756742869e+000

2.26274169979693e+005,-1.20258773846830e+001,-3.30853538278835e+000

2.29432839682530e+005,-1.20259220097579e+001,-3.35460318585887e+000

2.32635602771247e+005,-1.20259676079904e+001,-3.40130962161155e+000

2.35883074766574e+005,-1.20260141926226e+001,-3.44866345142478e+000

2.39175879781588e+005,-1.20260617766128e+001,-3.49667355464854e+000

2.42514650641661e+005,-1.20261103726014e+001,-3.54534893019301e+000

2.45900029006080e+005,-1.20261599928746e+001,-3.59469869814393e+000

2.49332665491357e+005,-1.20262106493269e+001,-3.64473210140354e+000

2.52813219796278e+005,-1.20262623534215e+001,-3.69545850736022e+000

2.56342360828676e+005,-1.20263151161482e+001,-3.74688740958787e+000

2.59920766833993e+005,-1.20263689479809e+001,-3.79902842957135e+000

2.63549125525621e+005,-1.20264238588318e+001,-3.85189131846575e+000

2.67228134217075e+005,-1.20264798580044e+001,-3.90548595888435e+000

2.70958499956006e+005,-1.20265369541445e+001,-3.95982236672021e+000

2.74740939660078e+005,-1.20265951551884e+001,-4.01491069300066e+000

2.78576180254757e+005,-1.20266544683106e+001,-4.07076122577502e+000

2.82464958813007e+005,-1.20267148998678e+001,-4.12738439203930e+000

2.86408022696948e+005,-1.20267764553420e+001,-4.18479075969571e+000

2.90406129701488e+005,-1.20268391392810e+001,-4.24299103955073e+000

2.94460048199957e+005,-1.20269029552364e+001,-4.30199608735132e+000

2.98570557291775e+005,-1.20269679057010e+001,-4.36181690586119e+000

3.02738446952187e+005,-1.20270339920423e+001,-4.42246464697724e+000

3.06964518184081e+005,-1.20271012144349e+001,-4.48395061389002e+000

3.11249583171928e+005,-1.20271695717908e+001,-4.54628626328636e+000

3.15594465437872e+005,-1.20272390616877e+001,-4.60948320759699e+000

3.19999999999997e+005,-1.20273096802947e+001,-4.67355321729049e+000

3.24467033532806e+005,-1.20273814222965e+001,-4.73850822321563e+000

3.28996424529938e+005,-1.20274542808157e+001,-4.80436031899017e+000

3.33589043469155e+005,-1.20275282473333e+001,-4.87112176344239e+000

3.38245772979638e+005,-1.20276033116066e+001,-4.93880498310260e+000

3.42967508011610e+005,-1.20276794615864e+001,-5.00742257474851e+000

3.47755156008335e+005,-1.20277566833316e+001,-5.07698730800389e+000

3.52609637080511e+005,-1.20278349609232e+001,-5.14751212799362e+000

3.57531884183106e+005,-1.20279142763754e+001,-5.21901015805610e+000

3.62522843294651e+005,-1.20279946095467e+001,-5.29149470251293e+000

3.67583473599047e+005,-1.20280759380492e+001,-5.36497924950013e+000

3.72714747669902e+005,-1.20281582371560e+001,-5.43947747385861e+000

3.77917651657445e+005,-1.20282414797090e+001,-5.51500324008883e+000

3.83193185478053e+005,-1.20283256360243e+001,-5.59157060536813e+000

3.88542363006410e+005,-1.20284106737984e+001,-5.66919382263379e+000

3.93966212270369e+005,-1.20284965580124e+001,-5.74788734373182e+000

3.99465775648511e+005,-1.20285832508366e+001,-5.82766582263408e+000

4.05042110070485e+005,-1.20286707115349e+001,-5.90854411872312e+000

4.10696287220124e+005,-1.20287588963689e+001,-5.99053730014714e+000

4.16429393741414e+005,-1.20288477585020e+001,-6.07366064724626e+000

4.22242531447321e+005,-1.20289372479044e+001,-6.15792965604984e+000

4.28136817531551e+005,-1.20290273112584e+001,-6.24336004184655e+000

4.34113384783250e+005,-1.20291178918642e+001,-6.32996774282851e+000

4.40173381804713e+005,-1.20292089295474e+001,-6.41776892380924e+000

4.46317973232124e+005,-1.20293003605669e+001,-6.50677998001669e+000

4.52548339959385e+005,-1.20293921175253e+001,-6.59701754096124e+000

4.58865679365059e+005,-1.20294841292796e+001,-6.68849847438145e+000

4.65271205542494e+005,-1.20295763208557e+001,-6.78123989026395e+000

4.71766149533147e+005,-1.20296686133633e+001,-6.87525914494198e+000

4.78351759563174e+005,-1.20297609239142e+001,-6.97057384526994e+000

4.85029301283321e+005,-1.20298531655432e+001,-7.06720185287519e+000

4.91800058012158e+005,-1.20299452471314e+001,-7.16516128848721e+000

4.98665330982714e+005,-1.20300370733334e+001,-7.26447053634363e+000

5.05626439592555e+005,-1.20301285445067e+001,-7.36514824867262e+000

5.12684721657352e+005,-1.20302195566458e+001,-7.46721335025275e+000

5.19841533667984e+005,-1.20303100013193e+001,-7.57068504304829e+000

5.27098251051240e+005,-1.20303997656111e+001,-7.67558281091975e+000

5.34456268434150e+005,-1.20304887320659e+001,-7.78192642441099e+000

5.41916999912011e+005,-1.20305767786385e+001,-7.88973594560879e+000

