Freq.,VOut,OutRef

1.00000000000000e+004,-2.24712463607057e+001,-1.32808343180444e-001

1.01395947979003e+004,-2.24712469589445e+001,-1.34662243220974e-001

1.02811382665607e+004,-2.24712475739982e+001,-1.36542021241183e-001

1.04246576084112e+004,-2.24712482063396e+001,-1.38448038420127e-001

1.05701804056138e+004,-2.24712488564543e+001,-1.40380660976041e-001

1.07177346253629e+004,-2.24712495248417e+001,-1.42340260237904e-001

1.08673486252606e+004,-2.24712502120151e+001,-1.44327212715184e-001

1.10190511587661e+004,-2.24712509185028e+001,-1.46341900166462e-001

1.11728713807222e+004,-2.24712516448471e+001,-1.48384709682382e-001

1.13288388529580e+004,-2.24712523916063e+001,-1.50456033748027e-001

1.14869835499703e+004,-2.24712531593537e+001,-1.52556270328408e-001

1.16473358646846e+004,-2.24712539486793e+001,-1.54685822936906e-001

1.18099266142953e+004,-2.24712547601892e+001,-1.56845100718233e-001

1.19747870461893e+004,-2.24712555945067e+001,-1.59034518523454e-001

1.21419488439505e+004,-2.24712564522727e+001,-1.61254496991452e-001

1.23114441334492e+004,-2.24712573341460e+001,-1.63505462627950e-001

1.24833054890161e+004,-2.24712582408039e+001,-1.65787847888589e-001

1.26575659397028e+004,-2.24712591729427e+001,-1.68102091260406e-001

1.28342589756290e+004,-2.24712601312784e+001,-1.70448637347082e-001

1.30134185544193e+004,-2.24712611165467e+001,-1.72827936955235e-001

1.31950791077289e+004,-2.24712621295044e+001,-1.75240447177043e-001

1.33792755478611e+004,-2.24712631709292e+001,-1.77686631481807e-001

1.35660432744767e+004,-2.24712642416212e+001,-1.80166959799369e-001

1.37554181813974e+004,-2.24712653424021e+001,-1.82681908618655e-001

1.39474366635040e+004,-2.24712664741174e+001,-1.85231961070148e-001

1.41421356237309e+004,-2.24712676376359e+001,-1.87817607024377e-001

1.43395524801583e+004,-2.24712688338510e+001,-1.90439343181686e-001

1.45397251732031e+004,-2.24712700636811e+001,-1.93097673169585e-001

1.47426921729110e+004,-2.24712713280705e+001,-1.95793107639436e-001

1.49484924863494e+004,-2.24712726279897e+001,-1.98526164362868e-001

1.51571656651040e+004,-2.24712739644368e+001,-2.01297368330790e-001

1.53687518128801e+004,-2.24712753384375e+001,-2.04107251856297e-001

1.55832915932100e+004,-2.24712767510465e+001,-2.06956354672717e-001

1.58008262372675e+004,-2.24712782033483e+001,-2.09845224038400e-001

1.60213975517924e+004,-2.24712796964575e+001,-2.12774414843822e-001

1.62450479271247e+004,-2.24712812315200e+001,-2.15744489714703e-001

1.64718203453514e+004,-2.24712828097141e+001,-2.18756019119936e-001

1.67017583885674e+004,-2.24712844322509e+001,-2.21809581480924e-001

1.69349062472505e+004,-2.24712861003754e+001,-2.24905763284408e-001

1.71713087287550e+004,-2.24712878153677e+001,-2.28045159191619e-001

1.74110112659224e+004,-2.24712895785439e+001,-2.31228372151241e-001

1.76540599258131e+004,-2.24712913912567e+001,-2.34456013519053e-001

1.79005014185594e+004,-2.24712932548971e+001,-2.37728703169398e-001

1.81503831063432e+004,-2.24712951708946e+001,-2.41047069618391e-001

1.84037530124975e+004,-2.24712971407191e+001,-2.44411750140349e-001

1.86606598307361e+004,-2.24712991658820e+001,-2.47823390889616e-001

1.89211529345119e+004,-2.24713012479364e+001,-2.51282647028132e-001

1.91852823865052e+004,-2.24713033884793e+001,-2.54790182845416e-001

1.94530989482457e+004,-2.24713055891525e+001,-2.58346671886912e-001

1.97246540898671e+004,-2.24713078516437e+001,-2.61952797084585e-001

1.99999999999999e+004,-2.24713101776879e+001,-2.65609250883825e-001

2.02791895958005e+004,-2.24713125690687e+001,-2.69316735378603e-001

2.05622765331213e+004,-2.24713150276199e+001,-2.73075962442673e-001

2.08493152168224e+004,-2.24713175552261e+001,-2.76887653867855e-001

2.11403608112276e+004,-2.24713201538253e+001,-2.80752541499702e-001

2.14354692507258e+004,-2.24713228254095e+001,-2.84671367376914e-001

2.17346972505211e+004,-2.24713255720265e+001,-2.88644883872994e-001

2.20381023175322e+004,-2.24713283957813e+001,-2.92673853842725e-001

2.23457427614443e+004,-2.24713312988382e+001,-2.96759050760071e-001

2.26576777059159e+004,-2.24713342834218e+001,-3.00901258873479e-001

2.29739670999406e+004,-2.24713373518191e+001,-3.05101273349766e-001

2.32946717293690e+004,-2.24713405063808e+001,-3.09359900427735e-001

2.36198532285905e+004,-2.24713437495238e+001,-3.13677957570720e-001

2.39495740923785e+004,-2.24713470837326e+001,-3.18056273621185e-001

2.42838976879009e+004,-2.24713505115608e+001,-3.22495688961289e-001

2.46228882668982e+004,-2.24713540356338e+001,-3.26997055668644e-001

2.49666109780322e+004,-2.24713576586504e+001,-3.31561237680294e-001

2.53151318794055e+004,-2.24713613833845e+001,-3.36189110959005e-001

2.56685179512580e+004,-2.24713652126883e+001,-3.40881563652365e-001

2.60268371088386e+004,-2.24713691494929e+001,-3.45639496270881e-001

2.63901582154578e+004,-2.24713731968118e+001,-3.50463821851236e-001

2.67585510957221e+004,-2.24713773577427e+001,-3.55355466132756e-001

2.71320865489533e+004,-2.24713816354697e+001,-3.60315367731910e-001

2.75108363627948e+004,-2.24713860332661e+001,-3.65344478320250e-001

2.78948733270080e+004,-2.24713905544962e+001,-3.70443762807310e-001

2.82842712474618e+004,-2.24713952026188e+001,-3.75614199517327e-001

2.86791049603164e+004,-2.24713999811888e+001,-3.80856780381408e-001

2.90794503464061e+004,-2.24714048938606e+001,-3.86172511118960e-001

2.94853843458219e+004,-2.24714099443906e+001,-3.91562411432114e-001

2.98969849726987e+004,-2.24714151366400e+001,-3.97027515196632e-001

3.03143313302078e+004,-2.24714204745776e+001,-4.02568870658162e-001

3.07375036257601e+004,-2.24714259622828e+001,-4.08187540628957e-001

3.11665831864199e+004,-2.24714316039494e+001,-4.13884602688698e-001

3.16016524745350e+004,-2.24714374038874e+001,-4.19661149388591e-001

3.20427951035848e+004,-2.24714433665272e+001,-4.25518288457752e-001

3.24900958542493e+004,-2.24714494964228e+001,-4.31457143009200e-001

3.29436406907028e+004,-2.24714557982550e+001,-4.37478851754852e-001

3.34035167771346e+004,-2.24714622768349e+001,-4.43584569217831e-001

3.38698124945009e+004,-2.24714689371075e+001,-4.49775465950267e-001

3.43426174575100e+004,-2.24714757841557e+001,-4.56052728753021e-001

3.48220225318448e+004,-2.24714828232037e+001,-4.62417560897978e-001

3.53081198516260e+004,-2.24714900596213e+001,-4.68871182356123e-001

3.58010028371187e+004,-2.24714974989270e+001,-4.75414830025700e-001

3.63007662126863e+004,-2.24715051467937e+001,-4.82049757961236e-001

3.68075060249948e+004,-2.24715130090513e+001,-4.88777237613570e-001

3.73213196614721e+004,-2.24715210916918e+001,-4.95598558064326e-001

3.78423058690237e+004,-2.24715294008740e+001,-5.02515026267370e-001

3.83705647730104e+004,-2.24715379429273e+001,-5.09527967295221e-001

3.89061978964912e+004,-2.24715467243573e+001,-5.16638724584948e-001

3.94493081797342e+004,-2.24715557518496e+001,-5.23848660190132e-001

3.99999999999998e+004,-2.24715650322757e+001,-5.31159155032895e-001

4.05583791916010e+004,-2.24715745726973e+001,-5.38571609164492e-001

4.11245530662425e+004,-2.24715843803723e+001,-5.46087442022259e-001

4.16986304336447e+004,-2.24715944627592e+001,-5.53708092698345e-001

4.22807216224550e+004,-2.24716048275235e+001,-5.61435020202466e-001

4.28709385014515e+004,-2.24716154825427e+001,-5.69269703735935e-001

4.34693945010421e+004,-2.24716264359123e+001,-5.77213642966028e-001

4.40762046350642e+004,-2.24716376959518e+001,-5.85268358302996e-001

4.46914855228886e+004,-2.24716492712108e+001,-5.93435391181382e-001

4.53153554118317e+004,-2.24716611704752e+001,-6.01716304346053e-001

4.59479341998812e+004,-2.24716734027732e+001,-6.10112682142391e-001

4.65893434587380e+004,-2.24716859773827e+001,-6.18626130805158e-001

4.72397064571810e+004,-2.24716989038374e+001,-6.27258278758454e-001

4.78991481847569e+004,-2.24717121919343e+001,-6.36010776912282e-001

4.85677953758016e+004,-2.24717258517398e+001,-6.44885298970521e-001

4.92457765337964e+004,-2.24717398935982e+001,-6.53883541734168e-001

4.99332219560642e+004,-2.24717543281384e+001,-6.63007225415444e-001

5.06302637588109e+004,-2.24717691662818e+001,-6.72258093952542e-001

5.13370359025159e+004,-2.24717844192502e+001,-6.81637915328244e-001

5.20536742176771e+004,-2.24718000985737e+001,-6.91148481894988e-001

5.27803164309155e+004,-2.24718162160992e+001,-7.00791610699753e-001

5.35171021914442e+004,-2.24718327839990e+001,-7.10569143815968e-001

5.42641730979066e+004,-2.24718498147787e+001,-7.20482948681968e-001

5.50216727255895e+004,-2.24718673212872e+001,-7.30534918435107e-001

5.57897466540159e+004,-2.24718853167253e+001,-7.40726972259784e-001

5.65685424949235e+004,-2.24719038146549e+001,-7.51061055733934e-001

5.73582099206328e+004,-2.24719228290088e+001,-7.61539141180831e-001

5.81589006928121e+004,-2.24719423741010e+001,-7.72163228024465e-001

5.89707686916437e+004,-2.24719624646360e+001,-7.82935343152762e-001

5.97939699453972e+004,-2.24719831157194e+001,-7.93857541280298e-001

6.06286626604156e+004,-2.24720043428690e+001,-8.04931905318319e-001

6.14750072515201e+004,-2.24720261620249e+001,-8.16160546748316e-001

6.23331663728396e+004,-2.24720485895612e+001,-8.27545606000323e-001

6.32033049490698e+004,-2.24720716422973e+001,-8.39089252835027e-001

6.40855902071694e+004,-2.24720953375090e+001,-8.50793686731692e-001

6.49801917084985e+004,-2.24721196929414e+001,-8.62661137278594e-001

6.58872813814055e+004,-2.24721447268203e+001,-8.74693864569602e-001

6.68070335542691e+004,-2.24721704578653e+001,-8.86894159605212e-001

6.77396249890018e+004,-2.24721969053022e+001,-8.99264344697307e-001

6.86852349150199e+004,-2.24722240888764e+001,-9.11806773879375e-001

6.96440450636895e+004,-2.24722520288664e+001,-9.24523833319546e-001

7.06162397032520e+004,-2.24722807460972e+001,-9.37417941742958e-001

7.16020056742374e+004,-2.24723102619547e+001,-9.50491550852611e-001

7.26015324253724e+004,-2.24723405984001e+001,-9.63747145759262e-001

7.36150120499896e+004,-2.24723717779843e+001,-9.77187245415194e-001

7.46426393229441e+004,-2.24724038238633e+001,-9.90814403051227e-001

7.56846117380472e+004,-2.24724367598134e+001,-1.00463120662114e+000

7.67411295460207e+004,-2.24724706102474e+001,-1.01864027924715e+000

7.78123957929823e+004,-2.24725054002296e+001,-1.03284427967595e+000

7.88986163594682e+004,-2.24725411554936e+001,-1.04724590273186e+000

7.99999999999995e+004,-2.24725779024583e+001,-1.06184787978312e+000

8.11167583832018e+004,-2.24726156682452e+001,-1.07665297920671e+000

8.22491061324848e+004,-2.24726544806962e+001,-1.09166400685991e+000

8.33972608672892e+004,-2.24726943683912e+001,-1.10688380655974e+000

8.45614432449099e+004,-2.24727353606665e+001,-1.12231526056280e+000

8.57418770029029e+004,-2.24727774876336e+001,-1.13796129005202e+000

8.69387890020841e+004,-2.24728207801983e+001,-1.15382485562936e+000

8.81524092701283e+004,-2.24728652700800e+001,-1.16990895781213e+000

8.93829710457770e+004,-2.24729109898316e+001,-1.18621663753402e+000

9.06307108236633e+004,-2.24729579728598e+001,-1.20275097665150e+000

9.18958683997622e+004,-2.24730062534457e+001,-1.21951509845717e+000

9.31786869174758e+004,-2.24730558667659e+001,-1.23651216819290e+000

9.44794129143618e+004,-2.24731068489139e+001,-1.25374539357462e+000

9.57982963695136e+004,-2.24731592369221e+001,-1.27121802531548e+000

9.71355907516031e+004,-2.24732130687839e+001,-1.28893335765931e+000

9.84915530675926e+004,-2.24732683834766e+001,-1.30689472891569e+000

9.98664439121282e+004,-2.24733252209840e+001,-1.32510552200137e+000

1.01260527517622e+005,-2.24733836223208e+001,-1.34356916498542e+000

1.02674071805032e+005,-2.24734436295553e+001,-1.36228913164207e+000

1.04107348435354e+005,-2.24735052858350e+001,-1.38126894200400e+000

1.05560632861831e+005,-2.24735686354103e+001,-1.40051216292432e+000

1.07034204382888e+005,-2.24736337236602e+001,-1.42002240864253e+000

1.08528346195813e+005,-2.24737005971175e+001,-1.43980334135404e+000

1.10043345451179e+005,-2.24737693034951e+001,-1.45985867178498e+000

1.11579493308032e+005,-2.24738398917118e+001,-1.48019215977373e+000

1.13137084989847e+005,-2.24739124119194e+001,-1.50080761485460e+000

1.14716419841265e+005,-2.24739869155299e+001,-1.52170889684725e+000

1.16317801385624e+005,-2.24740634552425e+001,-1.54289991645202e+000

1.17941537383287e+005,-2.24741420850716e+001,-1.56438463584874e+000

1.19587939890794e+005,-2.24742228603753e+001,-1.58616706929962e+000

1.21257325320831e+005,-2.24743058378834e+001,-1.60825128375934e+000

1.22950014503040e+005,-2.24743910757268e+001,-1.63064139948783e+000

1.24666332745679e+005,-2.24744786334662e+001,-1.65334159066715e+000

1.26406609898139e+005,-2.24745685721219e+001,-1.67635608602584e+000

1.28171180414339e+005,-2.24746609542037e+001,-1.69968916946480e+000

1.29960383416997e+005,-2.24747558437407e+001,-1.72334518068986e+000

1.31774562762811e+005,-2.24748533063115e+001,-1.74732851584873e+000

1.33614067108538e+005,-2.24749534090755e+001,-1.77164362817042e+000

1.35479249978003e+005,-2.24750562208029e+001,-1.79629502861335e+000

1.37370469830040e+005,-2.24751618119063e+001,-1.82128728651373e+000

1.39288090127379e+005,-2.24752702544714e+001,-1.84662503024216e+000

1.41232479406504e+005,-2.24753816222890e+001,-1.87231294786129e+000

1.43204011348474e+005,-2.24754959908855e+001,-1.89835578779255e+000

1.45203064850745e+005,-2.24756134375557e+001,-1.92475835948273e+000

1.47230024099979e+005,-2.24757340413934e+001,-1.95152553407868e+000

1.49285278645888e+005,-2.24758578833238e+001,-1.97866224510545e+000

1.51369223476094e+005,-2.24759850461343e+001,-2.00617348914956e+000

1.53482259092041e+005,-2.24761156145074e+001,-2.03406432654572e+000

1.55624791585964e+005,-2.24762496750512e+001,-2.06233988207074e+000

1.57797232718936e+005,-2.24763873163316e+001,-2.09100534564050e+000

1.59999999999999e+005,-2.24765286289032e+001,-2.12006597301226e+000

1.62233516766403e+005,-2.24766737053405e+001,-2.14952708649277e+000

1.64498212264969e+005,-2.24768226402689e+001,-2.17939407565134e+000

1.66794521734578e+005,-2.24769755303954e+001,-2.20967239803669e+000

1.69122886489819e+005,-2.24771324745386e+001,-2.24036757990264e+000

1.71483754005805e+005,-2.24772935736588e+001,-2.27148521693539e+000

1.73877578004168e+005,-2.24774589308875e+001,-2.30303097498963e+000

1.76304818540256e+005,-2.24776286515559e+001,-2.33501059082929e+000

1.78765942091554e+005,-2.24778028432239e+001,-2.36742987287498e+000

1.81261421647326e+005,-2.24779816157074e+001,-2.40029470195713e+000

1.83791736799524e+005,-2.24781650811056e+001,-2.43361103207654e+000

1.86357373834951e+005,-2.24783533538271e+001,-2.46738489117222e+000

1.88958825828723e+005,-2.24785465506158e+001,-2.50162238189510e+000

1.91596592739027e+005,-2.24787447905755e+001,-2.53632968239137e+000

1.94271181503206e+005,-2.24789481951930e+001,-2.57151304709215e+000

1.96983106135185e+005,-2.24791568883616e+001,-2.60717880751276e+000

1.99732887824256e+005,-2.24793709964023e+001,-2.64333337306014e+000

2.02521055035243e+005,-2.24795906480841e+001,-2.67998323185013e+000

2.05348143610063e+005,-2.24798159746436e+001,-2.71713495153437e+000

2.08214696870707e+005,-2.24800471098026e+001,-2.75479518013827e+000

2.11121265723661e+005,-2.24802841897845e+001,-2.79297064690960e+000

2.14068408765776e+005,-2.24805273533298e+001,-2.83166816317772e+000

2.17056692391625e+005,-2.24807767417092e+001,-2.87089462322881e+000

2.20086690902357e+005,-2.24810324987354e+001,-2.91065700518993e+000

2.23158986616063e+005,-2.24812947707740e+001,-2.95096237192974e+000

2.26274169979693e+005,-2.24815637067509e+001,-2.99181787197434e+000

2.29432839682530e+005,-2.24818394581603e+001,-3.03323074043668e+000

2.32635602771247e+005,-2.24821221790677e+001,-3.07520829996570e+000

2.35883074766574e+005,-2.24824120261145e+001,-3.11775796171043e+000

2.39175879781588e+005,-2.24827091585173e+001,-3.16088722630487e+000

2.42514650641661e+005,-2.24830137380673e+001,-3.20460368487244e+000

2.45900029006080e+005,-2.24833259291267e+001,-3.24891502005107e+000

2.49332665491357e+005,-2.24836458986229e+001,-3.29382900704226e+000

2.52813219796278e+005,-2.24839738160408e+001,-3.33935351468158e+000

2.56342360828676e+005,-2.24843098534121e+001,-3.38549650653777e+000

2.59920766833993e+005,-2.24846541853035e+001,-3.43226604203551e+000

2.63549125525621e+005,-2.24850069888015e+001,-3.47967027760810e+000

2.67228134217075e+005,-2.24853684434952e+001,-3.52771746788057e+000

2.70958499956006e+005,-2.24857387314571e+001,-3.57641596688226e+000

2.74740939660078e+005,-2.24861180372207e+001,-3.62577422929569e+000

2.78576180254757e+005,-2.24865065477570e+001,-3.67580081173779e+000

2.82464958813007e+005,-2.24869044524473e+001,-3.72650437408038e+000

2.86408022696948e+005,-2.24873119430550e+001,-3.77789368080805e+000

2.90406129701488e+005,-2.24877292136944e+001,-3.82997760241853e+000

2.94460048199957e+005,-2.24881564607979e+001,-3.88276511686430e+000

2.98570557291775e+005,-2.24885938830804e+001,-3.93626531104163e+000

3.02738446952187e+005,-2.24890416815026e+001,-3.99048738232441e+000

3.06964518184081e+005,-2.24895000592324e+001,-4.04544064015001e+000

3.11249583171928e+005,-2.24899692216038e+001,-4.10113450765482e+000

3.15594465437872e+005,-2.24904493760752e+001,-4.15757852336571e+000

3.19999999999997e+005,-2.24909407321860e+001,-4.21478234294601e+000

3.24467033532806e+005,-2.24914435015122e+001,-4.27275574100211e+000

3.28996424529938e+005,-2.24919578976213e+001,-4.33150861294972e+000

3.33589043469155e+005,-2.24924841360257e+001,-4.39105097694401e+000

3.38245772979638e+005,-2.24930224341374e+001,-4.45139297587602e+000

3.42967508011610e+005,-2.24935730112206e+001,-4.51254487943644e+000

3.47755156008335e+005,-2.24941360883469e+001,-4.57451708624972e+000

3.52609637080511e+005,-2.24947118883491e+001,-4.63732012608241e+000

3.57531884183106e+005,-2.24953006357772e+001,-4.70096466212436e+000

3.62522843294651e+005,-2.24959025568560e+001,-4.76546149334848e+000

3.67583473599047e+005,-2.24965178794437e+001,-4.83082155694923e+000

3.72714747669902e+005,-2.24971468329941e+001,-4.89705593086190e+000

3.77917651657445e+005,-2.24977896485208e+001,-4.96417583636648e+000

3.83193185478053e+005,-2.24984465585651e+001,-5.03219264077397e+000

3.88542363006410e+005,-2.24991177971684e+001,-5.10111786020221e+000

3.93966212270369e+005,-2.24998035998485e+001,-5.17096316243722e+000

3.99465775648511e+005,-2.25005042035816e+001,-5.24174036988587e+000

4.05042110070485e+005,-2.25012198467903e+001,-5.31346146261748e+000

4.10696287220124e+005,-2.25019507693378e+001,-5.38613858149852e+000

4.16429393741414e+005,-2.25026972125296e+001,-5.45978403141868e+000

4.22242531447321e+005,-2.25034594191234e+001,-5.53441028460974e+000

4.28136817531551e+005,-2.25042376333471e+001,-5.61002998405854e+000

4.34113384783250e+005,-2.25050321009273e+001,-5.68665594701171e+000

4.40173381804713e+005,-2.25058430691271e+001,-5.76430116857415e+000

4.46317973232124e+005,-2.25066707867961e+001,-5.84297882539902e+000

4.52548339959385e+005,-2.25075155044313e+001,-5.92270227947106e+000

4.58865679365059e+005,-2.25083774742513e+001,-6.00348508197746e+000

4.65271205542494e+005,-2.25092569502841e+001,-6.08534097726946e+000

4.71766149533147e+005,-2.25101541884694e+001,-6.16828390691000e+000

4.78351759563174e+005,-2.25110694467756e+001,-6.25232801380674e+000

4.85029301283321e+005,-2.25120029853337e+001,-6.33748764642629e+000

4.91800058012158e+005,-2.25129550665877e+001,-6.42377736308826e+000

4.98665330982714e+005,-2.25139259554628e+001,-6.51121193633550e+000

5.05626439592555e+005,-2.25149159195520e+001,-6.59980635737574e+000

5.12684721657352e+005,-2.25159252293225e+001,-6.68957584059269e+000

5.19841533667984e+005,-2.25169541583418e+001,-6.78053582811974e+000

5.27098251051240e+005,-2.25180029835247e+001,-6.87270199447424e+000

5.34456268434150e+005,-2.25190719854018e+001,-6.96609025124447e+000

5.41916999912011e+005,-2.25201614484104e+001,-7.06071675182648e+000

