Freq.,VOut,OutRef

1.00000000000000e+004,-3.63582927562128e+000,-5.98551162701271e-002

1.01395947979003e+004,-3.63582934800074e+000,-6.06906542903651e-002

1.02811382665607e+004,-3.63582942241409e+000,-6.15378556362638e-002

1.04246576084112e+004,-3.63582949891842e+000,-6.23968831068973e-002

1.05701804056138e+004,-3.63582957757267e+000,-6.32679017721589e-002

1.07177346253629e+004,-3.63582965843691e+000,-6.41510790085992e-002

1.08673486252606e+004,-3.63582974157376e+000,-6.50465845230693e-002

1.10190511587661e+004,-3.63582982704635e+000,-6.59545903990310e-002

1.11728713807222e+004,-3.63582991492088e+000,-6.68752711125108e-002

1.13288388529580e+004,-3.63583000526440e+000,-6.78088035813689e-002

1.14869835499703e+004,-3.63583009814649e+000,-6.87553671878199e-002

1.16473358646846e+004,-3.63583019363815e+000,-6.97151438208198e-002

1.18099266142953e+004,-3.63583029181299e+000,-7.06883179037313e-002

1.19747870461893e+004,-3.63583039274614e+000,-7.16750764365877e-002

1.21419488439505e+004,-3.63583049651517e+000,-7.26756090270219e-002

1.23114441334492e+004,-3.63583060319956e+000,-7.36901079302013e-002

1.24833054890161e+004,-3.63583071288144e+000,-7.47187680809895e-002

1.26575659397028e+004,-3.63583082564454e+000,-7.57617871394069e-002

1.28342589756290e+004,-3.63583094157583e+000,-7.68193655173351e-002

1.30134185544193e+004,-3.63583106076392e+000,-7.78917064287962e-002

1.31950791077289e+004,-3.63583118330024e+000,-7.89790159205481e-002

1.33792755478611e+004,-3.63583130927916e+000,-8.00815029123052e-002

1.35660432744767e+004,-3.63583143879686e+000,-8.11993792444019e-002

1.37554181813974e+004,-3.63583157195287e+000,-8.23328597083384e-002

1.39474366635040e+004,-3.63583170884928e+000,-8.34821620942417e-002

1.41421356237309e+004,-3.63583184959102e+000,-8.46475072311156e-002

1.43395524801583e+004,-3.63583199428628e+000,-8.58291190269949e-002

1.45397251732031e+004,-3.63583214304570e+000,-8.70272245171817e-002

1.47426921729110e+004,-3.63583229598328e+000,-8.82420539040028e-002

1.49484924863494e+004,-3.63583245321647e+000,-8.94738405985714e-002

1.51571656651040e+004,-3.63583261486593e+000,-9.07228212700010e-002

1.53687518128801e+004,-3.63583278105526e+000,-9.19892358910766e-002

1.55832915932100e+004,-3.63583295191186e+000,-9.32733277810210e-002

1.58008262372675e+004,-3.63583312756697e+000,-9.45753436514954e-002

1.60213975517924e+004,-3.63583330815487e+000,-9.58955336602666e-002

1.62450479271247e+004,-3.63583349381392e+000,-9.72341514524752e-002

1.64718203453514e+004,-3.63583368468675e+000,-9.85914542090050e-002

1.67017583885674e+004,-3.63583388091930e+000,-9.99677027034100e-002

1.69349062472505e+004,-3.63583408266183e+000,-1.01363161344617e-001

1.71713087287550e+004,-3.63583429006900e+000,-1.02778098229025e-001

1.74110112659224e+004,-3.63583450329964e+000,-1.04212785193667e-001

1.76540599258131e+004,-3.63583472251687e+000,-1.05667497868145e-001

1.79005014185594e+004,-3.63583494788879e+000,-1.07142515724001e-001

1.81503831063432e+004,-3.63583517958786e+000,-1.08638122133150e-001

1.84037530124975e+004,-3.63583541779154e+000,-1.10154604418964e-001

1.86606598307361e+004,-3.63583566268194e+000,-1.11692253913718e-001

1.89211529345119e+004,-3.63583591444662e+000,-1.13251366011041e-001

1.91852823865052e+004,-3.63583617327823e+000,-1.14832240225004e-001

1.94530989482457e+004,-3.63583643937474e+000,-1.16435180247213e-001

1.97246540898671e+004,-3.63583671293992e+000,-1.18060494003371e-001

1.99999999999999e+004,-3.63583699418295e+000,-1.19708493714252e-001

2.02791895958005e+004,-3.63583728331869e+000,-1.21379495956440e-001

2.05622765331213e+004,-3.63583758056853e+000,-1.23073821717617e-001

2.08493152168224e+004,-3.63583788615972e+000,-1.24791796462924e-001

2.11403608112276e+004,-3.63583820032565e+000,-1.26533750197962e-001

2.14354692507258e+004,-3.63583852330688e+000,-1.28300017524555e-001

2.17346972505211e+004,-3.63583885534987e+000,-1.30090937716250e-001

2.20381023175322e+004,-3.63583919670848e+000,-1.31906854772614e-001

2.23457427614443e+004,-3.63583954764338e+000,-1.33748117491601e-001

2.26576777059159e+004,-3.63583990842292e+000,-1.35615079531056e-001

2.29739670999406e+004,-3.63584027932232e+000,-1.37508099483465e-001

2.32946717293690e+004,-3.63584066062502e+000,-1.39427540936392e-001

2.36198532285905e+004,-3.63584105262189e+000,-1.41373772549553e-001

2.39495740923785e+004,-3.63584145561238e+000,-1.43347168117746e-001

2.42838976879009e+004,-3.63584186990396e+000,-1.45348106648313e-001

2.46228882668982e+004,-3.63584229581255e+000,-1.47376972432762e-001

2.49666109780322e+004,-3.63584273366312e+000,-1.49434155116561e-001

2.53151318794055e+004,-3.63584318378955e+000,-1.51520049776837e-001

2.56685179512580e+004,-3.63584364653522e+000,-1.53635056995256e-001

2.60268371088386e+004,-3.63584412225262e+000,-1.55779582938941e-001

2.63901582154578e+004,-3.63584461130452e+000,-1.57954039431929e-001

2.67585510957221e+004,-3.63584511406348e+000,-1.60158844039157e-001

2.71320865489533e+004,-3.63584563091237e+000,-1.62394420143622e-001

2.75108363627948e+004,-3.63584616224482e+000,-1.64661197026984e-001

2.78948733270080e+004,-3.63584670846543e+000,-1.66959609951430e-001

2.82842712474618e+004,-3.63584726998965e+000,-1.69290100245555e-001

2.86791049603164e+004,-3.63584784724514e+000,-1.71653115382343e-001

2.90794503464061e+004,-3.63584844067065e+000,-1.74049109072401e-001

2.94853843458219e+004,-3.63584905071759e+000,-1.76478541343141e-001

2.98969849726987e+004,-3.63584967784979e+000,-1.78941878630554e-001

3.03143313302078e+004,-3.63585032254382e+000,-1.81439593867265e-001

3.07375036257601e+004,-3.63585098528938e+000,-1.83972166573302e-001

3.11665831864199e+004,-3.63585166658989e+000,-1.86540082944783e-001

3.16016524745350e+004,-3.63585236696257e+000,-1.89143835949475e-001

3.20427951035848e+004,-3.63585308693896e+000,-1.91783925418729e-001

3.24900958542493e+004,-3.63585382706525e+000,-1.94460858143668e-001

3.29436406907028e+004,-3.63585458790282e+000,-1.97175147970033e-001

3.34035167771346e+004,-3.63585537002825e+000,-1.99927315899057e-001

3.38698124945009e+004,-3.63585617403441e+000,-2.02717890181866e-001

3.43426174575100e+004,-3.63585700053035e+000,-2.05547406422934e-001

3.48220225318448e+004,-3.63585785014173e+000,-2.08416407682828e-001

3.53081198516260e+004,-3.63585872351163e+000,-2.11325444578173e-001

3.58010028371187e+004,-3.63585962130072e+000,-2.14275075388658e-001

3.63007662126863e+004,-3.63586054418784e+000,-2.17265866161605e-001

3.68075060249948e+004,-3.63586149287065e+000,-2.20298390819120e-001

3.73213196614721e+004,-3.63586246806567e+000,-2.23373231269725e-001

3.78423058690237e+004,-3.63586347050930e+000,-2.26490977514086e-001

3.83705647730104e+004,-3.63586450095794e+000,-2.29652227762163e-001

3.89061978964912e+004,-3.63586556018907e+000,-2.32857588540240e-001

3.94493081797342e+004,-3.63586664900116e+000,-2.36107674811387e-001

3.99999999999998e+004,-3.63586776821446e+000,-2.39403110090422e-001

4.05583791916010e+004,-3.63586891867186e+000,-2.42744526559194e-001

4.11245530662425e+004,-3.63587010123922e+000,-2.46132565188832e-001

4.16986304336447e+004,-3.63587131680595e+000,-2.49567875860447e-001

4.22807216224550e+004,-3.63587256628581e+000,-2.53051117487212e-001

4.28709385014515e+004,-3.63587385061723e+000,-2.56582958140649e-001

4.34693945010421e+004,-3.63587517076454e+000,-2.60164075172652e-001

4.40762046350642e+004,-3.63587652771798e+000,-2.63795155348418e-001

4.46914855228886e+004,-3.63587792249494e+000,-2.67476894971466e-001

4.53153554118317e+004,-3.63587935614017e+000,-2.71210000019106e-001

4.59479341998812e+004,-3.63588082972705e+000,-2.74995186270569e-001

4.65893434587380e+004,-3.63588234435766e+000,-2.78833179447360e-001

4.72397064571810e+004,-3.63588390116423e+000,-2.82724715344305e-001

4.78991481847569e+004,-3.63588550130941e+000,-2.86670539972035e-001

4.85677953758016e+004,-3.63588714598729e+000,-2.90671409695089e-001

4.92457765337964e+004,-3.63588883642418e+000,-2.94728091374469e-001

4.99332219560642e+004,-3.63589057387947e+000,-2.98841362511752e-001

5.06302637588109e+004,-3.63589235964594e+000,-3.03012011396789e-001

5.13370359025159e+004,-3.63589419505190e+000,-3.07240837249945e-001

5.20536742176771e+004,-3.63589608146070e+000,-3.11528650378230e-001

5.27803164309155e+004,-3.63589802027232e+000,-3.15876272323974e-001

5.35171021914442e+004,-3.63590001292432e+000,-3.20284536018345e-001

5.42641730979066e+004,-3.63590206089263e+000,-3.24754285937235e-001

5.50216727255895e+004,-3.63590416569247e+000,-3.29286378260235e-001

5.57897466540159e+004,-3.63590632887933e+000,-3.33881681029867e-001

5.65685424949235e+004,-3.63590855205037e+000,-3.38541074311574e-001

5.73582099206328e+004,-3.63591083684483e+000,-3.43265450361321e-001

5.81589006928121e+004,-3.63591318494538e+000,-3.48055713789639e-001

5.89707686916437e+004,-3.63591559807945e+000,-3.52912781729178e-001

5.97939699453972e+004,-3.63591807801980e+000,-3.57837584007659e-001

6.06286626604156e+004,-3.63592062658615e+000,-3.62831063317990e-001

6.14750072515201e+004,-3.63592324564602e+000,-3.67894175394773e-001

6.23331663728396e+004,-3.63592593711589e+000,-3.73027889191247e-001

6.32033049490698e+004,-3.63592870296228e+000,-3.78233187060580e-001

6.40855902071694e+004,-3.63593154520346e+000,-3.83511064932937e-001

6.49801917084985e+004,-3.63593446591015e+000,-3.88862532504260e-001

6.58872813814055e+004,-3.63593746720705e+000,-3.94288613420466e-001

6.68070335542691e+004,-3.63594055127394e+000,-3.99790345467041e-001

6.77396249890018e+004,-3.63594372034699e+000,-4.05368780761068e-001

6.86852349150199e+004,-3.63594697672038e+000,-4.11024985942615e-001

6.96440450636895e+004,-3.63595032274724e+000,-4.16760042373226e-001

7.06162397032520e+004,-3.63595376084122e+000,-4.22575046333568e-001

7.16020056742374e+004,-3.63595729347798e+000,-4.28471109223845e-001

7.26015324253724e+004,-3.63596092319620e+000,-4.34449357769942e-001

7.36150120499896e+004,-3.63596465259946e+000,-4.40510934227094e-001

7.46426393229441e+004,-3.63596848435750e+000,-4.46656996589308e-001

7.56846117380472e+004,-3.63597242120753e+000,-4.52888718802567e-001

7.67411295460207e+004,-3.63597646595607e+000,-4.59207290975851e-001

7.78123957929823e+004,-3.63598062148030e+000,-4.65613919600038e-001

7.88986163594682e+004,-3.63598489072926e+000,-4.72109827767807e-001

7.99999999999995e+004,-3.63598927672606e+000,-4.78696255393205e-001

8.11167583832018e+004,-3.63599378256883e+000,-4.85374459438983e-001

8.22491061324848e+004,-3.63599841143263e+000,-4.92145714143368e-001

8.33972608672892e+004,-3.63600316657109e+000,-4.99011311249362e-001

8.45614432449099e+004,-3.63600805131766e+000,-5.05972560240253e-001

8.57418770029029e+004,-3.63601306908768e+000,-5.13030788573354e-001

8.69387890020841e+004,-3.63601822337966e+000,-5.20187341920579e-001

8.81524092701283e+004,-3.63602351777727e+000,-5.27443584409084e-001

8.93829710457770e+004,-3.63602895595079e+000,-5.34800898865679e-001

9.06307108236633e+004,-3.63603454165860e+000,-5.42260687067458e-001

9.18958683997622e+004,-3.63604027874921e+000,-5.49824369988391e-001

9.31786869174758e+004,-3.63604617116265e+000,-5.57493388056180e-001

9.44794129143618e+004,-3.63605222293232e+000,-5.65269201406620e-001

9.57982963695136e+004,-3.63605843818678e+000,-5.73153290143736e-001

9.71355907516031e+004,-3.63606482115093e+000,-5.81147154604315e-001

9.84915530675926e+004,-3.63607137614812e+000,-5.89252315622003e-001

9.98664439121282e+004,-3.63607810760186e+000,-5.97470314795702e-001

1.01260527517622e+005,-3.63608502003697e+000,-6.05802714764494e-001

1.02674071805032e+005,-3.63609211808179e+000,-6.14251099479324e-001

1.04107348435354e+005,-3.63609940646940e+000,-6.22817074484518e-001

1.05560632861831e+005,-3.63610689003942e+000,-6.31502267197437e-001

1.07034204382888e+005,-3.63611457373932e+000,-6.40308327195597e-001

1.08528346195813e+005,-3.63612246262632e+000,-6.49236926502616e-001

1.10043345451179e+005,-3.63613056186865e+000,-6.58289759880683e-001

1.11579493308032e+005,-3.63613887674689e+000,-6.67468545127165e-001

1.13137084989847e+005,-3.63614741265588e+000,-6.76775023369140e-001

1.14716419841265e+005,-3.63615617510548e+000,-6.86210959368954e-001

1.16317801385624e+005,-3.63616516972221e+000,-6.95778141827508e-001

1.17941537383287e+005,-3.63617440225052e+000,-7.05478383692464e-001

1.19587939890794e+005,-3.63618387855396e+000,-7.15313522470362e-001

1.21257325320831e+005,-3.63619360461596e+000,-7.25285420544286e-001

1.22950014503040e+005,-3.63620358654139e+000,-7.35395965489751e-001

1.24666332745679e+005,-3.63621383055704e+000,-7.45647070399905e-001

1.26406609898139e+005,-3.63622434301292e+000,-7.56040674209119e-001

1.28171180414339e+005,-3.63623513038232e+000,-7.66578742027351e-001

1.29960383416997e+005,-3.63624619926314e+000,-7.77263265468782e-001

1.31774562762811e+005,-3.63625755637794e+000,-7.88096262992141e-001

1.33614067108538e+005,-3.63626920857441e+000,-7.99079780241455e-001

1.35479249978003e+005,-3.63628116282577e+000,-8.10215890389569e-001

1.37370469830040e+005,-3.63629342623034e+000,-8.21506694489070e-001

1.39288090127379e+005,-3.63630600601208e+000,-8.32954321822618e-001

1.41232479406504e+005,-3.63631890951982e+000,-8.44560930260843e-001

1.43204011348474e+005,-3.63633214422705e+000,-8.56328706621900e-001

1.45203064850745e+005,-3.63634571773110e+000,-8.68259867037172e-001

1.47230024099979e+005,-3.63635963775228e+000,-8.80356657318589e-001

1.49285278645888e+005,-3.63637391213276e+000,-8.92621353332216e-001

1.51369223476094e+005,-3.63638854883525e+000,-9.05056261374439e-001

1.53482259092041e+005,-3.63640355594142e+000,-9.17663718552480e-001

1.55624791585964e+005,-3.63641894164958e+000,-9.30446093172171e-001

1.57797232718936e+005,-3.63643471427312e+000,-9.43405785125069e-001

1.59999999999999e+005,-3.63645088223744e+000,-9.56545226283316e-001

1.62233516766403e+005,-3.63646745407739e+000,-9.69866880899071e-001

1.64498212264969e+005,-3.63648443843398e+000,-9.83373246006941e-001

1.66794521734578e+005,-3.63650184405085e+000,-9.97066851832339e-001

1.69122886489819e+005,-3.63651967977018e+000,-1.01095026220364e+000

1.71483754005805e+005,-3.63653795452835e+000,-1.02502607497117e+000

1.73877578004168e+005,-3.63655667735143e+000,-1.03929692242611e+000

1.76304818540256e+005,-3.63657585734939e+000,-1.05376547173253e+000

1.78765942091554e+005,-3.63659550371078e+000,-1.06843442535658e+000

1.81261421647326e+005,-3.63661562569618e+000,-1.08330652150671e+000

1.83791736799524e+005,-3.63663623263180e+000,-1.09838453457397e+000

1.86357373834951e+005,-3.63665733390156e+000,-1.11367127558518e+000

1.88958825828723e+005,-3.63667893893984e+000,-1.12916959265296e+000

1.91596592739027e+005,-3.63670105722240e+000,-1.14488237143939e+000

1.94271181503206e+005,-3.63672369825752e+000,-1.16081253562034e+000

1.96983106135185e+005,-3.63674687157605e+000,-1.17696304735883e+000

1.99732887824256e+005,-3.63677058672089e+000,-1.19333690778424e+000

2.02521055035243e+005,-3.63679485323580e+000,-1.20993715747598e+000

2.05348143610063e+005,-3.63681968065327e+000,-1.22676687695762e+000

2.08214696870707e+005,-3.63684507848194e+000,-1.24382918719348e+000

2.11121265723661e+005,-3.63687105619277e+000,-1.26112725009697e+000

2.14068408765776e+005,-3.63689762320464e+000,-1.27866426904264e+000

2.17056692391625e+005,-3.63692478886901e+000,-1.29644348938808e+000

2.20086690902357e+005,-3.63695256245388e+000,-1.31446819900187e+000

2.23158986616063e+005,-3.63698095312612e+000,-1.33274172880251e+000

2.26274169979693e+005,-3.63700996993391e+000,-1.35126745330135e+000

2.29432839682530e+005,-3.63703962178698e+000,-1.37004879116012e+000

2.32635602771247e+005,-3.63706991743655e+000,-1.38908920575295e+000

2.35883074766574e+005,-3.63710086545441e+000,-1.40839220573799e+000

2.39175879781588e+005,-3.63713247420993e+000,-1.42796134564258e+000

2.42514650641661e+005,-3.63716475184686e+000,-1.44780022645483e+000

2.45900029006080e+005,-3.63719770625845e+000,-1.46791249622743e+000

2.49332665491357e+005,-3.63723134506169e+000,-1.48830185069150e+000

2.52813219796278e+005,-3.63726567556997e+000,-1.50897203388300e+000

2.56342360828676e+005,-3.63730070476474e+000,-1.52992683878062e+000

2.59920766833993e+005,-3.63733643926584e+000,-1.55117010795521e+000

2.63549125525621e+005,-3.63737288530050e+000,-1.57270573423203e+000

2.67228134217075e+005,-3.63741004867093e+000,-1.59453766136816e+000

2.70958499956006e+005,-3.63744793472054e+000,-1.61666988474176e+000

2.74740939660078e+005,-3.63748654829912e+000,-1.63910645205576e+000

2.78576180254757e+005,-3.63752589372609e+000,-1.66185146405704e+000

2.82464958813007e+005,-3.63756597475280e+000,-1.68490907527196e+000

2.86408022696948e+005,-3.63760679452302e+000,-1.70828349475622e+000

2.90406129701488e+005,-3.63764835553228e+000,-1.73197898686285e+000

2.94460048199957e+005,-3.63769065958563e+000,-1.75599987202650e+000

2.98570557291775e+005,-3.63773370775420e+000,-1.78035052756579e+000

3.02738446952187e+005,-3.63777750032964e+000,-1.80503538850658e+000

3.06964518184081e+005,-3.63782203677811e+000,-1.83005894841996e+000

3.11249583171928e+005,-3.63786731569187e+000,-1.85542576028527e+000

3.15594465437872e+005,-3.63791333473996e+000,-1.88114043737121e+000

3.19999999999997e+005,-3.63796009061763e+000,-1.90720765413754e+000

3.24467033532806e+005,-3.63800757899387e+000,-1.93363214716127e+000

3.28996424529938e+005,-3.63805579445779e+000,-1.96041871608507e+000

3.33589043469155e+005,-3.63810473046396e+000,-1.98757222458815e+000

3.38245772979638e+005,-3.63815437927603e+000,-2.01509760138248e+000

3.42967508011610e+005,-3.63820473190918e+000,-2.04299984123517e+000

3.47755156008335e+005,-3.63825577807183e+000,-2.07128400601359e+000

3.52609637080511e+005,-3.63830750610542e+000,-2.09995522576116e+000

3.57531884183106e+005,-3.63835990292368e+000,-2.12901869979803e+000

3.62522843294651e+005,-3.63841295395068e+000,-2.15847969784944e+000

3.67583473599047e+005,-3.63846664305796e+000,-2.18834356120512e+000

3.72714747669902e+005,-3.63852095250073e+000,-2.21861570390655e+000

3.77917651657445e+005,-3.63857586285342e+000,-2.24930161396408e+000

3.83193185478053e+005,-3.63863135294424e+000,-2.28040685460664e+000

3.88542363006410e+005,-3.63868739978946e+000,-2.31193706556165e+000

3.93966212270369e+005,-3.63874397852707e+000,-2.34389796436738e+000

3.99465775648511e+005,-3.63880106234997e+000,-2.37629534771738e+000

4.05042110070485e+005,-3.63885862243896e+000,-2.40913509283964e+000

4.10696287220124e+005,-3.63891662789550e+000,-2.44242315890838e+000

4.16429393741414e+005,-3.63897504567471e+000,-2.47616558848888e+000

4.22242531447321e+005,-3.63903384051801e+000,-2.51036850902011e+000

4.28136817531551e+005,-3.63909297488634e+000,-2.54503813432869e+000

4.34113384783250e+005,-3.63915240889367e+000,-2.58018076618067e+000

4.40173381804713e+005,-3.63921210024099e+000,-2.61580279586668e+000

4.46317973232124e+005,-3.63927200415098e+000,-2.65191070582462e+000

4.52548339959385e+005,-3.63933207330329e+000,-2.68851107129744e+000

4.58865679365059e+005,-3.63939225777118e+000,-2.72561056202524e+000

4.65271205542494e+005,-3.63945250495892e+000,-2.76321594397551e+000

4.71766149533147e+005,-3.63951275954038e+000,-2.80133408110731e+000

4.78351759563174e+005,-3.63957296339945e+000,-2.83997193717132e+000

4.85029301283321e+005,-3.63963305557135e+000,-2.87913657754542e+000

4.91800058012158e+005,-3.63969297218612e+000,-2.91883517110518e+000

4.98665330982714e+005,-3.63975264641385e+000,-2.95907499212752e+000

5.05626439592555e+005,-3.63981200841149e+000,-2.99986342223136e+000

5.12684721657352e+005,-3.63987098527223e+000,-3.04120795234750e+000

5.19841533667984e+005,-3.63992950097657e+000,-3.08311618472555e+000

5.27098251051240e+005,-3.63998747634627e+000,-3.12559583496933e+000

5.34456268434150e+005,-3.64004482899997e+000,-3.16865473410671e+000

5.41916999912011e+005,-3.64010147331202e+000,-3.21230083068706e+000

