Freq.,VOut,OutRef

1.00000000000000e+004,-2.36645667842729e+001,-5.67349838794968e-001

1.01395947979003e+004,-2.36645714539660e+001,-5.75269587415695e-001

1.02811382665607e+004,-2.36645762549313e+001,-5.83299884814139e-001

1.04246576084112e+004,-2.36645811908587e+001,-5.91442273905061e-001

1.05701804056138e+004,-2.36645862655418e+001,-5.99698319129661e-001

1.07177346253629e+004,-2.36645914828810e+001,-6.08069606754605e-001

1.08673486252606e+004,-2.36645968468861e+001,-6.16557745177747e-001

1.10190511587661e+004,-2.36646023616796e+001,-6.25164365234456e-001

1.11728713807222e+004,-2.36646080315001e+001,-6.33891120511350e-001

1.13288388529580e+004,-2.36646138607050e+001,-6.42739687664255e-001

1.14869835499703e+004,-2.36646198537743e+001,-6.51711766736978e-001

1.16473358646846e+004,-2.36646260153140e+001,-6.60809081489963e-001

1.18099266142953e+004,-2.36646323500594e+001,-6.70033379728094e-001

1.19747870461893e+004,-2.36646388628788e+001,-6.79386433638678e-001

1.21419488439505e+004,-2.36646455587774e+001,-6.88870040127598e-001

1.23114441334492e+004,-2.36646524429013e+001,-6.98486021165848e-001

1.24833054890161e+004,-2.36646595205408e+001,-7.08236224138415e-001

1.26575659397028e+004,-2.36646667971350e+001,-7.18122522197493e-001

1.28342589756290e+004,-2.36646742782760e+001,-7.28146814621226e-001

1.30134185544193e+004,-2.36646819697127e+001,-7.38311027179044e-001

1.31950791077289e+004,-2.36646898773558e+001,-7.48617112497555e-001

1.33792755478611e+004,-2.36646980072822e+001,-7.59067050437404e-001

1.35660432744767e+004,-2.36647063657392e+001,-7.69662848471171e-001

1.37554181813974e+004,-2.36647149591499e+001,-7.80406542067088e-001

1.39474366635040e+004,-2.36647237941176e+001,-7.91300195080026e-001

1.41421356237309e+004,-2.36647328774315e+001,-8.02345900145670e-001

1.43395524801583e+004,-2.36647422160713e+001,-8.13545779080845e-001

1.45397251732031e+004,-2.36647518172128e+001,-8.24901983290718e-001

1.47426921729110e+004,-2.36647616882335e+001,-8.36416694179088e-001

1.49484924863494e+004,-2.36647718367183e+001,-8.48092123566361e-001

1.51571656651040e+004,-2.36647822704649e+001,-8.59930514113859e-001

1.53687518128801e+004,-2.36647929974900e+001,-8.71934139750581e-001

1.55832915932100e+004,-2.36648040260360e+001,-8.84105306109685e-001

1.58008262372675e+004,-2.36648153645764e+001,-8.96446350968075e-001

1.60213975517924e+004,-2.36648270218230e+001,-9.08959644695434e-001

1.62450479271247e+004,-2.36648390067323e+001,-9.21647590705045e-001

1.64718203453514e+004,-2.36648513285120e+001,-9.34512625915638e-001

1.67017583885674e+004,-2.36648639966291e+001,-9.47557221214267e-001

1.69349062472505e+004,-2.36648770208161e+001,-9.60783881931377e-001

1.71713087287550e+004,-2.36648904110788e+001,-9.74195148316864e-001

1.74110112659224e+004,-2.36649041777044e+001,-9.87793596027563e-001

1.76540599258131e+004,-2.36649183312688e+001,-1.00158183661762e+000

1.79005014185594e+004,-2.36649328826449e+001,-1.01556251803780e+000

1.81503831063432e+004,-2.36649478430112e+001,-1.02973832514107e+000

1.84037530124975e+004,-2.36649632238599e+001,-1.04411198019512e+000

1.86606598307361e+004,-2.36649790370061e+001,-1.05868624340161e+000

1.89211529345119e+004,-2.36649952945968e+001,-1.07346391342260e+000

1.91852823865052e+004,-2.36650120091197e+001,-1.08844782791633e+000

1.94530989482457e+004,-2.36650291934136e+001,-1.10364086407620e+000

1.97246540898671e+004,-2.36650468606778e+001,-1.11904593917956e+000

1.99999999999999e+004,-2.36650650244820e+001,-1.13466601114595e+000

2.02791895958005e+004,-2.36650836987771e+001,-1.15050407909944e+000

2.05622765331213e+004,-2.36651028979056e+001,-1.16656318393900e+000

2.08493152168224e+004,-2.36651226366128e+001,-1.18284640892147e+000

2.11403608112276e+004,-2.36651429300579e+001,-1.19935688024485e+000

2.14354692507258e+004,-2.36651637938258e+001,-1.21609776764559e+000

2.17346972505211e+004,-2.36651852439387e+001,-1.23307228500273e+000

2.20381023175322e+004,-2.36652072968689e+001,-1.25028369094804e+000

2.23457427614443e+004,-2.36652299695509e+001,-1.26773528948650e+000

2.26576777059159e+004,-2.36652532793945e+001,-1.28543043062552e+000

2.29739670999406e+004,-2.36652772442984e+001,-1.30337251101107e+000

2.32946717293690e+004,-2.36653018826635e+001,-1.32156497457405e+000

2.36198532285905e+004,-2.36653272134072e+001,-1.34001131318513e+000

2.39495740923785e+004,-2.36653532559777e+001,-1.35871506731682e+000

2.42838976879009e+004,-2.36653800303693e+001,-1.37767982671736e+000

2.46228882668982e+004,-2.36654075571371e+001,-1.39690923109138e+000

2.49666109780322e+004,-2.36654358574130e+001,-1.41640697079152e+000

2.53151318794055e+004,-2.36654649529221e+001,-1.43617678751795e+000

2.56685179512580e+004,-2.36654948659988e+001,-1.45622247502840e+000

2.60268371088386e+004,-2.36655256196043e+001,-1.47654787985759e+000

2.63901582154578e+004,-2.36655572373438e+001,-1.49715690204528e+000

2.67585510957221e+004,-2.36655897434848e+001,-1.51805349587688e+000

2.71320865489533e+004,-2.36656231629756e+001,-1.53924167063138e+000

2.75108363627948e+004,-2.36656575214641e+001,-1.56072549133941e+000

2.78948733270080e+004,-2.36656928453179e+001,-1.58250907955368e+000

2.82842712474618e+004,-2.36657291616437e+001,-1.60459661412830e+000

2.86791049603164e+004,-2.36657664983086e+001,-1.62699233200868e+000

2.90794503464061e+004,-2.36658048839611e+001,-1.64970052903195e+000

2.94853843458219e+004,-2.36658443480532e+001,-1.67272556073864e+000

2.98969849726987e+004,-2.36658849208623e+001,-1.69607184319419e+000

3.03143313302078e+004,-2.36659266335151e+001,-1.71974385382346e+000

3.07375036257601e+004,-2.36659695180105e+001,-1.74374613225415e+000

3.11665831864199e+004,-2.36660136072446e+001,-1.76808328117273e+000

3.16016524745350e+004,-2.36660589350355e+001,-1.79275996719145e+000

3.20427951035848e+004,-2.36661055361491e+001,-1.81778092172762e+000

3.24900958542493e+004,-2.36661534463256e+001,-1.84315094189253e+000

3.29436406907028e+004,-2.36662027023067e+001,-1.86887489139470e+000

3.34035167771346e+004,-2.36662533418637e+001,-1.89495770145408e+000

3.38698124945009e+004,-2.36663054038259e+001,-1.92140437172718e+000

3.43426174575100e+004,-2.36663589281106e+001,-1.94821997124691e+000

3.48220225318448e+004,-2.36664139557529e+001,-1.97540963937261e+000

3.53081198516260e+004,-2.36664705289378e+001,-2.00297858675262e+000

3.58010028371187e+004,-2.36665286910311e+001,-2.03093209630227e+000

3.63007662126863e+004,-2.36665884866133e+001,-2.05927552419131e+000

3.68075060249948e+004,-2.36666499615128e+001,-2.08801430084645e+000

3.73213196614721e+004,-2.36667131628415e+001,-2.11715393196567e+000

3.78423058690237e+004,-2.36667781390298e+001,-2.14669999954664e+000

3.83705647730104e+004,-2.36668449398635e+001,-2.17665816292918e+000

3.89061978964912e+004,-2.36669136165219e+001,-2.20703415984916e+000

3.94493081797342e+004,-2.36669842216164e+001,-2.23783380750795e+000

3.99999999999998e+004,-2.36670568092304e+001,-2.26906300365530e+000

4.05583791916010e+004,-2.36671314349603e+001,-2.30072772768598e+000

4.11245530662425e+004,-2.36672081559574e+001,-2.33283404175033e+000

4.16986304336447e+004,-2.36672870309715e+001,-2.36538809188017e+000

4.22807216224550e+004,-2.36673681203954e+001,-2.39839610912696e+000

4.28709385014515e+004,-2.36674514863099e+001,-2.43186441071820e+000

4.34693945010421e+004,-2.36675371925317e+001,-2.46579940122427e+000

4.40762046350642e+004,-2.36676253046611e+001,-2.50020757374355e+000

4.46914855228886e+004,-2.36677158901313e+001,-2.53509551110080e+000

4.53153554118317e+004,-2.36678090182601e+001,-2.57046988706151e+000

4.59479341998812e+004,-2.36679047603015e+001,-2.60633746756135e+000

4.65893434587380e+004,-2.36680031894995e+001,-2.64270511195102e+000

4.72397064571810e+004,-2.36681043811439e+001,-2.67957977425624e+000

4.78991481847569e+004,-2.36682084126264e+001,-2.71696850445530e+000

4.85677953758016e+004,-2.36683153634991e+001,-2.75487844977041e+000

4.92457765337964e+004,-2.36684253155345e+001,-2.79331685597581e+000

4.99332219560642e+004,-2.36685383527867e+001,-2.83229106872393e+000

5.06302637588109e+004,-2.36686545616551e+001,-2.87180853488390e+000

5.13370359025159e+004,-2.36687740309484e+001,-2.91187680390138e+000

5.20536742176771e+004,-2.36688968519525e+001,-2.95250352917070e+000

5.27803164309155e+004,-2.36690231184977e+001,-2.99369646942686e+000

5.35171021914442e+004,-2.36691529270301e+001,-3.03546349015277e+000

5.42641730979066e+004,-2.36692863766832e+001,-3.07781256500442e+000

5.50216727255895e+004,-2.36694235693524e+001,-3.12075177725202e+000

5.57897466540159e+004,-2.36695646097711e+001,-3.16428932124058e+000

5.65685424949235e+004,-2.36697096055892e+001,-3.20843350386510e+000

5.73582099206328e+004,-2.36698586674530e+001,-3.25319274606620e+000

5.81589006928121e+004,-2.36700119090887e+001,-3.29857558434101e+000

5.89707686916437e+004,-2.36701694473861e+001,-3.34459067227347e+000

5.97939699453972e+004,-2.36703314024865e+001,-3.39124678208181e+000

6.06286626604156e+004,-2.36704978978717e+001,-3.43855280618440e+000

6.14750072515201e+004,-2.36706690604563e+001,-3.48651775878271e+000

6.23331663728396e+004,-2.36708450206812e+001,-3.53515077746462e+000

6.32033049490698e+004,-2.36710259126116e+001,-3.58446112482342e+000

6.40855902071694e+004,-2.36712118740353e+001,-3.63445819009734e+000

6.49801917084985e+004,-2.36714030465655e+001,-3.68515149082667e+000

6.58872813814055e+004,-2.36715995757452e+001,-3.73655067452936e+000

6.68070335542691e+004,-2.36718016111550e+001,-3.78866552039558e+000

6.77396249890018e+004,-2.36720093065239e+001,-3.84150594100104e+000

6.86852349150199e+004,-2.36722228198420e+001,-3.89508198403874e+000

6.96440450636895e+004,-2.36724423134775e+001,-3.94940383407019e+000

7.06162397032520e+004,-2.36726679542959e+001,-4.00448181429520e+000

7.16020056742374e+004,-2.36728999137829e+001,-4.06032638833999e+000

7.26015324253724e+004,-2.36731383681701e+001,-4.11694816206563e+000

7.36150120499896e+004,-2.36733834985643e+001,-4.17435788539412e+000

7.46426393229441e+004,-2.36736354910804e+001,-4.23256645415463e+000

7.56846117380472e+004,-2.36738945369770e+001,-4.29158491194833e+000

7.67411295460207e+004,-2.36741608327964e+001,-4.35142445203171e+000

7.78123957929823e+004,-2.36744345805081e+001,-4.41209641921971e+000

7.88986163594682e+004,-2.36747159876555e+001,-4.47361231180794e+000

7.99999999999995e+004,-2.36750052675071e+001,-4.53598378351311e+000

8.11167583832018e+004,-2.36753026392110e+001,-4.59922264543292e+000

8.22491061324848e+004,-2.36756083279545e+001,-4.66334086802478e+000

8.33972608672892e+004,-2.36759225651261e+001,-4.72835058310361e+000

8.45614432449099e+004,-2.36762455884834e+001,-4.79426408585768e+000

8.57418770029029e+004,-2.36765776423242e+001,-4.86109383688359e+000

8.69387890020841e+004,-2.36769189776628e+001,-4.92885246424021e+000

8.81524092701283e+004,-2.36772698524098e+001,-4.99755276551988e+000

8.93829710457770e+004,-2.36776305315578e+001,-5.06720770993924e+000

9.06307108236633e+004,-2.36780012873706e+001,-5.13783044044689e+000

9.18958683997622e+004,-2.36783823995779e+001,-5.20943427585055e+000

9.31786869174758e+004,-2.36787741555752e+001,-5.28203271296000e+000

9.44794129143618e+004,-2.36791768506277e+001,-5.35563942874971e+000

9.57982963695136e+004,-2.36795907880804e+001,-5.43026828253781e+000

9.71355907516031e+004,-2.36800162795731e+001,-5.50593331818120e+000

9.84915530675926e+004,-2.36804536452604e+001,-5.58264876629006e+000

9.98664439121282e+004,-2.36809032140380e+001,-5.66042904645616e+000

1.01260527517622e+005,-2.36813653237739e+001,-5.73928876949936e+000

1.02674071805032e+005,-2.36818403215455e+001,-5.81924273972955e+000

1.04107348435354e+005,-2.36823285638832e+001,-5.90030595722383e+000

1.05560632861831e+005,-2.36828304170190e+001,-5.98249362011879e+000

1.07034204382888e+005,-2.36833462571417e+001,-6.06582112691897e+000

1.08528346195813e+005,-2.36838764706587e+001,-6.15030407881785e+000

1.10043345451179e+005,-2.36844214544631e+001,-6.23595828203461e+000

1.11579493308032e+005,-2.36849816162088e+001,-6.32279975016284e+000

1.13137084989847e+005,-2.36855573745906e+001,-6.41084470653352e+000

1.14716419841265e+005,-2.36861491596326e+001,-6.50010958658957e+000

1.16317801385624e+005,-2.36867574129818e+001,-6.59061104027310e+000

1.17941537383287e+005,-2.36873825882108e+001,-6.68236593442305e+000

1.19587939890794e+005,-2.36880251511252e+001,-6.77539135518468e+000

1.21257325320831e+005,-2.36886855800807e+001,-6.86970461042807e+000

1.22950014503040e+005,-2.36893643663057e+001,-6.96532323217684e+000

1.24666332745679e+005,-2.36900620142329e+001,-7.06226497904508e+000

1.26406609898139e+005,-2.36907790418371e+001,-7.16054783868187e+000

1.28171180414339e+005,-2.36915159809825e+001,-7.26019003022447e+000

1.29960383416997e+005,-2.36922733777766e+001,-7.36121000675548e+000

1.31774562762811e+005,-2.36930517929329e+001,-7.46362645776761e+000

1.33614067108538e+005,-2.36938518021415e+001,-7.56745831163159e+000

1.35479249978003e+005,-2.36946739964486e+001,-7.67272473806851e+000

1.37370469830040e+005,-2.36955189826436e+001,-7.77944515062450e+000

1.39288090127379e+005,-2.36963873836556e+001,-7.88763920914746e+000

1.41232479406504e+005,-2.36972798389587e+001,-7.99732682226323e+000

1.43204011348474e+005,-2.36981970049857e+001,-8.10852814985265e+000

1.45203064850745e+005,-2.36991395555509e+001,-8.22126360552649e+000

1.47230024099979e+005,-2.37001081822827e+001,-8.33555385909705e+000

1.49285278645888e+005,-2.37011035950649e+001,-8.45141983904658e+000

1.51369223476094e+005,-2.37021265224876e+001,-8.56888273498985e+000

1.53482259092041e+005,-2.37031777123078e+001,-8.68796400012968e+000

1.55624791585964e+005,-2.37042579319191e+001,-8.80868535370597e+000

1.57797232718936e+005,-2.37053679688326e+001,-8.93106878343403e+000

1.59999999999999e+005,-2.37065086311658e+001,-9.05513654793214e+000

1.62233516766403e+005,-2.37076807481433e+001,-9.18091117913765e+000

1.64498212264969e+005,-2.37088851706065e+001,-9.30841548470853e+000

1.66794521734578e+005,-2.37101227715343e+001,-9.43767255040970e+000

1.69122886489819e+005,-2.37113944465735e+001,-9.56870574248233e+000

1.71483754005805e+005,-2.37127011145805e+001,-9.70153870999411e+000

1.73877578004168e+005,-2.37140437181730e+001,-9.83619538716928e+000

1.76304818540256e+005,-2.37154232242925e+001,-9.97269999569676e+000

1.78765942091554e+005,-2.37168406247775e+001,-1.01110770470129e+001

1.81261421647326e+005,-2.37182969369481e+001,-1.02513513445601e+001

1.83791736799524e+005,-2.37197932042010e+001,-1.03935479860156e+001

1.86357373834951e+005,-2.37213304966155e+001,-1.05376923654920e+001

1.88958825828723e+005,-2.37229099115710e+001,-1.06838101757050e+001

1.91596592739027e+005,-2.37245325743756e+001,-1.08319274101072e+001

1.94271181503206e+005,-2.37261996389056e+001,-1.09820703649864e+001

1.96983106135185e+005,-2.37279122882568e+001,-1.11342656415252e+001

1.99732887824256e+005,-2.37296717354065e+001,-1.12885401478199e+001

2.02521055035243e+005,-2.37314792238877e+001,-1.14449211008577e+001

2.05348143610063e+005,-2.37333360284743e+001,-1.16034360284476e+001

2.08214696870707e+005,-2.37352434558772e+001,-1.17641127711051e+001

2.11121265723661e+005,-2.37372028454533e+001,-1.19269794838862e+001

2.14068408765776e+005,-2.37392155699248e+001,-1.20920646381704e+001

2.17056692391625e+005,-2.37412830361104e+001,-1.22593970233875e+001

2.20086690902357e+005,-2.37434066856679e+001,-1.24290057486886e+001

2.23158986616063e+005,-2.37455879958491e+001,-1.26009202445566e+001

2.26274169979693e+005,-2.37478284802651e+001,-1.27751702643544e+001

2.29432839682530e+005,-2.37501296896635e+001,-1.29517858858085e+001

2.32635602771247e+005,-2.37524932127177e+001,-1.31307975124241e+001

2.35883074766574e+005,-2.37549206768268e+001,-1.33122358748306e+001

2.39175879781588e+005,-2.37574137489274e+001,-1.34961320320527e+001

2.42514650641661e+005,-2.37599741363162e+001,-1.36825173727069e+001

2.45900029006080e+005,-2.37626035874852e+001,-1.38714236161176e+001

2.49332665491357e+005,-2.37653038929661e+001,-1.40628828133521e+001

2.52813219796278e+005,-2.37680768861881e+001,-1.42569273481703e+001

2.56342360828676e+005,-2.37709244443451e+001,-1.44535899378865e+001

2.59920766833993e+005,-2.37738484892748e+001,-1.46529036341410e+001

2.63549125525621e+005,-2.37768509883485e+001,-1.48549018235764e+001

2.67228134217075e+005,-2.37799339553716e+001,-1.50596182284172e+001

2.70958499956006e+005,-2.37830994514947e+001,-1.52670869069489e+001

2.74740939660078e+005,-2.37863495861362e+001,-1.54773422538940e+001

2.78576180254757e+005,-2.37896865179141e+001,-1.56904190006789e+001

2.82464958813007e+005,-2.37931124555888e+001,-1.59063522155923e+001

2.86408022696948e+005,-2.37966296590166e+001,-1.61251773038285e+001

2.90406129701488e+005,-2.38002404401120e+001,-1.63469300074129e+001

2.94460048199957e+005,-2.38039471638215e+001,-1.65716464050072e+001

2.98570557291775e+005,-2.38077522491057e+001,-1.67993629115884e+001

3.02738446952187e+005,-2.38116581699319e+001,-1.70301162779996e+001

3.06964518184081e+005,-2.38156674562760e+001,-1.72639435903679e+001

3.11249583171928e+005,-2.38197826951333e+001,-1.75008822693860e+001

3.15594465437872e+005,-2.38240065315387e+001,-1.77409700694512e+001

3.19999999999997e+005,-2.38283416695957e+001,-1.79842450776615e+001

3.24467033532806e+005,-2.38327908735136e+001,-1.82307457126594e+001

3.28996424529938e+005,-2.38373569686537e+001,-1.84805107233244e+001

3.33589043469155e+005,-2.38420428425835e+001,-1.87335791873031e+001

3.38245772979638e+005,-2.38468514461383e+001,-1.89899905093786e+001

3.42967508011610e+005,-2.38517857944916e+001,-1.92497844196689e+001

3.47755156008335e+005,-2.38568489682311e+001,-1.95130009716521e+001

3.52609637080511e+005,-2.38620441144436e+001,-1.97796805400113e+001

3.57531884183106e+005,-2.38673744478054e+001,-2.00498638182945e+001

3.62522843294651e+005,-2.38728432516798e+001,-2.03235918163834e+001

3.67583473599047e+005,-2.38784538792195e+001,-2.06009058577644e+001

3.72714747669902e+005,-2.38842097544762e+001,-2.08818475765961e+001

3.77917651657445e+005,-2.38901143735140e+001,-2.11664589145657e+001

3.83193185478053e+005,-2.38961713055280e+001,-2.14547821175294e+001

3.88542363006410e+005,-2.39023841939670e+001,-2.17468597319262e+001

3.93966212270369e+005,-2.39087567576600e+001,-2.20427346009619e+001

3.99465775648511e+005,-2.39152927919448e+001,-2.23424498605507e+001

4.05042110070485e+005,-2.39219961698003e+001,-2.26460489350108e+001

4.10696287220124e+005,-2.39288708429791e+001,-2.29535755325025e+001

4.16429393741414e+005,-2.39359208431414e+001,-2.32650736402014e+001

4.22242531447321e+005,-2.39431502829886e+001,-2.35805875191970e+001

4.28136817531551e+005,-2.39505633573966e+001,-2.39001616991083e+001

4.34113384783250e+005,-2.39581643445451e+001,-2.42238409724057e+001

4.40173381804713e+005,-2.39659576070464e+001,-2.45516703884300e+001

4.46317973232124e+005,-2.39739475930666e+001,-2.48836952470976e+001

4.52548339959385e+005,-2.39821388374441e+001,-2.52199610922822e+001

4.58865679365059e+005,-2.39905359627978e+001,-2.55605137048619e+001

4.65271205542494e+005,-2.39991436806288e+001,-2.59053990954200e+001

4.71766149533147e+005,-2.40079667924102e+001,-2.62546634965903e+001

4.78351759563174e+005,-2.40170101906643e+001,-2.66083533550335e+001

4.85029301283321e+005,-2.40262788600259e+001,-2.69665153230350e+001

4.91800058012158e+005,-2.40357778782884e+001,-2.73291962497114e+001

4.98665330982714e+005,-2.40455124174310e+001,-2.76964431718165e+001

5.05626439592555e+005,-2.40554877446236e+001,-2.80683033041312e+001

5.12684721657352e+005,-2.40657092232083e+001,-2.84448240294321e+001

5.19841533667984e+005,-2.40761823136526e+001,-2.88260528880226e+001

5.27098251051240e+005,-2.40869125744725e+001,-2.92120375668188e+001

5.34456268434150e+005,-2.40979056631219e+001,-2.96028258879789e+001

5.41916999912011e+005,-2.41091673368439e+001,-2.99984657970670e+001

