Freq.,VOut,OutRef

1.00000000000000e+004,-2.17800068765530e+001,-1.72904435582334e-001

1.01395947979003e+004,-2.17800077272315e+001,-1.75318043928473e-001

1.02811382665607e+004,-2.17800086018205e+001,-1.77765342970678e-001

1.04246576084112e+004,-2.17800095009925e+001,-1.80246802925635e-001

1.05701804056138e+004,-2.17800104254377e+001,-1.82762900574406e-001

1.07177346253629e+004,-2.17800113758669e+001,-1.85314119345537e-001

1.08673486252606e+004,-2.17800123530100e+001,-1.87900949416032e-001

1.10190511587661e+004,-2.17800133576176e+001,-1.90523887799753e-001

1.11728713807222e+004,-2.17800143904616e+001,-1.93183438443255e-001

1.13288388529580e+004,-2.17800154523353e+001,-1.95880112325097e-001

1.14869835499703e+004,-2.17800165440544e+001,-1.98614427552059e-001

1.16473358646846e+004,-2.17800176664577e+001,-2.01386909457254e-001

1.18099266142953e+004,-2.17800188204073e+001,-2.04198090703194e-001

1.19747870461893e+004,-2.17800200067895e+001,-2.07048511382540e-001

1.21419488439505e+004,-2.17800212265156e+001,-2.09938719121451e-001

1.23114441334492e+004,-2.17800224805226e+001,-2.12869269185645e-001

1.24833054890161e+004,-2.17800237697734e+001,-2.15840724585908e-001

1.26575659397028e+004,-2.17800250952586e+001,-2.18853656184672e-001

1.28342589756290e+004,-2.17800264579959e+001,-2.21908642809045e-001

1.30134185544193e+004,-2.17800278590321e+001,-2.25006271358182e-001

1.31950791077289e+004,-2.17800292994430e+001,-2.28147136916952e-001

1.33792755478611e+004,-2.17800307803349e+001,-2.31331842870597e-001

1.35660432744767e+004,-2.17800323028452e+001,-2.34561001018148e-001

1.37554181813974e+004,-2.17800338681430e+001,-2.37835231692980e-001

1.39474366635040e+004,-2.17800354774300e+001,-2.41155163879277e-001

1.41421356237309e+004,-2.17800371319423e+001,-2.44521435330525e-001

1.43395524801583e+004,-2.17800388329501e+001,-2.47934692696700e-001

1.45397251732031e+004,-2.17800405817597e+001,-2.51395591643430e-001

1.47426921729110e+004,-2.17800423797137e+001,-2.54904796980709e-001

1.49484924863494e+004,-2.17800442281925e+001,-2.58462982786459e-001

1.51571656651040e+004,-2.17800461286153e+001,-2.62070832540002e-001

1.53687518128801e+004,-2.17800480824411e+001,-2.65729039249487e-001

1.55832915932100e+004,-2.17800500911698e+001,-2.69438305584468e-001

1.58008262372675e+004,-2.17800521563435e+001,-2.73199344012876e-001

1.60213975517924e+004,-2.17800542795473e+001,-2.77012876935076e-001

1.62450479271247e+004,-2.17800564624111e+001,-2.80879636821897e-001

1.64718203453514e+004,-2.17800587066104e+001,-2.84800366356394e-001

1.67017583885674e+004,-2.17800610138677e+001,-2.88775818573971e-001

1.69349062472505e+004,-2.17800633859537e+001,-2.92806757007091e-001

1.71713087287550e+004,-2.17800658246889e+001,-2.96893955832064e-001

1.74110112659224e+004,-2.17800683319448e+001,-3.01038200015104e-001

1.76540599258131e+004,-2.17800709096455e+001,-3.05240285463335e-001

1.79005014185594e+004,-2.17800735597689e+001,-3.09501019177111e-001

1.81503831063432e+004,-2.17800762843484e+001,-3.13821219403740e-001

1.84037530124975e+004,-2.17800790854746e+001,-3.18201715793176e-001

1.86606598307361e+004,-2.17800819652966e+001,-3.22643349556328e-001

1.89211529345119e+004,-2.17800849260235e+001,-3.27146973628118e-001

1.91852823865052e+004,-2.17800879699267e+001,-3.31713452826015e-001

1.94530989482457e+004,-2.17800910993412e+001,-3.36343664018248e-001

1.97246540898671e+004,-2.17800943166673e+001,-3.41038496291126e-001

1.99999999999999e+004,-2.17800976243724e+001,-3.45798851116939e-001

2.02791895958005e+004,-2.17801010249938e+001,-3.50625642524296e-001

2.05622765331213e+004,-2.17801045211390e+001,-3.55519797277331e-001

2.08493152168224e+004,-2.17801081154891e+001,-3.60482255048050e-001

2.11403608112276e+004,-2.17801118108000e+001,-3.65513968597829e-001

2.14354692507258e+004,-2.17801156099052e+001,-3.70615903956819e-001

2.17346972505211e+004,-2.17801195157172e+001,-3.75789040608334e-001

2.20381023175322e+004,-2.17801235312303e+001,-3.81034371678008e-001

2.23457427614443e+004,-2.17801276595224e+001,-3.86352904119339e-001

2.26576777059159e+004,-2.17801319037579e+001,-3.91745658907243e-001

2.29739670999406e+004,-2.17801362671896e+001,-3.97213671230433e-001

2.32946717293690e+004,-2.17801407531615e+001,-4.02757990691007e-001

2.36198532285905e+004,-2.17801453651109e+001,-4.08379681502619e-001

2.39495740923785e+004,-2.17801501065718e+001,-4.14079822690907e-001

2.42838976879009e+004,-2.17801549811766e+001,-4.19859508302873e-001

2.46228882668982e+004,-2.17801599926598e+001,-4.25719847609403e-001

2.49666109780322e+004,-2.17801651448599e+001,-4.31661965320843e-001

2.53151318794055e+004,-2.17801704417231e+001,-4.37687001796737e-001

2.56685179512580e+004,-2.17801758873060e+001,-4.43796113264277e-001

2.60268371088386e+004,-2.17801814857786e+001,-4.49990472036616e-001

2.63901582154578e+004,-2.17801872414272e+001,-4.56271266736316e-001

2.67585510957221e+004,-2.17801931586585e+001,-4.62639702518614e-001

2.71320865489533e+004,-2.17801992420018e+001,-4.69097001302515e-001

2.75108363627948e+004,-2.17802054961135e+001,-4.75644401999089e-001

2.78948733270080e+004,-2.17802119257797e+001,-4.82283160749095e-001

2.82842712474618e+004,-2.17802185359205e+001,-4.89014551157859e-001

2.86791049603164e+004,-2.17802253315933e+001,-4.95839864538623e-001

2.90794503464061e+004,-2.17802323179969e+001,-5.02760410154791e-001

2.94853843458219e+004,-2.17802395004750e+001,-5.09777515468444e-001

2.98969849726987e+004,-2.17802468845208e+001,-5.16892526391327e-001

3.03143313302078e+004,-2.17802544757806e+001,-5.24106807537111e-001

3.07375036257601e+004,-2.17802622800584e+001,-5.31421742481049e-001

3.11665831864199e+004,-2.17802703033202e+001,-5.38838734019866e-001

3.16016524745350e+004,-2.17802785516982e+001,-5.46359204437005e-001

3.20427951035848e+004,-2.17802870314959e+001,-5.53984595768321e-001

3.24900958542493e+004,-2.17802957491925e+001,-5.61716370077021e-001

3.29436406907028e+004,-2.17803047114475e+001,-5.69556009726686e-001

3.34035167771346e+004,-2.17803139251066e+001,-5.77505017659207e-001

3.38698124945009e+004,-2.17803233972058e+001,-5.85564917680212e-001

3.43426174575100e+004,-2.17803331349771e+001,-5.93737254743006e-001

3.48220225318448e+004,-2.17803431458541e+001,-6.02023595239363e-001

3.53081198516260e+004,-2.17803534374775e+001,-6.10425527292712e-001

3.58010028371187e+004,-2.17803640177003e+001,-6.18944661057388e-001

3.63007662126863e+004,-2.17803748945941e+001,-6.27582629019303e-001

3.68075060249948e+004,-2.17803860764555e+001,-6.36341086300758e-001

3.73213196614721e+004,-2.17803975718112e+001,-6.45221710972687e-001

3.78423058690237e+004,-2.17804093894254e+001,-6.54226204365372e-001

3.83705647730104e+004,-2.17804215383057e+001,-6.63356291387886e-001

3.89061978964912e+004,-2.17804340277099e+001,-6.72613720851028e-001

3.94493081797342e+004,-2.17804468671533e+001,-6.82000265790419e-001

3.99999999999998e+004,-2.17804600664151e+001,-6.91517723799500e-001

4.05583791916010e+004,-2.17804736355459e+001,-7.01167917364921e-001

4.11245530662425e+004,-2.17804875848752e+001,-7.10952694202240e-001

4.16986304336447e+004,-2.17805019250192e+001,-7.20873927602749e-001

4.22807216224550e+004,-2.17805166668882e+001,-7.30933516778393e-001

4.28709385014515e+004,-2.17805318216950e+001,-7.41133387217287e-001

4.34693945010421e+004,-2.17805474009631e+001,-7.51475491037577e-001

4.40762046350642e+004,-2.17805634165348e+001,-7.61961807351341e-001

4.46914855228886e+004,-2.17805798805806e+001,-7.72594342628071e-001

4.53153554118317e+004,-2.17805968056074e+001,-7.83375131067689e-001

4.59479341998812e+004,-2.17806142044682e+001,-7.94306234976034e-001

4.65893434587380e+004,-2.17806320903712e+001,-8.05389745141814e-001

4.72397064571810e+004,-2.17806504768895e+001,-8.16627781225856e-001

4.78991481847569e+004,-2.17806693779711e+001,-8.28022492148663e-001

4.85677953758016e+004,-2.17806888079489e+001,-8.39576056485302e-001

4.92457765337964e+004,-2.17807087815514e+001,-8.51290682865114e-001

4.99332219560642e+004,-2.17807293139130e+001,-8.63168610377523e-001

5.06302637588109e+004,-2.17807504205853e+001,-8.75212108980197e-001

5.13370359025159e+004,-2.17807721175483e+001,-8.87423479914696e-001

5.20536742176771e+004,-2.17807944212215e+001,-8.99805056126977e-001

5.27803164309155e+004,-2.17808173484766e+001,-9.12359202692067e-001

5.35171021914442e+004,-2.17808409166488e+001,-9.25088317243465e-001

5.42641730979066e+004,-2.17808651435498e+001,-9.37994830410987e-001

5.50216727255895e+004,-2.17808900474802e+001,-9.51081206259046e-001

5.57897466540159e+004,-2.17809156472429e+001,-9.64349942736125e-001

5.65685424949235e+004,-2.17809419621564e+001,-9.77803572123529e-001

5.73582099206328e+004,-2.17809690120685e+001,-9.91444661494513e-001

5.81589006928121e+004,-2.17809968173703e+001,-1.00527581317648e+000

5.89707686916437e+004,-2.17810253990113e+001,-1.01929966521876e+000

5.97939699453972e+004,-2.17810547785133e+001,-1.03351889186676e+000

6.06286626604156e+004,-2.17810849779862e+001,-1.04793620404200e+000

6.14750072515201e+004,-2.17811160201436e+001,-1.06255434982575e+000

6.23331663728396e+004,-2.17811479283184e+001,-1.07737611495075e+000

6.32033049490698e+004,-2.17811807264793e+001,-1.09240432329851e+000

6.40855902071694e+004,-2.17812144392478e+001,-1.10764183739932e+000

6.49801917084985e+004,-2.17812490919150e+001,-1.12309155894215e+000

6.58872813814055e+004,-2.17812847104594e+001,-1.13875642928843e+000

6.68070335542691e+004,-2.17813213215647e+001,-1.15463942999140e+000

6.77396249890018e+004,-2.17813589526386e+001,-1.17074358332136e+000

6.86852349150199e+004,-2.17813976318311e+001,-1.18707195279876e+000

6.96440450636895e+004,-2.17814373880546e+001,-1.20362764373041e+000

7.06162397032520e+004,-2.17814782510030e+001,-1.22041380375376e+000

7.16020056742374e+004,-2.17815202511722e+001,-1.23743362338631e+000

7.26015324253724e+004,-2.17815634198810e+001,-1.25469033658199e+000

7.36150120499896e+004,-2.17816077892919e+001,-1.27218722129254e+000

7.46426393229441e+004,-2.17816533924334e+001,-1.28992760003457e+000

7.56846117380472e+004,-2.17817002632215e+001,-1.30791484046541e+000

7.67411295460207e+004,-2.17817484364831e+001,-1.32615235596219e+000

7.78123957929823e+004,-2.17817979479786e+001,-1.34464360620770e+000

7.88986163594682e+004,-2.17818488344263e+001,-1.36339209778466e+000

7.99999999999995e+004,-2.17819011335259e+001,-1.38240138477270e+000

8.11167583832018e+004,-2.17819548839841e+001,-1.40167506935506e+000

8.22491061324848e+004,-2.17820101255394e+001,-1.42121680242873e+000

8.33972608672892e+004,-2.17820668989885e+001,-1.44103028422138e+000

8.45614432449099e+004,-2.17821252462123e+001,-1.46111926491711e+000

8.57418770029029e+004,-2.17821852102032e+001,-1.48148754528440e+000

8.69387890020841e+004,-2.17822468350928e+001,-1.50213897731397e+000

8.81524092701283e+004,-2.17823101661802e+001,-1.52307746485973e+000

8.93829710457770e+004,-2.17823752499604e+001,-1.54430696428886e+000

9.06307108236633e+004,-2.17824421341540e+001,-1.56583148513700e+000

9.18958683997622e+004,-2.17825108677372e+001,-1.58765509076785e+000

9.31786869174758e+004,-2.17825815009724e+001,-1.60978189904231e+000

9.44794129143618e+004,-2.17826540854393e+001,-1.63221608299251e+000

9.57982963695136e+004,-2.17827286740668e+001,-1.65496187150052e+000

9.71355907516031e+004,-2.17828053211656e+001,-1.67802354998522e+000

9.84915530675926e+004,-2.17828840824610e+001,-1.70140546109567e+000

9.98664439121282e+004,-2.17829650151269e+001,-1.72511200540775e+000

1.01260527517622e+005,-2.17830481778198e+001,-1.74914764213157e+000

1.02674071805032e+005,-2.17831336307142e+001,-1.77351688981993e+000

1.04107348435354e+005,-2.17832214355376e+001,-1.79822432708763e+000

1.05560632861831e+005,-2.17833116556075e+001,-1.82327459333284e+000

1.07034204382888e+005,-2.17834043558674e+001,-1.84867238946778e+000

1.08528346195813e+005,-2.17834996029251e+001,-1.87442247865326e+000

1.10043345451179e+005,-2.17835974650903e+001,-1.90052968703974e+000

1.11579493308032e+005,-2.17836980124133e+001,-1.92699890451603e+000

1.13137084989847e+005,-2.17838013167248e+001,-1.95383508546103e+000

1.14716419841265e+005,-2.17839074516755e+001,-1.98104324950394e+000

1.16317801385624e+005,-2.17840164927768e+001,-2.00862848228883e+000

1.17941537383287e+005,-2.17841285174420e+001,-2.03659593624530e+000

1.19587939890794e+005,-2.17842436050282e+001,-2.06495083136628e+000

1.21257325320831e+005,-2.17843618368783e+001,-2.09369845598914e+000

1.22950014503040e+005,-2.17844832963644e+001,-2.12284416758531e+000

1.24666332745679e+005,-2.17846080689309e+001,-2.15239339355311e+000

1.26406609898139e+005,-2.17847362421389e+001,-2.18235163201750e+000

1.28171180414339e+005,-2.17848679057105e+001,-2.21272445263614e+000

1.29960383416997e+005,-2.17850031515739e+001,-2.24351749740914e+000

1.31774562762811e+005,-2.17851420739091e+001,-2.27473648149625e+000

1.33614067108538e+005,-2.17852847691941e+001,-2.30638719403835e+000

1.35479249978003e+005,-2.17854313362508e+001,-2.33847549898530e+000

1.37370469830040e+005,-2.17855818762928e+001,-2.37100733592826e+000

1.39288090127379e+005,-2.17857364929718e+001,-2.40398872093912e+000

1.41232479406504e+005,-2.17858952924261e+001,-2.43742574741345e+000

1.43204011348474e+005,-2.17860583833281e+001,-2.47132458692075e+000

1.45203064850745e+005,-2.17862258769328e+001,-2.50569149005868e+000

1.47230024099979e+005,-2.17863978871266e+001,-2.54053278731377e+000

1.49285278645888e+005,-2.17865745304758e+001,-2.57585488992726e+000

1.51369223476094e+005,-2.17867559262760e+001,-2.61166429076684e+000

1.53482259092041e+005,-2.17869421966008e+001,-2.64796756520299e+000

1.55624791585964e+005,-2.17871334663519e+001,-2.68477137199234e+000

1.57797232718936e+005,-2.17873298633075e+001,-2.72208245416565e+000

1.59999999999999e+005,-2.17875315181725e+001,-2.75990763992174e+000

1.62233516766403e+005,-2.17877385646273e+001,-2.79825384352866e+000

1.64498212264969e+005,-2.17879511393772e+001,-2.83712806622821e+000

1.66794521734578e+005,-2.17881693822018e+001,-2.87653739714934e+000

1.69122886489819e+005,-2.17883934360032e+001,-2.91648901422566e+000

1.71483754005805e+005,-2.17886234468552e+001,-2.95699018512157e+000

1.73877578004168e+005,-2.17888595640512e+001,-2.99804826816240e+000

1.76304818540256e+005,-2.17891019401523e+001,-3.03967071327418e+000

1.78765942091554e+005,-2.17893507310344e+001,-3.08186506292861e+000

1.81261421647326e+005,-2.17896060959353e+001,-3.12463895309599e+000

1.83791736799524e+005,-2.17898681975006e+001,-3.16800011420688e+000

1.86357373834951e+005,-2.17901372018293e+001,-3.21195637212017e+000

1.88958825828723e+005,-2.17904132785186e+001,-3.25651564910029e+000

1.91596592739027e+005,-2.17906966007076e+001,-3.30168596480496e+000

1.94271181503206e+005,-2.17909873451202e+001,-3.34747543727883e+000

1.96983106135185e+005,-2.17912856921068e+001,-3.39389228396070e+000

1.99732887824256e+005,-2.17915918256854e+001,-3.44094482269843e+000

2.02521055035243e+005,-2.17919059335808e+001,-3.48864147277637e+000

2.05348143610063e+005,-2.17922282072629e+001,-3.53699075595390e+000

2.08214696870707e+005,-2.17925588419832e+001,-3.58600129751657e+000

2.11121265723661e+005,-2.17928980368111e+001,-3.63568182733948e+000

2.14068408765776e+005,-2.17932459946663e+001,-3.68604118096681e+000

2.17056692391625e+005,-2.17936029223521e+001,-3.73708830070378e+000

2.20086690902357e+005,-2.17939690305849e+001,-3.78883223672496e+000

2.23158986616063e+005,-2.17943445340235e+001,-3.84128214820106e+000

2.26274169979693e+005,-2.17947296512950e+001,-3.89444730444104e+000

2.29432839682530e+005,-2.17951246050197e+001,-3.94833708605491e+000

2.32635602771247e+005,-2.17955296218337e+001,-4.00296098613670e+000

2.35883074766574e+005,-2.17959449324090e+001,-4.05832861146724e+000

2.39175879781588e+005,-2.17963707714719e+001,-4.11444968374255e+000

2.42514650641661e+005,-2.17968073778183e+001,-4.17133404082382e+000

2.45900029006080e+005,-2.17972549943278e+001,-4.22899163801569e+000

2.49332665491357e+005,-2.17977138679741e+001,-4.28743254936960e+000

2.52813219796278e+005,-2.17981842498339e+001,-4.34666696901821e+000

2.56342360828676e+005,-2.17986663950929e+001,-4.40670521254027e+000

2.59920766833993e+005,-2.17991605630492e+001,-4.46755771835688e+000

2.63549125525621e+005,-2.17996670171142e+001,-4.52923504916546e+000

2.67228134217075e+005,-2.18001860248111e+001,-4.59174789340728e+000

2.70958499956006e+005,-2.18007178577709e+001,-4.65510706677615e+000

2.74740939660078e+005,-2.18012627917252e+001,-4.71932351376701e+000

2.78576180254757e+005,-2.18018211064976e+001,-4.78440830926920e+000

2.82464958813007e+005,-2.18023930859917e+001,-4.85037266020359e+000

2.86408022696948e+005,-2.18029790181769e+001,-4.91722790720982e+000

2.90406129701488e+005,-2.18035791950729e+001,-4.98498552638319e+000

2.94460048199957e+005,-2.18041939127301e+001,-5.05365713106519e+000

2.98570557291775e+005,-2.18048234712103e+001,-5.12325447369042e+000

3.02738446952187e+005,-2.18054681745632e+001,-5.19378944769081e+000

3.06964518184081e+005,-2.18061283308030e+001,-5.26527408946356e+000

3.11249583171928e+005,-2.18068042518826e+001,-5.33772058040122e+000

3.15594465437872e+005,-2.18074962536667e+001,-5.41114124899033e+000

3.19999999999997e+005,-2.18082046559039e+001,-5.48554857297948e+000

3.24467033532806e+005,-2.18089297821982e+001,-5.56095518162028e+000

3.28996424529938e+005,-2.18096719599800e+001,-5.63737385798485e+000

3.33589043469155e+005,-2.18104315204772e+001,-5.71481754136134e+000

3.38245772979638e+005,-2.18112087986864e+001,-5.79329932973166e+000

3.42967508011610e+005,-2.18120041333450e+001,-5.87283248233376e+000

3.47755156008335e+005,-2.18128178669051e+001,-5.95343042231097e+000

3.52609637080511e+005,-2.18136503455081e+001,-6.03510673945235e+000

3.57531884183106e+005,-2.18145019189624e+001,-6.11787519302511e+000

3.62522843294651e+005,-2.18153729407237e+001,-6.20174971470313e+000

3.67583473599047e+005,-2.18162637678787e+001,-6.28674441159375e+000

3.72714747669902e+005,-2.18171747611332e+001,-6.37287356936463e+000

3.77917651657445e+005,-2.18181062848046e+001,-6.46015165547317e+000

3.83193185478053e+005,-2.18190587068204e+001,-6.54859332250169e+000

3.88542363006410e+005,-2.18200323987227e+001,-6.63821341159825e+000

3.93966212270369e+005,-2.18210277356795e+001,-6.72902695602666e+000

3.99465775648511e+005,-2.18220450965051e+001,-6.82104918482623e+000

4.05042110070485e+005,-2.18230848636882e+001,-6.91429552658146e+000

4.10696287220124e+005,-2.18241474234302e+001,-7.00878161330605e+000

4.16429393741414e+005,-2.18252331656940e+001,-7.10452328443710e+000

4.22242531447321e+005,-2.18263424842652e+001,-7.20153659094405e+000

4.28136817531551e+005,-2.18274757768247e+001,-7.29983779954917e+000

4.34113384783250e+005,-2.18286334450363e+001,-7.39944339706212e+000

4.40173381804713e+005,-2.18298158946482e+001,-7.50037009482498e+000

4.46317973232124e+005,-2.18310235356109e+001,-7.60263483326771e+000

4.52548339959385e+005,-2.18322567822117e+001,-7.70625478657475e+000

4.58865679365059e+005,-2.18335160532271e+001,-7.81124736745598e+000

4.65271205542494e+005,-2.18348017720952e+001,-7.91763023202384e+000

4.71766149533147e+005,-2.18361143671071e+001,-8.02542128477148e+000

4.78351759563174e+005,-2.18374542716208e+001,-8.13463868364900e+000

4.85029301283321e+005,-2.18388219242971e+001,-8.24530084523467e+000

4.91800058012158e+005,-2.18402177693590e+001,-8.35742644999449e+000

4.98665330982714e+005,-2.18416422568763e+001,-8.47103444762836e+000

5.05626439592555e+005,-2.18430958430750e+001,-8.58614406249475e+000

5.12684721657352e+005,-2.18445789906751e+001,-8.70277479910913e+000

5.19841533667984e+005,-2.18460921692540e+001,-8.82094644770954e+000

5.27098251051240e+005,-2.18476358556410e+001,-8.94067908988278e+000

5.34456268434150e+005,-2.18492105343397e+001,-9.06199310424332e+000

5.41916999912011e+005,-2.18508166979816e+001,-9.18490917215656e+000

