Freq.,VOut,OutRef

1.00000000000000e+004,-1.32859360648195e+001,-1.66919931765914e-001

1.01395947979003e+004,-1.32859362957111e+001,-1.69250029394808e-001

1.02811382665607e+004,-1.32859365330917e+001,-1.71612653220647e-001

1.04246576084112e+004,-1.32859367771442e+001,-1.74008257256998e-001

1.05701804056138e+004,-1.32859370280554e+001,-1.76437301860804e-001

1.07177346253629e+004,-1.32859372860186e+001,-1.78900253807284e-001

1.08673486252606e+004,-1.32859375512316e+001,-1.81397586390224e-001

1.10190511587661e+004,-1.32859378238982e+001,-1.83929779506974e-001

1.11728713807222e+004,-1.32859381042277e+001,-1.86497319753659e-001

1.13288388529580e+004,-1.32859383924354e+001,-1.89100700516687e-001

1.14869835499703e+004,-1.32859386887428e+001,-1.91740422067045e-001

1.16473358646846e+004,-1.32859389933770e+001,-1.94416991660822e-001

1.18099266142953e+004,-1.32859393065725e+001,-1.97130923627713e-001

1.19747870461893e+004,-1.32859396285692e+001,-1.99882739481560e-001

1.21419488439505e+004,-1.32859399596148e+001,-2.02672968008988e-001

1.23114441334492e+004,-1.32859402999633e+001,-2.05502145379148e-001

1.24833054890161e+004,-1.32859406498760e+001,-2.08370815242495e-001

1.26575659397028e+004,-1.32859410096215e+001,-2.11279528836148e-001

1.28342589756290e+004,-1.32859413794761e+001,-2.14228845089729e-001

1.30134185544193e+004,-1.32859417597235e+001,-2.17219330733847e-001

1.31950791077289e+004,-1.32859421506559e+001,-2.20251560405482e-001

1.33792755478611e+004,-1.32859425525733e+001,-2.23326116762790e-001

1.35660432744767e+004,-1.32859429657841e+001,-2.26443590592894e-001

1.37554181813974e+004,-1.32859433906054e+001,-2.29604580929528e-001

1.39474366635040e+004,-1.32859438273636e+001,-2.32809695161424e-001

1.41421356237309e+004,-1.32859442763935e+001,-2.36059549156763e-001

1.43395524801583e+004,-1.32859447380399e+001,-2.39354767376123e-001

1.45397251732031e+004,-1.32859452126571e+001,-2.42695982992634e-001

1.47426921729110e+004,-1.32859457006093e+001,-2.46083838016227e-001

1.49484924863494e+004,-1.32859462022708e+001,-2.49518983413547e-001

1.51571656651040e+004,-1.32859467180267e+001,-2.53002079236250e-001

1.53687518128801e+004,-1.32859472482725e+001,-2.56533794744061e-001

1.55832915932100e+004,-1.32859477934153e+001,-2.60114808535204e-001

1.58008262372675e+004,-1.32859483538730e+001,-2.63745808677736e-001

1.60213975517924e+004,-1.32859489300757e+001,-2.67427492838095e-001

1.62450479271247e+004,-1.32859495224654e+001,-2.71160568417129e-001

1.64718203453514e+004,-1.32859501314964e+001,-2.74945752687650e-001

1.67017583885674e+004,-1.32859507576360e+001,-2.78783772926037e-001

1.69349062472505e+004,-1.32859514013641e+001,-2.82675366560495e-001

1.71713087287550e+004,-1.32859520631747e+001,-2.86621281301733e-001

1.74110112659224e+004,-1.32859527435749e+001,-2.90622275297890e-001

1.76540599258131e+004,-1.32859534430867e+001,-2.94679117269221e-001

1.79005014185594e+004,-1.32859541622464e+001,-2.98792586663319e-001

1.81503831063432e+004,-1.32859549016051e+001,-3.02963473801045e-001

1.84037530124975e+004,-1.32859556617299e+001,-3.07192580027177e-001

1.86606598307361e+004,-1.32859564432032e+001,-3.11480717867353e-001

1.89211529345119e+004,-1.32859572466242e+001,-3.15828711180218e-001

1.91852823865052e+004,-1.32859580726086e+001,-3.20237395317741e-001

1.94530989482457e+004,-1.32859589217892e+001,-3.24707617285699e-001

1.97246540898671e+004,-1.32859597948169e+001,-3.29240235901340e-001

1.99999999999999e+004,-1.32859606923604e+001,-3.33836121966044e-001

2.02791895958005e+004,-1.32859616151075e+001,-3.38496158423566e-001

2.05622765331213e+004,-1.32859625637651e+001,-3.43221240534967e-001

2.08493152168224e+004,-1.32859635390596e+001,-3.48012276048659e-001

2.11403608112276e+004,-1.32859645417383e+001,-3.52870185372196e-001

2.14354692507258e+004,-1.32859655725689e+001,-3.57795901752120e-001

2.17346972505211e+004,-1.32859666323406e+001,-3.62790371450335e-001

2.20381023175322e+004,-1.32859677218651e+001,-3.67854553924616e-001

2.23457427614443e+004,-1.32859688419762e+001,-3.72989422015456e-001

2.26576777059159e+004,-1.32859699935314e+001,-3.78195962128569e-001

2.29739670999406e+004,-1.32859711774122e+001,-3.83475174426365e-001

2.32946717293690e+004,-1.32859723945246e+001,-3.88828073017995e-001

2.36198532285905e+004,-1.32859736457998e+001,-3.94255686155260e-001

2.39495740923785e+004,-1.32859749321950e+001,-3.99759056427204e-001

2.42838976879009e+004,-1.32859762546944e+001,-4.05339240960049e-001

2.46228882668982e+004,-1.32859776143097e+001,-4.10997311619709e-001

2.49666109780322e+004,-1.32859790120805e+001,-4.16734355218590e-001

2.53151318794055e+004,-1.32859804490755e+001,-4.22551473720966e-001

2.56685179512580e+004,-1.32859819263934e+001,-4.28449784454393e-001

2.60268371088386e+004,-1.32859834451636e+001,-4.34430420323496e-001

2.63901582154578e+004,-1.32859850065467e+001,-4.40494530026919e-001

2.67585510957221e+004,-1.32859866117361e+001,-4.46643278276521e-001

2.71320865489533e+004,-1.32859882619580e+001,-4.52877846021062e-001

2.75108363627948e+004,-1.32859899584730e+001,-4.59199430669449e-001

2.78948733270080e+004,-1.32859917025770e+001,-4.65609246321954e-001

2.82842712474618e+004,-1.32859934956017e+001,-4.72108524000853e-001

2.86791049603164e+004,-1.32859953389161e+001,-4.78698511886805e-001

2.90794503464061e+004,-1.32859972339272e+001,-4.85380475554908e-001

2.94853843458219e+004,-1.32859991820813e+001,-4.92155698219493e-001

2.98969849726987e+004,-1.32860011848648e+001,-4.99025480975879e-001

3.03143313302078e+004,-1.32860032438056e+001,-5.05991143051581e-001

3.07375036257601e+004,-1.32860053604740e+001,-5.13054022055596e-001

3.11665831864199e+004,-1.32860075364842e+001,-5.20215474235136e-001

3.16016524745350e+004,-1.32860097734947e+001,-5.27476874735783e-001

3.20427951035848e+004,-1.32860120732109e+001,-5.34839617858818e-001

3.24900958542493e+004,-1.32860144373848e+001,-5.42305117333246e-001

3.29436406907028e+004,-1.32860168678176e+001,-5.49874806579973e-001

3.34035167771346e+004,-1.32860193663602e+001,-5.57550138989588e-001

3.38698124945009e+004,-1.32860219349151e+001,-5.65332588195078e-001

3.43426174575100e+004,-1.32860245754373e+001,-5.73223648356195e-001

3.48220225318448e+004,-1.32860272899365e+001,-5.81224834441080e-001

3.53081198516260e+004,-1.32860300804774e+001,-5.89337682518131e-001

3.58010028371187e+004,-1.32860329491825e+001,-5.97563750044664e-001

3.63007662126863e+004,-1.32860358982328e+001,-6.05904616165908e-001

3.68075060249948e+004,-1.32860389298698e+001,-6.14361882014095e-001

3.73213196614721e+004,-1.32860420463971e+001,-6.22937171014483e-001

3.78423058690237e+004,-1.32860452501818e+001,-6.31632129192806e-001

3.83705647730104e+004,-1.32860485436566e+001,-6.40448425488708e-001

3.89061978964912e+004,-1.32860519293215e+001,-6.49387752071856e-001

3.94493081797342e+004,-1.32860554097454e+001,-6.58451824666520e-001

3.99999999999998e+004,-1.32860589875683e+001,-6.67642382873138e-001

4.05583791916010e+004,-1.32860626655028e+001,-6.76961190502451e-001

4.11245530662425e+004,-1.32860664463365e+001,-6.86410035908460e-001

4.16986304336447e+004,-1.32860703329339e+001,-6.95990732327299e-001

4.22807216224550e+004,-1.32860743282383e+001,-7.05705118222464e-001

4.28709385014515e+004,-1.32860784352739e+001,-7.15555057632826e-001

4.34693945010421e+004,-1.32860826571486e+001,-7.25542440525360e-001

4.40762046350642e+004,-1.32860869970552e+001,-7.35669183155075e-001

4.46914855228886e+004,-1.32860914582745e+001,-7.45937228426137e-001

4.53153554118317e+004,-1.32860960441776e+001,-7.56348546259782e-001

4.59479341998812e+004,-1.32861007582279e+001,-7.66905133968407e-001

4.65893434587380e+004,-1.32861056039838e+001,-7.77609016632786e-001

4.72397064571810e+004,-1.32861105851014e+001,-7.88462247483678e-001

4.78991481847569e+004,-1.32861157053366e+001,-7.99466908293678e-001

4.85677953758016e+004,-1.32861209685486e+001,-8.10625109764518e-001

4.92457765337964e+004,-1.32861263787017e+001,-8.21938991932199e-001

4.99332219560642e+004,-1.32861319398688e+001,-8.33410724565666e-001

5.06302637588109e+004,-1.32861376562338e+001,-8.45042507579396e-001

5.13370359025159e+004,-1.32861435320950e+001,-8.56836571446889e-001

5.20536742176771e+004,-1.32861495718678e+001,-8.68795177620931e-001

5.27803164309155e+004,-1.32861557800875e+001,-8.80920618960408e-001

5.35171021914442e+004,-1.32861621614135e+001,-8.93215220160600e-001

5.42641730979066e+004,-1.32861687206311e+001,-9.05681338192705e-001

5.50216727255895e+004,-1.32861754626561e+001,-9.18321362745085e-001

5.57897466540159e+004,-1.32861823925376e+001,-9.31137716672545e-001

5.65685424949235e+004,-1.32861895154612e+001,-9.44132856453096e-001

5.73582099206328e+004,-1.32861968367533e+001,-9.57309272647912e-001

5.81589006928121e+004,-1.32862043618842e+001,-9.70669490368435e-001

5.89707686916437e+004,-1.32862120964721e+001,-9.84216069749231e-001

5.97939699453972e+004,-1.32862200462866e+001,-9.97951606429502e-001

6.06286626604156e+004,-1.32862282172529e+001,-1.01187873203812e+000

6.14750072515201e+004,-1.32862366154557e+001,-1.02600011468568e+000

6.23331663728396e+004,-1.32862452471435e+001,-1.04031845946306e+000

6.32033049490698e+004,-1.32862541187323e+001,-1.05483650894811e+000

6.40855902071694e+004,-1.32862632368103e+001,-1.06955704371674e+000

6.49801917084985e+004,-1.32862726081421e+001,-1.08448288286237e+000

6.58872813814055e+004,-1.32862822396732e+001,-1.09961688452059e+000

6.68070335542691e+004,-1.32862921385347e+001,-1.11496194640164e+000

6.77396249890018e+004,-1.32863023120476e+001,-1.13052100633129e+000

6.86852349150199e+004,-1.32863127677280e+001,-1.14629704279480e+000

6.96440450636895e+004,-1.32863235132918e+001,-1.16229307549190e+000

7.06162397032520e+004,-1.32863345566595e+001,-1.17851216589720e+000

7.16020056742374e+004,-1.32863459059615e+001,-1.19495741782772e+000

7.26015324253724e+004,-1.32863575695434e+001,-1.21163197801846e+000

7.36150120499896e+004,-1.32863695559708e+001,-1.22853903670407e+000

7.46426393229441e+004,-1.32863818740355e+001,-1.24568182820980e+000

7.56846117380472e+004,-1.32863945327601e+001,-1.26306363154928e+000

7.67411295460207e+004,-1.32864075414042e+001,-1.28068777102962e+000

7.78123957929823e+004,-1.32864209094700e+001,-1.29855761686402e+000

7.88986163594682e+004,-1.32864346467082e+001,-1.31667658579314e+000

7.99999999999995e+004,-1.32864487631239e+001,-1.33504814171349e+000

8.11167583832018e+004,-1.32864632689826e+001,-1.35367579631452e+000

8.22491061324848e+004,-1.32864781748162e+001,-1.37256310972396e+000

8.33972608672892e+004,-1.32864934914298e+001,-1.39171369115972e+000

8.45614432449099e+004,-1.32865092299078e+001,-1.41113119959196e+000

8.57418770029029e+004,-1.32865254016202e+001,-1.43081934441284e+000

8.69387890020841e+004,-1.32865420182298e+001,-1.45078188611300e+000

8.81524092701283e+004,-1.32865590916982e+001,-1.47102263697069e+000

8.93829710457770e+004,-1.32865766342931e+001,-1.49154546174465e+000

9.06307108236633e+004,-1.32865946585954e+001,-1.51235427837855e+000

9.18958683997622e+004,-1.32866131775058e+001,-1.53345305871391e+000

9.31786869174758e+004,-1.32866322042522e+001,-1.55484582921145e+000

9.44794129143618e+004,-1.32866517523969e+001,-1.57653667168101e+000

9.57982963695136e+004,-1.32866718358443e+001,-1.59852972402148e+000

9.71355907516031e+004,-1.32866924688476e+001,-1.62082918096898e+000

9.84915530675926e+004,-1.32867136660174e+001,-1.64343929485466e+000

9.98664439121282e+004,-1.32867354423283e+001,-1.66636437637170e+000

1.01260527517622e+005,-1.32867578131275e+001,-1.68960879535230e+000

1.02674071805032e+005,-1.32867807941421e+001,-1.71317698155294e+000

1.04107348435354e+005,-1.32868044014873e+001,-1.73707342544994e+000

1.05560632861831e+005,-1.32868286516743e+001,-1.76130267904601e+000

1.07034204382888e+005,-1.32868535616184e+001,-1.78586935668247e+000

1.08528346195813e+005,-1.32868791486469e+001,-1.81077813586795e+000

1.10043345451179e+005,-1.32869054305077e+001,-1.83603375810991e+000

1.11579493308032e+005,-1.32869324253775e+001,-1.86164102976125e+000

1.13137084989847e+005,-1.32869601518697e+001,-1.88760482287502e+000

1.14716419841265e+005,-1.32869886290432e+001,-1.91393007607011e+000

1.16317801385624e+005,-1.32870178764104e+001,-1.94062179540739e+000

1.17941537383287e+005,-1.32870479139460e+001,-1.96768505527431e+000

1.19587939890794e+005,-1.32870787620953e+001,-1.99512499928377e+000

1.21257325320831e+005,-1.32871104417821e+001,-2.02294684118123e+000

1.22950014503040e+005,-1.32871429744182e+001,-2.05115586576185e+000

1.24666332745679e+005,-1.32871763819107e+001,-2.07975742980158e+000

1.26406609898139e+005,-1.32872106866710e+001,-2.10875696299642e+000

1.28171180414339e+005,-1.32872459116230e+001,-2.13815996891440e+000

1.29960383416997e+005,-1.32872820802115e+001,-2.16797202595847e+000

1.31774562762811e+005,-1.32873192164099e+001,-2.19819878834063e+000

1.33614067108538e+005,-1.32873573447291e+001,-2.22884598706728e+000

1.35479249978003e+005,-1.32873964902249e+001,-2.25991943093777e+000

1.37370469830040e+005,-1.32874366785061e+001,-2.29142500755278e+000

1.39288090127379e+005,-1.32874779357425e+001,-2.32336868433576e+000

1.41232479406504e+005,-1.32875202886721e+001,-2.35575650956623e+000

1.43204011348474e+005,-1.32875637646088e+001,-2.38859461342575e+000

1.45203064850745e+005,-1.32876083914495e+001,-2.42188920905527e+000

1.47230024099979e+005,-1.32876541976813e+001,-2.45564659362574e+000

1.49285278645888e+005,-1.32877012123880e+001,-2.48987314942187e+000

1.51369223476094e+005,-1.32877494652569e+001,-2.52457534493752e+000

1.53482259092041e+005,-1.32877989865848e+001,-2.55975973598572e+000

1.55624791585964e+005,-1.32878498072837e+001,-2.59543296682027e+000

1.57797232718936e+005,-1.32879019588868e+001,-2.63160177127273e+000

1.59999999999999e+005,-1.32879554735532e+001,-2.66827297390112e+000

1.62233516766403e+005,-1.32880103840730e+001,-2.70545349115340e+000

1.64498212264969e+005,-1.32880667238713e+001,-2.74315033254626e+000

1.66794521734578e+005,-1.32881245270120e+001,-2.78137060185586e+000

1.69122886489819e+005,-1.32881838282013e+001,-2.82012149832460e+000

1.71483754005805e+005,-1.32882446627904e+001,-2.85941031788309e+000

1.73877578004168e+005,-1.32883070667773e+001,-2.89924445438661e+000

1.76304818540256e+005,-1.32883710768090e+001,-2.93963140086591e+000

1.78765942091554e+005,-1.32884367301815e+001,-2.98057875079690e+000

1.81261421647326e+005,-1.32885040648408e+001,-3.02209419938236e+000

1.83791736799524e+005,-1.32885731193816e+001,-3.06418554485344e+000

1.86357373834951e+005,-1.32886439330463e+001,-3.10686068978556e+000

1.88958825828723e+005,-1.32887165457226e+001,-3.15012764243262e+000

1.91596592739027e+005,-1.32887909979403e+001,-3.19399451807841e+000

1.94271181503206e+005,-1.32888673308673e+001,-3.23846954040577e+000

1.96983106135185e+005,-1.32889455863047e+001,-3.28356104288399e+000

1.99732887824256e+005,-1.32890258066803e+001,-3.32927747017514e+000

2.02521055035243e+005,-1.32891080350418e+001,-3.37562737955935e+000

2.05348143610063e+005,-1.32891923150482e+001,-3.42261944238045e+000

2.08214696870707e+005,-1.32892786909603e+001,-3.47026244551167e+000

2.11121265723661e+005,-1.32893672076302e+001,-3.51856529284106e+000

2.14068408765776e+005,-1.32894579104888e+001,-3.56753700678007e+000

2.17056692391625e+005,-1.32895508455328e+001,-3.61718672979251e+000

2.20086690902357e+005,-1.32896460593096e+001,-3.66752372594797e+000

2.23158986616063e+005,-1.32897435989011e+001,-3.71855738249619e+000

2.26274169979693e+005,-1.32898435119060e+001,-3.77029721146796e+000

2.29432839682530e+005,-1.32899458464203e+001,-3.82275285129861e+000

2.32635602771247e+005,-1.32900506510162e+001,-3.87593406847905e+000

2.35883074766574e+005,-1.32901579747197e+001,-3.92985075923081e+000

2.39175879781588e+005,-1.32902678669864e+001,-3.98451295121036e+000

2.42514650641661e+005,-1.32903803776745e+001,-4.03993080524128e+000

2.45900029006080e+005,-1.32904955570179e+001,-4.09611461707338e+000

2.49332665491357e+005,-1.32906134555956e+001,-4.15307481917473e+000

2.52813219796278e+005,-1.32907341243005e+001,-4.21082198255216e+000

2.56342360828676e+005,-1.32908576143054e+001,-4.26936681860546e+000

2.59920766833993e+005,-1.32909839770272e+001,-4.32872018101385e+000

2.63549125525621e+005,-1.32911132640898e+001,-4.38889306765627e+000

2.67228134217075e+005,-1.32912455272838e+001,-4.44989662256887e+000

2.70958499956006e+005,-1.32913808185251e+001,-4.51174213793679e+000

2.74740939660078e+005,-1.32915191898108e+001,-4.57444105612551e+000

2.78576180254757e+005,-1.32916606931735e+001,-4.63800497174993e+000

2.82464958813007e+005,-1.32918053806328e+001,-4.70244563378628e+000

2.86408022696948e+005,-1.32919533041455e+001,-4.76777494772268e+000

2.90406129701488e+005,-1.32921045155533e+001,-4.83400497775563e+000

2.94460048199957e+005,-1.32922590665280e+001,-4.90114794903046e+000

2.98570557291775e+005,-1.32924170085156e+001,-4.96921624992673e+000

3.02738446952187e+005,-1.32925783926773e+001,-5.03822243439391e+000

3.06964518184081e+005,-1.32927432698294e+001,-5.10817922433433e+000

3.11249583171928e+005,-1.32929116903807e+001,-5.17909951203689e+000

3.15594465437872e+005,-1.32930837042677e+001,-5.25099636266555e+000

3.19999999999997e+005,-1.32932593608893e+001,-5.32388301680001e+000

3.24467033532806e+005,-1.32934387090380e+001,-5.39777289303177e+000

3.28996424529938e+005,-1.32936217968308e+001,-5.47267959062032e+000

3.33589043469155e+005,-1.32938086716379e+001,-5.54861689220525e+000

3.38245772979638e+005,-1.32939993800101e+001,-5.62559876658241e+000

3.42967508011610e+005,-1.32941939676048e+001,-5.70363937154041e+000

3.47755156008335e+005,-1.32943924791111e+001,-5.78275305676204e+000

3.52609637080511e+005,-1.32945949581737e+001,-5.86295436679282e+000

3.57531884183106e+005,-1.32948014473158e+001,-5.94425804407551e+000

3.62522843294651e+005,-1.32950119878618e+001,-6.02667903205561e+000

3.67583473599047e+005,-1.32952266198591e+001,-6.11023247835638e+000

3.72714747669902e+005,-1.32954453820000e+001,-6.19493373802839e+000

3.77917651657445e+005,-1.32956683115432e+001,-6.28079837687157e+000

3.83193185478053e+005,-1.32958954442362e+001,-6.36784217483354e+000

3.88542363006410e+005,-1.32961268142372e+001,-6.45608112948613e+000

3.93966212270369e+005,-1.32963624540389e+001,-6.54553145957856e+000

3.99465775648511e+005,-1.32966023943927e+001,-6.63620960867270e+000

4.05042110070485e+005,-1.32968466642339e+001,-6.72813224885857e+000

4.10696287220124e+005,-1.32970952906097e+001,-6.82131628455197e+000

4.16429393741414e+005,-1.32973482986083e+001,-6.91577885637559e+000

4.22242531447321e+005,-1.32976057112904e+001,-7.01153734512622e+000

4.28136817531551e+005,-1.32978675496238e+001,-7.10860937582474e+000

4.34113384783250e+005,-1.32981338324211e+001,-7.20701282185407e+000

4.40173381804713e+005,-1.32984045762797e+001,-7.30676580918340e+000

4.46317973232124e+005,-1.32986797955274e+001,-7.40788672067896e+000

4.52548339959385e+005,-1.32989595021708e+001,-7.51039420050307e+000

4.58865679365059e+005,-1.32992437058486e+001,-7.61430715860098e+000

4.65271205542494e+005,-1.32995324137904e+001,-7.71964477527473e+000

4.71766149533147e+005,-1.32998256307800e+001,-7.82642650584559e+000

4.78351759563174e+005,-1.33001233591249e+001,-7.93467208540316e+000

4.85029301283321e+005,-1.33004255986322e+001,-8.04440153364237e+000

4.91800058012158e+005,-1.33007323465904e+001,-8.15563515978595e+000

4.98665330982714e+005,-1.33010435977587e+001,-8.26839356759321e+000

5.05626439592555e+005,-1.33013593443631e+001,-8.38269766045297e+000

5.12684721657352e+005,-1.33016795761006e+001,-8.49856864656120e+000

5.19841533667984e+005,-1.33020042801507e+001,-8.61602804417955e+000

5.27098251051240e+005,-1.33023334411963e+001,-8.73509768697618e+000

5.34456268434150e+005,-1.33026670414521e+001,-8.85579972944493e+000

5.41916999912011e+005,-1.33030050607027e+001,-8.97815665240315e+000

