Freq.,VOut,OutRef

1.00000000000000e+004,-2.45815167586902e+001,-1.01183260913457e-001

1.01395947979003e+004,-2.45815173165993e+001,-1.02595688679071e-001

1.02811382665607e+004,-2.45815178901893e+001,-1.04027831591419e-001

1.04246576084112e+004,-2.45815184799007e+001,-1.05479964796222e-001

1.05701804056138e+004,-2.45815190861864e+001,-1.06952367275568e-001

1.07177346253629e+004,-2.45815197095124e+001,-1.08445321903129e-001

1.08673486252606e+004,-2.45815203503574e+001,-1.09959115498587e-001

1.10190511587661e+004,-2.45815210092133e+001,-1.11494038885000e-001

1.11728713807222e+004,-2.45815216865865e+001,-1.13050386936540e-001

1.13288388529580e+004,-2.45815223829972e+001,-1.14628458643388e-001

1.14869835499703e+004,-2.45815230989802e+001,-1.16228557165339e-001

1.16473358646846e+004,-2.45815238350853e+001,-1.17850989889945e-001

1.18099266142953e+004,-2.45815245918780e+001,-1.19496068492053e-001

1.19747870461893e+004,-2.45815253699395e+001,-1.21164108991237e-001

1.21419488439505e+004,-2.45815261698671e+001,-1.22855431817496e-001

1.23114441334492e+004,-2.45815269922753e+001,-1.24570361866020e-001

1.24833054890161e+004,-2.45815278377955e+001,-1.26309228565369e-001

1.26575659397028e+004,-2.45815287070771e+001,-1.28072365935641e-001

1.28342589756290e+004,-2.45815296007875e+001,-1.29860112654859e-001

1.30134185544193e+004,-2.45815305196127e+001,-1.31672812125650e-001

1.31950791077289e+004,-2.45815314642585e+001,-1.33510812535150e-001

1.33792755478611e+004,-2.45815324354500e+001,-1.35374466927296e-001

1.35660432744767e+004,-2.45815334339329e+001,-1.37264133268585e-001

1.37554181813974e+004,-2.45815344604737e+001,-1.39180174514363e-001

1.39474366635040e+004,-2.45815355158606e+001,-1.41122958681087e-001

1.41421356237309e+004,-2.45815366009035e+001,-1.43092858916866e-001

1.43395524801583e+004,-2.45815377164355e+001,-1.45090253569200e-001

1.45397251732031e+004,-2.45815388633129e+001,-1.47115526259822e-001

1.47426921729110e+004,-2.45815400424159e+001,-1.49169065959560e-001

1.49484924863494e+004,-2.45815412546494e+001,-1.51251267060278e-001

1.51571656651040e+004,-2.45815425009440e+001,-1.53362529449511e-001

1.53687518128801e+004,-2.45815437822561e+001,-1.55503258588442e-001

1.55832915932100e+004,-2.45815450995688e+001,-1.57673865591172e-001

1.58008262372675e+004,-2.45815464538933e+001,-1.59874767297583e-001

1.60213975517924e+004,-2.45815478462685e+001,-1.62106386359939e-001

1.62450479271247e+004,-2.45815492777630e+001,-1.64369151317201e-001

1.64718203453514e+004,-2.45815507494749e+001,-1.66663496681149e-001

1.67017583885674e+004,-2.45815522625337e+001,-1.68989863016091e-001

1.69349062472505e+004,-2.45815538180998e+001,-1.71348697026768e-001

1.71713087287550e+004,-2.45815554173667e+001,-1.73740451639779e-001

1.74110112659224e+004,-2.45815570615611e+001,-1.76165586091804e-001

1.76540599258131e+004,-2.45815587519441e+001,-1.78624566016456e-001

1.79005014185594e+004,-2.45815604898122e+001,-1.81117863533420e-001

1.81503831063432e+004,-2.45815622764984e+001,-1.83645957338228e-001

1.84037530124975e+004,-2.45815641133727e+001,-1.86209332794180e-001

1.86606598307361e+004,-2.45815660018437e+001,-1.88808482023361e-001

1.89211529345119e+004,-2.45815679433595e+001,-1.91443904000966e-001

1.91852823865052e+004,-2.45815699394085e+001,-1.94116104651103e-001

1.94530989482457e+004,-2.45815719915211e+001,-1.96825596941936e-001

1.97246540898671e+004,-2.45815741012705e+001,-1.99572900982288e-001

1.99999999999999e+004,-2.45815762702739e+001,-2.02358544124309e-001

2.02791895958005e+004,-2.45815785001937e+001,-2.05183061059487e-001

2.05622765331213e+004,-2.45815807927389e+001,-2.08046993923451e-001

2.08493152168224e+004,-2.45815831496665e+001,-2.10950892395838e-001

2.11403608112276e+004,-2.45815855727824e+001,-2.13895313807968e-001

2.14354692507258e+004,-2.45815880639434e+001,-2.16880823246431e-001

2.17346972505211e+004,-2.45815906250580e+001,-2.19907993660324e-001

2.20381023175322e+004,-2.45815932580880e+001,-2.22977405973350e-001

2.23457427614443e+004,-2.45815959650503e+001,-2.26089649188540e-001

2.26576777059159e+004,-2.45815987480184e+001,-2.29245320502613e-001

2.29739670999406e+004,-2.45816016091234e+001,-2.32445025422408e-001

2.32946717293690e+004,-2.45816045505561e+001,-2.35689377872628e-001

2.36198532285905e+004,-2.45816075745687e+001,-2.38979000318684e-001

2.39495740923785e+004,-2.45816106834763e+001,-2.42314523880023e-001

2.42838976879009e+004,-2.45816138796586e+001,-2.45696588452849e-001

2.46228882668982e+004,-2.45816171655621e+001,-2.49125842826941e-001

2.49666109780322e+004,-2.45816205437012e+001,-2.52602944814380e-001

2.53151318794055e+004,-2.45816240166612e+001,-2.56128561366786e-001

2.56685179512580e+004,-2.45816275870989e+001,-2.59703368708420e-001

2.60268371088386e+004,-2.45816312577458e+001,-2.63328052457863e-001

2.63901582154578e+004,-2.45816350314094e+001,-2.67003307760367e-001

2.67585510957221e+004,-2.45816389109759e+001,-2.70729839418304e-001

2.71320865489533e+004,-2.45816428994116e+001,-2.74508362024895e-001

2.75108363627948e+004,-2.45816469997660e+001,-2.78339600097390e-001

2.78948733270080e+004,-2.45816512151735e+001,-2.82224288214071e-001

2.82842712474618e+004,-2.45816555488559e+001,-2.86163171152251e-001

2.86791049603164e+004,-2.45816600041250e+001,-2.90157004029349e-001

2.90794503464061e+004,-2.45816645843849e+001,-2.94206552443129e-001

2.94853843458219e+004,-2.45816692931345e+001,-2.98312592616678e-001

2.98969849726987e+004,-2.45816741339701e+001,-3.02475911545620e-001

3.03143313302078e+004,-2.45816791105887e+001,-3.06697307140282e-001

3.07375036257601e+004,-2.45816842267896e+001,-3.10977588382666e-001

3.11665831864199e+004,-2.45816894864784e+001,-3.15317575471891e-001

3.16016524745350e+004,-2.45816948936693e+001,-3.19718099981036e-001

3.20427951035848e+004,-2.45817004524884e+001,-3.24180005010686e-001

3.24900958542493e+004,-2.45817061671762e+001,-3.28704145348829e-001

3.29436406907028e+004,-2.45817120420915e+001,-3.33291387628267e-001

3.34035167771346e+004,-2.45817180817141e+001,-3.37942610490867e-001

3.38698124945009e+004,-2.45817242906485e+001,-3.42658704747550e-001

3.43426174575100e+004,-2.45817306736272e+001,-3.47440573548019e-001

3.48220225318448e+004,-2.45817372355140e+001,-3.52289132546547e-001

3.53081198516260e+004,-2.45817439813081e+001,-3.57205310072691e-001

3.58010028371187e+004,-2.45817509161470e+001,-3.62190047306625e-001

3.63007662126863e+004,-2.45817580453113e+001,-3.67244298447574e-001

3.68075060249948e+004,-2.45817653742277e+001,-3.72369030897359e-001

3.73213196614721e+004,-2.45817729084737e+001,-3.77565225435950e-001

3.78423058690237e+004,-2.45817806537813e+001,-3.82833876403240e-001

3.83705647730104e+004,-2.45817886160413e+001,-3.88175991883696e-001

3.89061978964912e+004,-2.45817968013078e+001,-3.93592593893463e-001

3.94493081797342e+004,-2.45818052158025e+001,-3.99084718565489e-001

3.99999999999998e+004,-2.45818138659191e+001,-4.04653416344822e-001

4.05583791916010e+004,-2.45818227582285e+001,-4.10299752177935e-001

4.11245530662425e+004,-2.45818318994830e+001,-4.16024805711743e-001

4.16986304336447e+004,-2.45818412966219e+001,-4.21829671488724e-001

4.22807216224550e+004,-2.45818509567759e+001,-4.27715459150387e-001

4.28709385014515e+004,-2.45818608872725e+001,-4.33683293639773e-001

4.34693945010421e+004,-2.45818710956419e+001,-4.39734315405302e-001

4.40762046350642e+004,-2.45818815896215e+001,-4.45869680610638e-001

4.46914855228886e+004,-2.45818923771624e+001,-4.52090561346513e-001

4.53153554118317e+004,-2.45819034664345e+001,-4.58398145841982e-001

4.59479341998812e+004,-2.45819148658329e+001,-4.64793638681336e-001

4.65893434587380e+004,-2.45819265839835e+001,-4.71278261022546e-001

4.72397064571810e+004,-2.45819386297498e+001,-4.77853250820096e-001

4.78991481847569e+004,-2.45819510122387e+001,-4.84519863045939e-001

4.85677953758016e+004,-2.45819637408071e+001,-4.91279369920261e-001

4.92457765337964e+004,-2.45819768250692e+001,-4.98133061136898e-001

4.99332219560642e+004,-2.45819902749027e+001,-5.05082244097907e-001

5.06302637588109e+004,-2.45820041004562e+001,-5.12128244147044e-001

5.13370359025159e+004,-2.45820183121563e+001,-5.19272404809477e-001

5.20536742176771e+004,-2.45820329207148e+001,-5.26516088030641e-001

5.27803164309155e+004,-2.45820479371369e+001,-5.33860674419550e-001

5.35171021914442e+004,-2.45820633727282e+001,-5.41307563496044e-001

5.42641730979066e+004,-2.45820792391036e+001,-5.48858173937975e-001

5.50216727255895e+004,-2.45820955481944e+001,-5.56513943835627e-001

5.57897466540159e+004,-2.45821123122576e+001,-5.64276330944209e-001

5.65685424949235e+004,-2.45821295438838e+001,-5.72146812942635e-001

5.73582099206328e+004,-2.45821472560066e+001,-5.80126887694062e-001

5.81589006928121e+004,-2.45821654619110e+001,-5.88218073508281e-001

5.89707686916437e+004,-2.45821841752432e+001,-5.96421909410389e-001

5.97939699453972e+004,-2.45822034100194e+001,-6.04739955407824e-001

6.06286626604156e+004,-2.45822231806361e+001,-6.13173792764993e-001

6.14750072515201e+004,-2.45822435018796e+001,-6.21725024275779e-001

6.23331663728396e+004,-2.45822643889362e+001,-6.30395274545405e-001

6.32033049490698e+004,-2.45822858574029e+001,-6.39186190268267e-001

6.40855902071694e+004,-2.45823079232973e+001,-6.48099440515769e-001

6.49801917084985e+004,-2.45823306030692e+001,-6.57136717020901e-001

6.58872813814055e+004,-2.45823539136115e+001,-6.66299734469201e-001

6.68070335542691e+004,-2.45823778722711e+001,-6.75590230793983e-001

6.77396249890018e+004,-2.45824024968614e+001,-6.85009967470277e-001

6.86852349150199e+004,-2.45824278056733e+001,-6.94560729817084e-001

6.96440450636895e+004,-2.45824538174881e+001,-7.04244327296556e-001

7.06162397032520e+004,-2.45824805515893e+001,-7.14062593823131e-001

7.16020056742374e+004,-2.45825080277760e+001,-7.24017388068739e-001

7.26015324253724e+004,-2.45825362663751e+001,-7.34110593778191e-001

7.36150120499896e+004,-2.45825652882555e+001,-7.44344120079878e-001

7.46426393229441e+004,-2.45825951148408e+001,-7.54719901805916e-001

7.56846117380472e+004,-2.45826257681235e+001,-7.65239899813573e-001

7.67411295460207e+004,-2.45826572706795e+001,-7.75906101305865e-001

7.78123957929823e+004,-2.45826896456816e+001,-7.86720520162138e-001

7.88986163594682e+004,-2.45827229169156e+001,-7.97685197264294e-001

7.99999999999995e+004,-2.45827571087940e+001,-8.08802200831734e-001

8.11167583832018e+004,-2.45827922463723e+001,-8.20073626756018e-001

8.22491061324848e+004,-2.45828283553642e+001,-8.31501598940140e-001

8.33972608672892e+004,-2.45828654621577e+001,-8.43088269638953e-001

8.45614432449099e+004,-2.45829035938314e+001,-8.54835819805035e-001

8.57418770029029e+004,-2.45829427781710e+001,-8.66746459434777e-001

8.69387890020841e+004,-2.45829830436865e+001,-8.78822427918689e-001

8.81524092701283e+004,-2.45830244196290e+001,-8.91065994395073e-001

8.93829710457770e+004,-2.45830669360086e+001,-9.03479458105371e-001

9.06307108236633e+004,-2.45831106236122e+001,-9.16065148752304e-001

9.18958683997622e+004,-2.45831555140215e+001,-9.28825426861905e-001

9.31786869174758e+004,-2.45832016396317e+001,-9.41762684146676e-001

9.44794129143618e+004,-2.45832490336703e+001,-9.54879343873660e-001

9.57982963695136e+004,-2.45832977302161e+001,-9.68177861231721e-001

9.71355907516031e+004,-2.45833477642186e+001,-9.81660723705395e-001

9.84915530675926e+004,-2.45833991715184e+001,-9.95330451446835e-001

9.98664439121282e+004,-2.45834519888661e+001,-1.00918959765624e+000

1.01260527517622e+005,-2.45835062539437e+001,-1.02324074895813e+000

1.02674071805032e+005,-2.45835620053848e+001,-1.03748652578383e+000

1.04107348435354e+005,-2.45836192827954e+001,-1.05192958275720e+000

1.05560632861831e+005,-2.45836781267756e+001,-1.06657260907904e+000

1.07034204382888e+005,-2.45837385789407e+001,-1.08141832891704e+000

1.08528346195813e+005,-2.45838006819434e+001,-1.09646950179598e+000

1.10043345451179e+005,-2.45838644794955e+001,-1.11172892299075e+000

1.11579493308032e+005,-2.45839300163900e+001,-1.12719942392305e+000

1.13137084989847e+005,-2.45839973385245e+001,-1.14288387255539e+000

1.14716419841265e+005,-2.45840664929232e+001,-1.15878517379336e+000

1.16317801385624e+005,-2.45841375277601e+001,-1.17490626988497e+000

1.17941537383287e+005,-2.45842104923824e+001,-1.19125014082381e+000

1.19587939890794e+005,-2.45842854373336e+001,-1.20781980475396e+000

1.21257325320831e+005,-2.45843624143774e+001,-1.22461831837560e+000

1.22950014503040e+005,-2.45844414765211e+001,-1.24164877735408e+000

1.24666332745679e+005,-2.45845226780396e+001,-1.25891431672893e+000

1.26406609898139e+005,-2.45846060744995e+001,-1.27641811132452e+000

1.28171180414339e+005,-2.45846917227830e+001,-1.29416337616398e+000

1.29960383416997e+005,-2.45847796811121e+001,-1.31215336688185e+000

1.31774562762811e+005,-2.45848700090727e+001,-1.33039138014105e+000

1.33614067108538e+005,-2.45849627676388e+001,-1.34888075404799e+000

1.35479249978003e+005,-2.45850580191970e+001,-1.36762486857095e+000

1.37370469830040e+005,-2.45851558275702e+001,-1.38662714596059e+000

1.39288090127379e+005,-2.45852562580417e+001,-1.40589105116904e+000

1.41232479406504e+005,-2.45853593773799e+001,-1.42542009227055e+000

1.43204011348474e+005,-2.45854652538608e+001,-1.44521782088694e+000

1.45203064850745e+005,-2.45855739572928e+001,-1.46528783260882e+000

1.47230024099979e+005,-2.45856855590397e+001,-1.48563376742016e+000

1.49285278645888e+005,-2.45858001320435e+001,-1.50625931012665e+000

1.51369223476094e+005,-2.45859177508477e+001,-1.52716819077892e+000

1.53482259092041e+005,-2.45860384916195e+001,-1.54836418510372e+000

1.55624791585964e+005,-2.45861624321720e+001,-1.56985111493039e+000

1.57797232718936e+005,-2.45862896519852e+001,-1.59163284862255e+000

1.59999999999999e+005,-2.45864202322282e+001,-1.61371330150724e+000

1.62233516766403e+005,-2.45865542557787e+001,-1.63609643630926e+000

1.64498212264969e+005,-2.45866918072429e+001,-1.65878626358324e+000

1.66794521734578e+005,-2.45868329729750e+001,-1.68178684214960e+000

1.69122886489819e+005,-2.45869778410957e+001,-1.70510227952997e+000

1.71483754005805e+005,-2.45871265015092e+001,-1.72873673238463e+000

1.73877578004168e+005,-2.45872790459200e+001,-1.75269440695359e+000

1.76304818540256e+005,-2.45874355678490e+001,-1.77697955949655e+000

1.78765942091554e+005,-2.45875961626475e+001,-1.80159649673696e+000

1.81261421647326e+005,-2.45877609275109e+001,-1.82654957630811e+000

1.83791736799524e+005,-2.45879299614913e+001,-1.85184320719946e+000

1.86357373834951e+005,-2.45881033655078e+001,-1.87748185021057e+000

1.88958825828723e+005,-2.45882812423565e+001,-1.90347001840264e+000

1.91596592739027e+005,-2.45884636967189e+001,-1.92981227755673e+000

1.94271181503206e+005,-2.45886508351677e+001,-1.95651324663565e+000

1.96983106135185e+005,-2.45888427661726e+001,-1.98357759824795e+000

1.99732887824256e+005,-2.45890396001026e+001,-2.01101005911991e+000

2.02521055035243e+005,-2.45892414492282e+001,-2.03881541056832e+000

2.05348143610063e+005,-2.45894484277201e+001,-2.06699848898309e+000

2.08214696870707e+005,-2.45896606516471e+001,-2.09556418631371e+000

2.11121265723661e+005,-2.45898782389712e+001,-2.12451745056237e+000

2.14068408765776e+005,-2.45901013095405e+001,-2.15386328628622e+000

2.17056692391625e+005,-2.45903299850801e+001,-2.18360675510591e+000

2.20086690902357e+005,-2.45905643891804e+001,-2.21375297622533e+000

2.23158986616063e+005,-2.45908046472828e+001,-2.24430712695926e+000

2.26274169979693e+005,-2.45910508866628e+001,-2.27527444327199e+000

2.29432839682530e+005,-2.45913032364106e+001,-2.30666022032924e+000

2.32635602771247e+005,-2.45915618274086e+001,-2.33846981306151e+000

2.35883074766574e+005,-2.45918267923063e+001,-2.37070863674026e+000

2.39175879781588e+005,-2.45920982654920e+001,-2.40338216757136e+000

2.42514650641661e+005,-2.45923763830611e+001,-2.43649594330346e+000

2.45900029006080e+005,-2.45926612827823e+001,-2.47005556385336e+000

2.49332665491357e+005,-2.45929531040593e+001,-2.50406669195051e+000

2.52813219796278e+005,-2.45932519878899e+001,-2.53853505380333e+000

2.56342360828676e+005,-2.45935580768218e+001,-2.57346643978425e+000

2.59920766833993e+005,-2.45938715149045e+001,-2.60886670514088e+000

2.63549125525621e+005,-2.45941924476382e+001,-2.64474177073086e+000

2.67228134217075e+005,-2.45945210219186e+001,-2.68109762378354e+000

2.70958499956006e+005,-2.45948573859790e+001,-2.71794031869047e+000

2.74740939660078e+005,-2.45952016893282e+001,-2.75527597782572e+000

2.78576180254757e+005,-2.45955540826844e+001,-2.79311079239994e+000

2.82464958813007e+005,-2.45959147179069e+001,-2.83145102334740e+000

2.86408022696948e+005,-2.45962837479229e+001,-2.87030300225034e+000

2.90406129701488e+005,-2.45966613266515e+001,-2.90967313230084e+000

2.94460048199957e+005,-2.45970476089235e+001,-2.94956788930670e+000

2.98570557291775e+005,-2.45974427503994e+001,-2.98999382273585e+000

3.02738446952187e+005,-2.45978469074816e+001,-3.03095755681060e+000

3.06964518184081e+005,-2.45982602372259e+001,-3.07246579164822e+000

3.11249583171928e+005,-2.45986828972479e+001,-3.11452530445003e+000

3.15594465437872e+005,-2.45991150456279e+001,-3.15714295074743e+000

3.19999999999997e+005,-2.45995568408120e+001,-3.20032566570046e+000

3.24467033532806e+005,-2.46000084415111e+001,-3.24408046545452e+000

3.28996424529938e+005,-2.46004700065976e+001,-3.28841444855927e+000

3.33589043469155e+005,-2.46009416949996e+001,-3.33333479744899e+000

3.38245772979638e+005,-2.46014236655936e+001,-3.37884877999043e+000

3.42967508011610e+005,-2.46019160770954e+001,-3.42496375109731e+000

3.47755156008335e+005,-2.46024190879499e+001,-3.47168715441674e+000

3.52609637080511e+005,-2.46029328562199e+001,-3.51902652408881e+000

3.57531884183106e+005,-2.46034575394746e+001,-3.56698948658233e+000

3.62522843294651e+005,-2.46039932946779e+001,-3.61558376260844e+000

3.67583473599047e+005,-2.46045402780770e+001,-3.66481716911548e+000

3.72714747669902e+005,-2.46050986450921e+001,-3.71469762136637e+000

3.77917651657445e+005,-2.46056685502072e+001,-3.76523313510062e+000

3.83193185478053e+005,-2.46062501468630e+001,-3.81643182878472e+000

3.88542363006410e+005,-2.46068435873521e+001,-3.86830192595072e+000

3.93966212270369e+005,-2.46074490227175e+001,-3.92085175762447e+000

3.99465775648511e+005,-2.46080666026548e+001,-3.97408976484934e+000

4.05042110070485e+005,-2.46086964754183e+001,-4.02802450129920e+000

4.10696287220124e+005,-2.46093387877331e+001,-4.08266463599069e+000

4.16429393741414e+005,-2.46099936847120e+001,-4.13801895608731e+000

4.22242531447321e+005,-2.46106613097795e+001,-4.19409636980291e+000

4.28136817531551e+005,-2.46113418046029e+001,-4.25090590940096e+000

4.34113384783250e+005,-2.46120353090317e+001,-4.30845673429024e+000

4.40173381804713e+005,-2.46127419610453e+001,-4.36675813421893e+000

4.46317973232124e+005,-2.46134618967112e+001,-4.42581953256401e+000

4.52548339959385e+005,-2.46141952501530e+001,-4.48565048971689e+000

4.58865679365059e+005,-2.46149421535301e+001,-4.54626070656383e+000

4.65271205542494e+005,-2.46157027370298e+001,-4.60766002805938e+000

4.71766149533147e+005,-2.46164771288719e+001,-4.66985844689154e+000

4.78351759563174e+005,-2.46172654553278e+001,-4.73286610723556e+000

4.85029301283321e+005,-2.46180678407541e+001,-4.79669330859495e+000

4.91800058012158e+005,-2.46188844076417e+001,-4.86135050972677e+000

4.98665330982714e+005,-2.46197152766814e+001,-4.92684833264670e+000

5.05626439592555e+005,-2.46205605668473e+001,-4.99319756671064e+000

5.12684721657352e+005,-2.46214203954969e+001,-5.06040917277014e+000

5.19841533667984e+005,-2.46222948784916e+001,-5.12849428739578e+000

5.27098251051240e+005,-2.46231841303354e+001,-5.19746422716338e+000

5.34456268434150e+005,-2.46240882643344e+001,-5.26733049299930e+000

5.41916999912011e+005,-2.46250073927772e+001,-5.33810477457839e+000

