Freq.,VOut,OutRef

1.00000000000000e+004,-3.84879285787168e+001,-1.92067997697183e-001

1.01395947979003e+004,-3.84879295602495e+001,-1.94749121878080e-001

1.02811382665607e+004,-3.84879305693721e+001,-1.97467671241592e-001

1.04246576084112e+004,-3.84879316068602e+001,-2.00224168141125e-001

1.05701804056138e+004,-3.84879326735109e+001,-2.03019142220887e-001

1.07177346253629e+004,-3.84879337701437e+001,-2.05853130513094e-001

1.08673486252606e+004,-3.84879348976015e+001,-2.08726677543117e-001

1.10190511587661e+004,-3.84879360567504e+001,-2.11640335435294e-001

1.11728713807222e+004,-3.84879372484808e+001,-2.14594664016572e-001

1.13288388529580e+004,-3.84879384737086e+001,-2.17590230922681e-001

1.14869835499703e+004,-3.84879397333752e+001,-2.20627611711342e-001

1.16473358646846e+004,-3.84879410284482e+001,-2.23707389968346e-001

1.18099266142953e+004,-3.84879423599227e+001,-2.26830157423550e-001

1.19747870461893e+004,-3.84879437288216e+001,-2.29996514058460e-001

1.21419488439505e+004,-3.84879451361964e+001,-2.33207068228847e-001

1.23114441334492e+004,-3.84879465831286e+001,-2.36462436773636e-001

1.24833054890161e+004,-3.84879480707295e+001,-2.39763245139952e-001

1.26575659397028e+004,-3.84879496001421e+001,-2.43110127496872e-001

1.28342589756290e+004,-3.84879511725413e+001,-2.46503726862103e-001

1.30134185544193e+004,-3.84879527891347e+001,-2.49944695223295e-001

1.31950791077289e+004,-3.84879544511642e+001,-2.53433693661843e-001

1.33792755478611e+004,-3.84879561599067e+001,-2.56971392480216e-001

1.35660432744767e+004,-3.84879579166745e+001,-2.60558471330649e-001

1.37554181813974e+004,-3.84879597228170e+001,-2.64195619347344e-001

1.39474366635040e+004,-3.84879615797215e+001,-2.67883535274247e-001

1.41421356237309e+004,-3.84879634888144e+001,-2.71622927601551e-001

1.43395524801583e+004,-3.84879654515618e+001,-2.75414514701396e-001

1.45397251732031e+004,-3.84879674694710e+001,-2.79259024966534e-001

1.47426921729110e+004,-3.84879695440921e+001,-2.83157196945035e-001

1.49484924863494e+004,-3.84879716770182e+001,-2.87109779487281e-001

1.51571656651040e+004,-3.84879738698873e+001,-2.91117531886764e-001

1.53687518128801e+004,-3.84879761243833e+001,-2.95181224025963e-001

1.55832915932100e+004,-3.84879784422377e+001,-2.99301636522146e-001

1.58008262372675e+004,-3.84879808252302e+001,-3.03479560878881e-001

1.60213975517924e+004,-3.84879832751907e+001,-3.07715799637471e-001

1.62450479271247e+004,-3.84879857940004e+001,-3.12011166528452e-001

1.64718203453514e+004,-3.84879883835931e+001,-3.16366486629715e-001

1.67017583885674e+004,-3.84879910459572e+001,-3.20782596522615e-001

1.69349062472505e+004,-3.84879937831368e+001,-3.25260344452003e-001

1.71713087287550e+004,-3.84879965972333e+001,-3.29800590490018e-001

1.74110112659224e+004,-3.84879994904070e+001,-3.34404206699062e-001

1.76540599258131e+004,-3.84880024648791e+001,-3.39072077299096e-001

1.79005014185594e+004,-3.84880055229327e+001,-3.43805098836953e-001

1.81503831063432e+004,-3.84880086669153e+001,-3.48604180356824e-001

1.84037530124975e+004,-3.84880118992401e+001,-3.53470243575382e-001

1.86606598307361e+004,-3.84880152223883e+001,-3.58404223055194e-001

1.89211529345119e+004,-3.84880186389101e+001,-3.63407066387137e-001

1.91852823865052e+004,-3.84880221514277e+001,-3.68479734368857e-001

1.94530989482457e+004,-3.84880257626369e+001,-3.73623201187155e-001

1.97246540898671e+004,-3.84880294753089e+001,-3.78838454607657e-001

1.99999999999999e+004,-3.84880332922926e+001,-3.84126496160682e-001

2.02791895958005e+004,-3.84880372165168e+001,-3.89488341332902e-001

2.05622765331213e+004,-3.84880412509926e+001,-3.94925019761550e-001

2.08493152168224e+004,-3.84880453988154e+001,-4.00437575430614e-001

2.11403608112276e+004,-3.84880496631672e+001,-4.06027066869862e-001

2.14354692507258e+004,-3.84880540473197e+001,-4.11694567357175e-001

2.17346972505211e+004,-3.84880585546358e+001,-4.17441165122811e-001

2.20381023175322e+004,-3.84880631885731e+001,-4.23267963556636e-001

2.23457427614443e+004,-3.84880679526856e+001,-4.29176081419895e-001

2.26576777059159e+004,-3.84880728506275e+001,-4.35166653055578e-001

2.29739670999406e+004,-3.84880778861549e+001,-4.41240828608382e-001

2.32946717293690e+004,-3.84880830631294e+001,-4.47399774239861e-001

2.36198532285905e+004,-3.84880883855207e+001,-4.53644672352900e-001

2.39495740923785e+004,-3.84880938574098e+001,-4.59976721816554e-001

2.42838976879009e+004,-3.84880994829920e+001,-4.66397138192933e-001

2.46228882668982e+004,-3.84881052665800e+001,-4.72907153970618e-001

2.49666109780322e+004,-3.84881112126074e+001,-4.79508018796484e-001

2.53151318794055e+004,-3.84881173256319e+001,-4.86200999716336e-001

2.56685179512580e+004,-3.84881236103388e+001,-4.92987381412103e-001

2.60268371088386e+004,-3.84881300715447e+001,-4.99868466450133e-001

2.63901582154578e+004,-3.84881367142009e+001,-5.06845575524967e-001

2.67585510957221e+004,-3.84881435433974e+001,-5.13920047712159e-001

2.71320865489533e+004,-3.84881505643664e+001,-5.21093240723313e-001

2.75108363627948e+004,-3.84881577824870e+001,-5.28366531160368e-001

2.78948733270080e+004,-3.84881652032882e+001,-5.35741314781387e-001

2.82842712474618e+004,-3.84881728324543e+001,-5.43219006760610e-001

2.86791049603164e+004,-3.84881806758282e+001,-5.50801041960767e-001

2.90794503464061e+004,-3.84881887394162e+001,-5.58488875202605e-001

2.94853843458219e+004,-3.84881970293928e+001,-5.66283981540968e-001

2.98969849726987e+004,-3.84882055521050e+001,-5.74187856544476e-001

3.03143313302078e+004,-3.84882143140773e+001,-5.82202016578233e-001

3.07375036257601e+004,-3.84882233220164e+001,-5.90327999092150e-001

3.11665831864199e+004,-3.84882325828168e+001,-5.98567362908402e-001

3.16016524745350e+004,-3.84882421035652e+001,-6.06921688521044e-001

3.20427951035848e+004,-3.84882518915467e+001,-6.15392578388901e-001

3.24900958542493e+004,-3.84882619542495e+001,-6.23981657243653e-001

3.29436406907028e+004,-3.84882722993712e+001,-6.32690572392666e-001

3.34035167771346e+004,-3.84882829348242e+001,-6.41520994032266e-001

3.38698124945009e+004,-3.84882938687419e+001,-6.50474615560433e-001

3.43426174575100e+004,-3.84883051094847e+001,-6.59553153898122e-001

3.48220225318448e+004,-3.84883166656461e+001,-6.68758349812294e-001

3.53081198516260e+004,-3.84883285460597e+001,-6.78091968241867e-001

3.58010028371187e+004,-3.84883407598052e+001,-6.87555798632459e-001

3.63007662126863e+004,-3.84883533162157e+001,-6.97151655270995e-001

3.68075060249948e+004,-3.84883662248846e+001,-7.06881377626745e-001

3.73213196614721e+004,-3.84883794956723e+001,-7.16746830699409e-001

3.78423058690237e+004,-3.84883931387145e+001,-7.26749905365336e-001

3.83705647730104e+004,-3.84884071644289e+001,-7.36892518734675e-001

3.89061978964912e+004,-3.84884215835237e+001,-7.47176614510849e-001

3.94493081797342e+004,-3.84884364070050e+001,-7.57604163353340e-001

3.99999999999998e+004,-3.84884516461856e+001,-7.68177163247864e-001

4.05583791916010e+004,-3.84884673126929e+001,-7.78897639879366e-001

4.11245530662425e+004,-3.84884834184779e+001,-7.89767647010988e-001

4.16986304336447e+004,-3.84884999758242e+001,-8.00789266867903e-001

4.22807216224550e+004,-3.84885169973567e+001,-8.11964610525097e-001

4.28709385014515e+004,-3.84885344960515e+001,-8.23295818302419e-001

4.34693945010421e+004,-3.84885524852452e+001,-8.34785060161768e-001

4.40762046350642e+004,-3.84885709786450e+001,-8.46434536112324e-001

4.46914855228886e+004,-3.84885899903386e+001,-8.58246476619905e-001

4.53153554118317e+004,-3.84886095348050e+001,-8.70223143019792e-001

4.59479341998812e+004,-3.84886296269250e+001,-8.82366827938728e-001

4.65893434587380e+004,-3.84886502819921e+001,-8.94679855719329e-001

4.72397064571810e+004,-3.84886715157242e+001,-9.07164582849678e-001

4.78991481847569e+004,-3.84886933442746e+001,-9.19823398401977e-001

4.85677953758016e+004,-3.84887157842444e+001,-9.32658724471876e-001

4.92457765337964e+004,-3.84887388526945e+001,-9.45673016627438e-001

4.99332219560642e+004,-3.84887625671585e+001,-9.58868764362226e-001

5.06302637588109e+004,-3.84887869456547e+001,-9.72248491553492e-001

5.13370359025159e+004,-3.84888120067003e+001,-9.85814756927706e-001

5.20536742176771e+004,-3.84888377693244e+001,-9.99570154530993e-001

5.27803164309155e+004,-3.84888642530819e+001,-1.01351731420446e+000

5.35171021914442e+004,-3.84888914780684e+001,-1.02765890206784e+000

5.42641730979066e+004,-3.84889194649336e+001,-1.04199762100866e+000

5.50216727255895e+004,-3.84889482348979e+001,-1.05653621117505e+000

5.57897466540159e+004,-3.84889778097665e+001,-1.07127745047794e+000

5.65685424949235e+004,-3.84890082119461e+001,-1.08622415509619e+000

5.73582099206328e+004,-3.84890394644605e+001,-1.10137917999303e+000

5.81589006928121e+004,-3.84890715909678e+001,-1.11674541943208e+000

5.89707686916437e+004,-3.84891046157772e+001,-1.13232580750473e+000

5.97939699453972e+004,-3.84891385638662e+001,-1.14812331866388e+000

6.06286626604156e+004,-3.84891734608996e+001,-1.16414096825975e+000

6.14750072515201e+004,-3.84892093332467e+001,-1.18038181308810e+000

6.23331663728396e+004,-3.84892462080009e+001,-1.19684895194023e+000

6.32033049490698e+004,-3.84892841129990e+001,-1.21354552616182e+000

6.40855902071694e+004,-3.84893230768412e+001,-1.23047472021904e+000

6.49801917084985e+004,-3.84893631289110e+001,-1.24763976226981e+000

6.58872813814055e+004,-3.84894042993964e+001,-1.26504392474343e+000

6.68070335542691e+004,-3.84894466193116e+001,-1.28269052492431e+000

6.77396249890018e+004,-3.84894901205183e+001,-1.30058292554655e+000

6.86852349150199e+004,-3.84895348357488e+001,-1.31872453539216e+000

6.96440450636895e+004,-3.84895807986286e+001,-1.33711880989860e+000

7.06162397032520e+004,-3.84896280437004e+001,-1.35576925177027e+000

7.16020056742374e+004,-3.84896766064479e+001,-1.37467941160190e+000

7.26015324253724e+004,-3.84897265233212e+001,-1.39385288850262e+000

7.36150120499896e+004,-3.84897778317615e+001,-1.41329333073418e+000

7.46426393229441e+004,-3.84898305702277e+001,-1.43300443635121e+000

7.56846117380472e+004,-3.84898847782227e+001,-1.45298995385088e+000

7.67411295460207e+004,-3.84899404963208e+001,-1.47325368282898e+000

7.78123957929823e+004,-3.84899977661959e+001,-1.49379947464400e+000

7.88986163594682e+004,-3.84900566306498e+001,-1.51463123308946e+000

7.99999999999995e+004,-3.84901171336415e+001,-1.53575291507099e+000

8.11167583832018e+004,-3.84901793203176e+001,-1.55716853129253e+000

8.22491061324848e+004,-3.84902432370426e+001,-1.57888214695063e+000

8.33972608672892e+004,-3.84903089314305e+001,-1.60089788243508e+000

8.45614432449099e+004,-3.84903764523769e+001,-1.62321991403670e+000

8.57418770029029e+004,-3.84904458500918e+001,-1.64585247466514e+000

8.69387890020841e+004,-3.84905171761336e+001,-1.66879985456979e+000

8.81524092701283e+004,-3.84905904834434e+001,-1.69206640207312e+000

8.93829710457770e+004,-3.84906658263798e+001,-1.71565652430896e+000

9.06307108236633e+004,-3.84907432607556e+001,-1.73957468796773e+000

9.18958683997622e+004,-3.84908228438740e+001,-1.76382542005196e+000

9.31786869174758e+004,-3.84909046345665e+001,-1.78841330863722e+000

9.44794129143618e+004,-3.84909886932315e+001,-1.81334300364141e+000

9.57982963695136e+004,-3.84910750818733e+001,-1.83861921760185e+000

9.71355907516031e+004,-3.84911638641425e+001,-1.86424672646001e+000

9.84915530675926e+004,-3.84912551053767e+001,-1.89023037035445e+000

9.98664439121282e+004,-3.84913488726431e+001,-1.91657505441940e+000

1.01260527517622e+005,-3.84914452347804e+001,-1.94328574959435e+000

1.02674071805032e+005,-3.84915442624430e+001,-1.97036749343790e+000

1.04107348435354e+005,-3.84916460281455e+001,-1.99782539095221e+000

1.05560632861831e+005,-3.84917506063082e+001,-2.02566461541301e+000

1.07034204382888e+005,-3.84918580733036e+001,-2.05389040920884e+000

1.08528346195813e+005,-3.84919685075036e+001,-2.08250808468655e+000

1.10043345451179e+005,-3.84920819893278e+001,-2.11152302500617e+000

1.11579493308032e+005,-3.84921986012931e+001,-2.14094068500123e+000

1.13137084989847e+005,-3.84923184280635e+001,-2.17076659204917e+000

1.14716419841265e+005,-3.84924415565016e+001,-2.20100634694770e+000

1.16317801385624e+005,-3.84925680757205e+001,-2.23166562479904e+000

1.17941537383287e+005,-3.84926980771370e+001,-2.26275017590280e+000

1.19587939890794e+005,-3.84928316545259e+001,-2.29426582665475e+000

1.21257325320831e+005,-3.84929689040747e+001,-2.32621848045512e+000

1.22950014503040e+005,-3.84931099244401e+001,-2.35861411862250e+000

1.24666332745679e+005,-3.84932548168046e+001,-2.39145880131739e+000

1.26406609898139e+005,-3.84934036849351e+001,-2.42475866847010e+000

1.28171180414339e+005,-3.84935566352410e+001,-2.45851994072132e+000

1.29960383416997e+005,-3.84937137768355e+001,-2.49274892036405e+000

1.31774562762811e+005,-3.84938752215954e+001,-2.52745199229769e+000

1.33614067108538e+005,-3.84940410842235e+001,-2.56263562498776e+000

1.35479249978003e+005,-3.84942114823117e+001,-2.59830637143360e+000

1.37370469830040e+005,-3.84943865364047e+001,-2.63447087014196e+000

1.39288090127379e+005,-3.84945663700648e+001,-2.67113584611068e+000

1.41232479406504e+005,-3.84947511099378e+001,-2.70830811181851e+000

1.43204011348474e+005,-3.84949408858196e+001,-2.74599456822098e+000

1.45203064850745e+005,-3.84951358307239e+001,-2.78420220575687e+000

1.47230024099979e+005,-3.84953360809508e+001,-2.82293810535971e+000

1.49285278645888e+005,-3.84955417761563e+001,-2.86220943947701e+000

1.51369223476094e+005,-3.84957530594221e+001,-2.90202347309912e+000

1.53482259092041e+005,-3.84959700773276e+001,-2.94238756479264e+000

1.55624791585964e+005,-3.84961929800212e+001,-2.98330916774398e+000

1.57797232718936e+005,-3.84964219212933e+001,-3.02479583080958e+000

1.59999999999999e+005,-3.84966570586501e+001,-3.06685519957333e+000

1.62233516766403e+005,-3.84968985533877e+001,-3.10949501741418e+000

1.64498212264969e+005,-3.84971465706675e+001,-3.15272312657790e+000

1.66794521734578e+005,-3.84974012795913e+001,-3.19654746926125e+000

1.69122886489819e+005,-3.84976628532786e+001,-3.24097608870125e+000

1.71483754005805e+005,-3.84979314689433e+001,-3.28601713027365e+000

1.73877578004168e+005,-3.84982073079710e+001,-3.33167884260099e+000

1.76304818540256e+005,-3.84984905559981e+001,-3.37796957866822e+000

1.78765942091554e+005,-3.84987814029898e+001,-3.42489779694715e+000

1.81261421647326e+005,-3.84990800433198e+001,-3.47247206253159e+000

1.83791736799524e+005,-3.84993866758500e+001,-3.52070104827987e+000

1.86357373834951e+005,-3.84997015040101e+001,-3.56959353596933e+000

1.88958825828723e+005,-3.85000247358789e+001,-3.61915841745896e+000

1.91596592739027e+005,-3.85003565842643e+001,-3.66940469586350e+000

1.94271181503206e+005,-3.85006972667847e+001,-3.72034148673881e+000

1.96983106135185e+005,-3.85010470059502e+001,-3.77197801927666e+000

1.99732887824256e+005,-3.85014060292440e+001,-3.82432363751365e+000

2.02521055035243e+005,-3.85017745692040e+001,-3.87738780155001e+000

2.05348143610063e+005,-3.85021528635040e+001,-3.93118008878398e+000

2.08214696870707e+005,-3.85025411550360e+001,-3.98571019515594e+000

2.11121265723661e+005,-3.85029396919912e+001,-4.04098793640962e+000

2.14068408765776e+005,-3.85033487279417e+001,-4.09702324936730e+000

2.17056692391625e+005,-3.85037685219220e+001,-4.15382619321843e+000

2.20086690902357e+005,-3.85041993385102e+001,-4.21140695082764e+000

2.23158986616063e+005,-3.85046414479087e+001,-4.26977583005759e+000

2.26274169979693e+005,-3.85050951260256e+001,-4.32894326510993e+000

2.29432839682530e+005,-3.85055606545545e+001,-4.38891981788661e+000

2.32635602771247e+005,-3.85060383210549e+001,-4.44971617936920e+000

2.35883074766574e+005,-3.85065284190324e+001,-4.51134317102102e+000

2.39175879781588e+005,-3.85070312480175e+001,-4.57381174620993e+000

2.42514650641661e+005,-3.85075471136450e+001,-4.63713299165584e+000

2.45900029006080e+005,-3.85080763277328e+001,-4.70131812890143e+000

2.49332665491357e+005,-3.85086192083594e+001,-4.76637851581091e+000

2.52813219796278e+005,-3.85091760799429e+001,-4.83232564809378e+000

2.56342360828676e+005,-3.85097472733171e+001,-4.89917116085937e+000

2.59920766833993e+005,-3.85103331258097e+001,-4.96692683020127e+000

2.63549125525621e+005,-3.85109339813181e+001,-5.03560457481376e+000

2.67228134217075e+005,-3.85115501903865e+001,-5.10521645764177e+000

2.70958499956006e+005,-3.85121821102815e+001,-5.17577468756755e+000

2.74740939660078e+005,-3.85128301050686e+001,-5.24729162113313e+000

2.78576180254757e+005,-3.85134945456875e+001,-5.31977976430329e+000

2.82464958813007e+005,-3.85141758100285e+001,-5.39325177426962e+000

2.86408022696948e+005,-3.85148742830085e+001,-5.46772046129725e+000

2.90406129701488e+005,-3.85155903566469e+001,-5.54319879061756e+000

2.94460048199957e+005,-3.85163244301429e+001,-5.61969988436811e+000

2.98570557291775e+005,-3.85170769099520e+001,-5.69723702358293e+000

3.02738446952187e+005,-3.85178482098652e+001,-5.77582365023309e+000

3.06964518184081e+005,-3.85186387510871e+001,-5.85547336932331e+000

3.11249583171928e+005,-3.85194489623172e+001,-5.93619995104405e+000

3.15594465437872e+005,-3.85202792798311e+001,-6.01801733298228e+000

3.19999999999997e+005,-3.85211301475651e+001,-6.10093962239429e+000

3.24467033532806e+005,-3.85220020172014e+001,-6.18498109854056e+000

3.28996424529938e+005,-3.85228953482570e+001,-6.27015621508804e+000

3.33589043469155e+005,-3.85238106081756e+001,-6.35647960257890e+000

3.38245772979638e+005,-3.85247482724215e+001,-6.44396607097149e+000

3.42967508011610e+005,-3.85257088245790e+001,-6.53263061225203e+000

3.47755156008335e+005,-3.85266927564547e+001,-6.62248840312302e+000

3.52609637080511e+005,-3.85277005681859e+001,-6.71355480776696e+000

3.57531884183106e+005,-3.85287327683531e+001,-6.80584538069093e+000

3.62522843294651e+005,-3.85297898740994e+001,-6.89937586965008e+000

3.67583473599047e+005,-3.85308724112560e+001,-6.99416221865582e+000

3.72714747669902e+005,-3.85319809144754e+001,-7.09022057106751e+000

3.77917651657445e+005,-3.85331159273720e+001,-7.18756727277056e+000

3.83193185478053e+005,-3.85342780026718e+001,-7.28621887544205e+000

3.88542363006410e+005,-3.85354677023717e+001,-7.38619213990412e+000

3.93966212270369e+005,-3.85366855979088e+001,-7.48750403956862e+000

3.99465775648511e+005,-3.85379322703405e+001,-7.59017176397064e+000

4.05042110070485e+005,-3.85392083105377e+001,-7.69421272239344e+000

4.10696287220124e+005,-3.85405143193899e+001,-7.79964454758441e+000

4.16429393741414e+005,-3.85418509080243e+001,-7.90648509956173e+000

4.22242531447321e+005,-3.85432186980403e+001,-8.01475246951189e+000

4.28136817531551e+005,-3.85446183217595e+001,-8.12446498377707e+000

4.34113384783250e+005,-3.85460504224921e+001,-8.23564120793077e+000

4.40173381804713e+005,-3.85475156548218e+001,-8.34829995094079e+000

4.46317973232124e+005,-3.85490146849096e+001,-8.46246026941819e+000

4.52548339959385e+005,-3.85505481908172e+001,-8.57814147194850e+000

4.58865679365059e+005,-3.85521168628517e+001,-8.69536312350386e+000

4.65271205542494e+005,-3.85537214039329e+001,-8.81414504993222e+000

4.71766149533147e+005,-3.85553625299830e+001,-8.93450734251996e+000

4.78351759563174e+005,-3.85570409703416e+001,-9.05647036262439e+000

4.85029301283321e+005,-3.85587574682059e+001,-9.18005474637071e+000

4.91800058012158e+005,-3.85605127810969e+001,-9.30528140940933e+000

4.98665330982714e+005,-3.85623076813540e+001,-9.43217155172723e+000

5.05626439592555e+005,-3.85641429566582e+001,-9.56074666250749e+000

5.12684721657352e+005,-3.85660194105841e+001,-9.69102852503129e+000

5.19841533667984e+005,-3.85679378631839e+001,-9.82303922161284e+000

5.27098251051240e+005,-3.85698991516023e+001,-9.95680113856367e+000

5.34456268434150e+005,-3.85719041307236e+001,-1.00923369711740e+001

5.41916999912011e+005,-3.85739536738531e+001,-1.02296697287063e+001

