Freq.,VOut,OutRef

1.00000000000000e+004,-7.94180976942601e+000,-1.65919445767516e-001

1.01395947979003e+004,-7.94180961011951e+000,-1.68235590152330e-001

1.02811382665607e+004,-7.94180944633347e+000,-1.70584066506087e-001

1.04246576084112e+004,-7.94180927794208e+000,-1.72965326156619e-001

1.05701804056138e+004,-7.94180910481558e+000,-1.75379826734119e-001

1.07177346253629e+004,-7.94180892682103e+000,-1.77828032254165e-001

1.08673486252606e+004,-7.94180874382147e+000,-1.80310413210435e-001

1.10190511587661e+004,-7.94180855567614e+000,-1.82827446664232e-001

1.11728713807222e+004,-7.94180836224020e+000,-1.85379616336695e-001

1.13288388529580e+004,-7.94180816336494e+000,-1.87967412699363e-001

1.14869835499703e+004,-7.94180795889725e+000,-1.90591333071871e-001

1.16473358646846e+004,-7.94180774868020e+000,-1.93251881712013e-001

1.18099266142953e+004,-7.94180753255162e+000,-1.95949569922048e-001

1.19747870461893e+004,-7.94180731034559e+000,-1.98684916135707e-001

1.21419488439505e+004,-7.94180708189101e+000,-2.01458446026819e-001

1.23114441334492e+004,-7.94180684701206e+000,-2.04270692605571e-001

1.24833054890161e+004,-7.94180660552830e+000,-2.07122196320755e-001

1.26575659397028e+004,-7.94180635725377e+000,-2.10013505167050e-001

1.28342589756290e+004,-7.94180610199730e+000,-2.12945174788626e-001

1.30134185544193e+004,-7.94180583956282e+000,-2.15917768581974e-001

1.31950791077289e+004,-7.94180556974821e+000,-2.18931857811277e-001

1.33792755478611e+004,-7.94180529234596e+000,-2.21988021712576e-001

1.35660432744767e+004,-7.94180500714252e+000,-2.25086847608040e-001

1.37554181813974e+004,-7.94180471391856e+000,-2.28228931016596e-001

1.39474366635040e+004,-7.94180441244844e+000,-2.31414875770045e-001

1.41421356237309e+004,-7.94180410250014e+000,-2.34645294129003e-001

1.43395524801583e+004,-7.94180378383523e+000,-2.37920806898907e-001

1.45397251732031e+004,-7.94180345620824e+000,-2.41242043552567e-001

1.47426921729110e+004,-7.94180311936741e+000,-2.44609642345143e-001

1.49484924863494e+004,-7.94180277305331e+000,-2.48024250444142e-001

1.51571656651040e+004,-7.94180241699940e+000,-2.51486524048388e-001

1.53687518128801e+004,-7.94180205093172e+000,-2.54997128516170e-001

1.55832915932100e+004,-7.94180167456846e+000,-2.58556738492735e-001

1.58008262372675e+004,-7.94180128762010e+000,-2.62166038038639e-001

1.60213975517924e+004,-7.94180088978870e+000,-2.65825720764172e-001

1.62450479271247e+004,-7.94180048076802e+000,-2.69536489959963e-001

1.64718203453514e+004,-7.94180006024340e+000,-2.73299058731593e-001

1.67017583885674e+004,-7.94179962789082e+000,-2.77114150141162e-001

1.69349062472505e+004,-7.94179918337779e+000,-2.80982497338412e-001

1.71713087287550e+004,-7.94179872636185e+000,-2.84904843709618e-001

1.74110112659224e+004,-7.94179825649138e+000,-2.88881943014139e-001

1.76540599258131e+004,-7.94179777340434e+000,-2.92914559534658e-001

1.79005014185594e+004,-7.94179727672918e+000,-2.97003468216985e-001

1.81503831063432e+004,-7.94179676608319e+000,-3.01149454826977e-001

1.84037530124975e+004,-7.94179624107339e+000,-3.05353316094325e-001

1.86606598307361e+004,-7.94179570129537e+000,-3.09615859871082e-001

1.89211529345119e+004,-7.94179514633347e+000,-3.13937905283436e-001

1.91852823865052e+004,-7.94179457576045e+000,-3.18320282889127e-001

1.94530989482457e+004,-7.94179398913683e+000,-3.22763834838931e-001

1.97246540898671e+004,-7.94179338601080e+000,-3.27269415036992e-001

1.99999999999999e+004,-7.94179276591782e+000,-3.31837889305450e-001

2.02791895958005e+004,-7.94179212838041e+000,-3.36470135548569e-001

2.05622765331213e+004,-7.94179147290726e+000,-3.41167043926013e-001

2.08493152168224e+004,-7.94179079899374e+000,-3.45929517017115e-001

2.11403608112276e+004,-7.94179010612033e+000,-3.50758470002344e-001

2.14354692507258e+004,-7.94178939375363e+000,-3.55654830829501e-001

2.17346972505211e+004,-7.94178866134451e+000,-3.60619540401585e-001

2.20381023175322e+004,-7.94178790832877e+000,-3.65653552749590e-001

2.23457427614443e+004,-7.94178713412617e+000,-3.70757835220491e-001

2.26576777059159e+004,-7.94178633814010e+000,-3.75933368661076e-001

2.29739670999406e+004,-7.94178551975713e+000,-3.81181147606211e-001

2.32946717293690e+004,-7.94178467834658e+000,-3.86502180470004e-001

2.36198532285905e+004,-7.94178381325987e+000,-3.91897489740152e-001

2.39495740923785e+004,-7.94178292383024e+000,-3.97368112172888e-001

2.42838976879009e+004,-7.94178200937194e+000,-4.02915098993535e-001

2.46228882668982e+004,-7.94178106918019e+000,-4.08539516095874e-001

2.49666109780322e+004,-7.94178010252988e+000,-4.14242444250167e-001

2.53151318794055e+004,-7.94177910867598e+000,-4.20024979306116e-001

2.56685179512580e+004,-7.94177808685181e+000,-4.25888232409338e-001

2.60268371088386e+004,-7.94177703626957e+000,-4.31833330207708e-001

2.63901582154578e+004,-7.94177595611901e+000,-4.37861415072424e-001

2.67585510957221e+004,-7.94177484556696e+000,-4.43973645315845e-001

2.71320865489533e+004,-7.94177370375669e+000,-4.50171195414088e-001

2.75108363627948e+004,-7.94177252980737e+000,-4.56455256230933e-001

2.78948733270080e+004,-7.94177132281334e+000,-4.62827035247800e-001

2.82842712474618e+004,-7.94177008184326e+000,-4.69287756795068e-001

2.86791049603164e+004,-7.94176880593947e+000,-4.75838662287030e-001

2.90794503464061e+004,-7.94176749411724e+000,-4.82481010460138e-001

2.94853843458219e+004,-7.94176614536406e+000,-4.89216077614366e-001

2.98969849726987e+004,-7.94176475863889e+000,-4.96045157857241e-001

3.03143313302078e+004,-7.94176333287107e+000,-5.02969563353719e-001

3.07375036257601e+004,-7.94176186695960e+000,-5.09990624578088e-001

3.11665831864199e+004,-7.94176035977271e+000,-5.17109690565564e-001

3.16016524745350e+004,-7.94175881014633e+000,-5.24328129175694e-001

3.20427951035848e+004,-7.94175721688352e+000,-5.31647327351923e-001

3.24900958542493e+004,-7.94175557875341e+000,-5.39068691389221e-001

3.29436406907028e+004,-7.94175389449054e+000,-5.46593647200737e-001

3.34035167771346e+004,-7.94175216279333e+000,-5.54223640595965e-001

3.38698124945009e+004,-7.94175038232347e+000,-5.61960137554105e-001

3.43426174575100e+004,-7.94174855170490e+000,-5.69804624505969e-001

3.48220225318448e+004,-7.94174666952233e+000,-5.77758608620649e-001

3.53081198516260e+004,-7.94174473432057e+000,-5.85823618092453e-001

3.58010028371187e+004,-7.94174274460309e+000,-5.94001202435090e-001

3.63007662126863e+004,-7.94174069883115e+000,-6.02292932777278e-001

3.68075060249948e+004,-7.94173859542217e+000,-6.10700402166206e-001

3.73213196614721e+004,-7.94173643274872e+000,-6.19225225871469e-001

3.78423058690237e+004,-7.94173420913738e+000,-6.27869041693432e-001

3.83705647730104e+004,-7.94173192286715e+000,-6.36633510279544e-001

3.89061978964912e+004,-7.94172957216827e+000,-6.45520315440634e-001

3.94493081797342e+004,-7.94172715522063e+000,-6.54531164475207e-001

3.99999999999998e+004,-7.94172467015260e+000,-6.63667788494794e-001

4.05583791916010e+004,-7.94172211503930e+000,-6.72931942756961e-001

4.11245530662425e+004,-7.94171948790130e+000,-6.82325407000469e-001

4.16986304336447e+004,-7.94171678670291e+000,-6.91849985786438e-001

4.22807216224550e+004,-7.94171400935052e+000,-7.01507508845210e-001

4.28709385014515e+004,-7.94171115369104e+000,-7.11299831425072e-001

4.34693945010421e+004,-7.94170821751021e+000,-7.21228834648263e-001

4.40762046350642e+004,-7.94170519853087e+000,-7.31296425870525e-001

4.46914855228886e+004,-7.94170209441075e+000,-7.41504539048579e-001

4.53153554118317e+004,-7.94169890274131e+000,-7.51855135106584e-001

4.59479341998812e+004,-7.94169562104529e+000,-7.62350202314019e-001

4.65893434587380e+004,-7.94169224677480e+000,-7.72991756666600e-001

4.72397064571810e+004,-7.94168877730944e+000,-7.83781842270191e-001

4.78991481847569e+004,-7.94168520995424e+000,-7.94722531732818e-001

4.85677953758016e+004,-7.94168154193713e+000,-8.05815926562659e-001

4.92457765337964e+004,-7.94167777040734e+000,-8.17064157566486e-001

4.99332219560642e+004,-7.94167389243249e+000,-8.28469385261360e-001

5.06302637588109e+004,-7.94166990499655e+000,-8.40033800285466e-001

5.13370359025159e+004,-7.94166580499757e+000,-8.51759623816522e-001

5.20536742176771e+004,-7.94166158924475e+000,-8.63649107998867e-001

5.27803164309155e+004,-7.94165725445625e+000,-8.75704536372248e-001

5.35171021914442e+004,-7.94165279725630e+000,-8.87928224308527e-001

5.42641730979066e+004,-7.94164821417278e+000,-9.00322519454379e-001

5.50216727255895e+004,-7.94164350163397e+000,-9.12889802180440e-001

5.57897466540159e+004,-7.94163865596606e+000,-9.25632486035375e-001

5.65685424949235e+004,-7.94163367339004e+000,-9.38553018207175e-001

5.73582099206328e+004,-7.94162855001851e+000,-9.51653879991073e-001

5.81589006928121e+004,-7.94162328185267e+000,-9.64937587263146e-001

5.89707686916437e+004,-7.94161786477895e+000,-9.78406690961133e-001

5.97939699453972e+004,-7.94161229456577e+000,-9.92063777570493e-001

6.06286626604156e+004,-7.94160656686016e+000,-1.00591146961876e+000

6.14750072515201e+004,-7.94160067718393e+000,-1.01995242617669e+000

6.23331663728396e+004,-7.94159462093016e+000,-1.03418934336486e+000

6.32033049490698e+004,-7.94158839335943e+000,-1.04862495486863e+000

6.40855902071694e+004,-7.94158198959604e+000,-1.06326203245882e+000

6.49801917084985e+004,-7.94157540462370e+000,-1.07810338652202e+000

6.58872813814055e+004,-7.94156863328169e+000,-1.09315186659426e+000

6.68070335542691e+004,-7.94156167026046e+000,-1.10841036190625e+000

6.77396249890018e+004,-7.94155451009721e+000,-1.12388180193372e+000

6.86852349150199e+004,-7.94154714717152e+000,-1.13956915695451e+000

6.96440450636895e+004,-7.94153957570035e+000,-1.15547543861709e+000

7.06162397032520e+004,-7.94153178973376e+000,-1.17160370051116e+000

7.16020056742374e+004,-7.94152378314947e+000,-1.18795703875174e+000

7.26015324253724e+004,-7.94151554964796e+000,-1.20453859256789e+000

7.36150120499896e+004,-7.94150708274721e+000,-1.22135154490024e+000

7.46426393229441e+004,-7.94149837577732e+000,-1.23839912300682e+000

7.56846117380472e+004,-7.94148942187458e+000,-1.25568459907831e+000

7.67411295460207e+004,-7.94148021397616e+000,-1.27321129085910e+000

7.78123957929823e+004,-7.94147074481384e+000,-1.29098256227971e+000

7.88986163594682e+004,-7.94146100690800e+000,-1.30900182409496e+000

7.99999999999995e+004,-7.94145099256116e+000,-1.32727253453488e+000

8.11167583832018e+004,-7.94144069385158e+000,-1.34579819995982e+000

8.22491061324848e+004,-7.94143010262651e+000,-1.36458237552783e+000

8.33972608672892e+004,-7.94141921049509e+000,-1.38362866586989e+000

8.45614432449099e+004,-7.94140800882134e+000,-1.40294072577543e+000

8.57418770029029e+004,-7.94139648871669e+000,-1.42252226088477e+000

8.69387890020841e+004,-7.94138464103229e+000,-1.44237702839458e+000

8.81524092701283e+004,-7.94137245635126e+000,-1.46250883776884e+000

8.93829710457770e+004,-7.94135992498050e+000,-1.48292155146391e+000

9.06307108236633e+004,-7.94134703694211e+000,-1.50361908566030e+000

9.18958683997622e+004,-7.94133378196507e+000,-1.52460541100486e+000

9.31786869174758e+004,-7.94132014947612e+000,-1.54588455336424e+000

9.44794129143618e+004,-7.94130612859034e+000,-1.56746059458910e+000

9.57982963695136e+004,-7.94129170810205e+000,-1.58933767328485e+000

9.71355907516031e+004,-7.94127687647455e+000,-1.61151998559938e+000

9.84915530675926e+004,-7.94126162183040e+000,-1.63401178601375e+000

9.98664439121282e+004,-7.94124593194035e+000,-1.65681738815238e+000

1.01260527517622e+005,-7.94122979421312e+000,-1.67994116559552e+000

1.02674071805032e+005,-7.94121319568383e+000,-1.70338755270932e+000

1.04107348435354e+005,-7.94119612300264e+000,-1.72716104548432e+000

1.05560632861831e+005,-7.94117856242267e+000,-1.75126620238559e+000

1.07034204382888e+005,-7.94116049978776e+000,-1.77570764521505e+000

1.08528346195813e+005,-7.94114192051977e+000,-1.80049005998560e+000

1.10043345451179e+005,-7.94112280960547e+000,-1.82561819780528e+000

1.11579493308032e+005,-7.94110315158278e+000,-1.85109687577719e+000

1.13137084989847e+005,-7.94108293052691e+000,-1.87693097790753e+000

1.14716419841265e+005,-7.94106213003571e+000,-1.90312545602979e+000

1.16317801385624e+005,-7.94104073321497e+000,-1.92968533073726e+000

1.17941537383287e+005,-7.94101872266258e+000,-1.95661569233353e+000

1.19587939890794e+005,-7.94099608045262e+000,-1.98392170179171e+000

1.21257325320831e+005,-7.94097278811908e+000,-2.01160859172772e+000

1.22950014503040e+005,-7.94094882663836e+000,-2.03968166738872e+000

1.24666332745679e+005,-7.94092417641196e+000,-2.06814630765244e+000

1.26406609898139e+005,-7.94089881724793e+000,-2.09700796604218e+000

1.28171180414339e+005,-7.94087272834215e+000,-2.12627217175513e+000

1.29960383416997e+005,-7.94084588825879e+000,-2.15594453070315e+000

1.31774562762811e+005,-7.94081827490992e+000,-2.18603072657166e+000

1.33614067108538e+005,-7.94078986553500e+000,-2.21653652188812e+000

1.35479249978003e+005,-7.94076063667898e+000,-2.24746775910947e+000

1.37370469830040e+005,-7.94073056417000e+000,-2.27883036172225e+000

1.39288090127379e+005,-7.94069962309650e+000,-2.31063033535830e+000

1.41232479406504e+005,-7.94066778778320e+000,-2.34287376892569e+000

1.43204011348474e+005,-7.94063503176631e+000,-2.37556683575645e+000

1.45203064850745e+005,-7.94060132776825e+000,-2.40871579476792e+000

1.47230024099979e+005,-7.94056664767094e+000,-2.44232699164270e+000

1.49285278645888e+005,-7.94053096248866e+000,-2.47640686002344e+000

1.51369223476094e+005,-7.94049424233972e+000,-2.51096192272393e+000

1.53482259092041e+005,-7.94045645641726e+000,-2.54599879295836e+000

1.55624791585964e+005,-7.94041757295882e+000,-2.58152417558734e+000

1.57797232718936e+005,-7.94037755921531e+000,-2.61754486838030e+000

1.59999999999999e+005,-7.94033638141846e+000,-2.65406776329702e+000

1.62233516766403e+005,-7.94029400474730e+000,-2.69109984778675e+000

1.64498212264969e+005,-7.94025039329357e+000,-2.72864820610500e+000

1.66794521734578e+005,-7.94020551002591e+000,-2.76672002064976e+000

1.69122886489819e+005,-7.94015931675271e+000,-2.80532257331642e+000

1.71483754005805e+005,-7.94011177408365e+000,-2.84446324687192e+000

1.73877578004168e+005,-7.94006284139013e+000,-2.88414952634891e+000

1.76304818540256e+005,-7.94001247676426e+000,-2.92438900045873e+000

1.78765942091554e+005,-7.93996063697602e+000,-2.96518936302706e+000

1.81261421647326e+005,-7.93990727742975e+000,-3.00655841444746e+000

1.83791736799524e+005,-7.93985235211842e+000,-3.04850406315824e+000

1.86357373834951e+005,-7.93979581357640e+000,-3.09103432714074e+000

1.88958825828723e+005,-7.93973761283137e+000,-3.13415733543679e+000

1.91596592739027e+005,-7.93967769935332e+000,-3.17788132969346e+000

1.94271181503206e+005,-7.93961602100297e+000,-3.22221466572547e+000

1.96983106135185e+005,-7.93955252397767e+000,-3.26716581510498e+000

1.99732887824256e+005,-7.93948715275582e+000,-3.31274336677223e+000

2.02521055035243e+005,-7.93941985003926e+000,-3.35895602867254e+000

2.05348143610063e+005,-7.93935055669355e+000,-3.40581262941677e+000

2.08214696870707e+005,-7.93927921168662e+000,-3.45332211996807e+000

2.11121265723661e+005,-7.93920575202506e+000,-3.50149357535244e+000

2.14068408765776e+005,-7.93913011268812e+000,-3.55033619639909e+000

2.17056692391625e+005,-7.93905222655994e+000,-3.59985931150436e+000

2.20086690902357e+005,-7.93897202435891e+000,-3.65007237842585e+000

2.23158986616063e+005,-7.93888943456536e+000,-3.70098498610238e+000

2.26274169979693e+005,-7.93880438334618e+000,-3.75260685650526e+000

2.29432839682530e+005,-7.93871679447730e+000,-3.80494784651779e+000

2.32635602771247e+005,-7.93862658926368e+000,-3.85801794984416e+000

2.35883074766574e+005,-7.93853368645621e+000,-3.91182729895203e+000

2.39175879781588e+005,-7.93843800216664e+000,-3.96638616704338e+000

2.42514650641661e+005,-7.93833944977887e+000,-4.02170497006082e+000

2.45900029006080e+005,-7.93823793985811e+000,-4.07779426872523e+000

2.49332665491357e+005,-7.93813338005668e+000,-4.13466477060852e+000

2.52813219796278e+005,-7.93802567501691e+000,-4.19232733224126e+000

2.56342360828676e+005,-7.93791472627099e+000,-4.25079296125552e+000

2.59920766833993e+005,-7.93780043213773e+000,-4.31007281856493e+000

2.63549125525621e+005,-7.93768268761577e+000,-4.37017822058306e+000

2.67228134217075e+005,-7.93756138427390e+000,-4.43112064147940e+000

2.70958499956006e+005,-7.93743641013765e+000,-4.49291171547485e+000

2.74740939660078e+005,-7.93730764957254e+000,-4.55556323917988e+000

2.78576180254757e+005,-7.93717498316386e+000,-4.61908717397200e+000

2.82464958813007e+005,-7.93703828759257e+000,-4.68349564841805e+000

2.86408022696948e+005,-7.93689743550785e+000,-4.74880096073913e+000

2.90406129701488e+005,-7.93675229539565e+000,-4.81501558132180e+000

2.94460048199957e+005,-7.93660273144335e+000,-4.88215215527488e+000

2.98570557291775e+005,-7.93644860340064e+000,-4.95022350503435e+000

3.02738446952187e+005,-7.93628976643640e+000,-5.01924263301730e+000

3.06964518184081e+005,-7.93612607099160e+000,-5.08922272432483e+000

3.11249583171928e+005,-7.93595736262759e+000,-5.16017714949862e+000

3.15594465437872e+005,-7.93578348187106e+000,-5.23211946732792e+000

3.19999999999997e+005,-7.93560426405385e+000,-5.30506342771337e+000

3.24467033532806e+005,-7.93541953914907e+000,-5.37902297458429e+000

3.28996424529938e+005,-7.93522913160260e+000,-5.45401224887450e+000

3.33589043469155e+005,-7.93503286016012e+000,-5.53004559155657e+000

3.38245772979638e+005,-7.93483053768982e+000,-5.60713754673579e+000

3.42967508011610e+005,-7.93462197100040e+000,-5.68530286480631e+000

3.47755156008335e+005,-7.93440696065456e+000,-5.76455650567101e+000

3.52609637080511e+005,-7.93418530077801e+000,-5.84491364202491e+000

3.57531884183106e+005,-7.93395677886352e+000,-5.92638966270683e+000

3.62522843294651e+005,-7.93372117557047e+000,-6.00900017611802e+000

3.67583473599047e+005,-7.93347826451962e+000,-6.09276101371145e+000

3.72714747669902e+005,-7.93322781208314e+000,-6.17768823355206e+000

3.77917651657445e+005,-7.93296957716956e+000,-6.26379812395118e+000

3.83193185478053e+005,-7.93270331100449e+000,-6.35110720717463e+000

3.88542363006410e+005,-7.93242875690581e+000,-6.43963224322954e+000

3.93966212270369e+005,-7.93214565005448e+000,-6.52939023372749e+000

3.99465775648511e+005,-7.93185371726022e+000,-6.62039842583026e+000

4.05042110070485e+005,-7.93155267672233e+000,-6.71267431627610e+000

4.10696287220124e+005,-7.93124223778571e+000,-6.80623565549060e+000

4.16429393741414e+005,-7.93092210069184e+000,-6.90110045178347e+000

4.22242531447321e+005,-7.93059195632491e+000,-6.99728697563264e+000

4.28136817531551e+005,-7.93025148595293e+000,-7.09481376405749e+000

4.34113384783250e+005,-7.92990036096403e+000,-7.19369962508456e+000

4.40173381804713e+005,-7.92953824259767e+000,-7.29396364230502e+000

4.46317973232124e+005,-7.92916478167120e+000,-7.39562517952703e+000

4.52548339959385e+005,-7.92877961830098e+000,-7.49870388552683e+000

4.58865679365059e+005,-7.92838238161913e+000,-7.60321969889592e+000

4.65271205542494e+005,-7.92797268948485e+000,-7.70919285299038e+000

4.71766149533147e+005,-7.92755014819120e+000,-7.81664388098177e+000

4.78351759563174e+005,-7.92711435216648e+000,-7.92559362101287e+000

4.85029301283321e+005,-7.92666488367103e+000,-8.03606322145873e+000

4.91800058012158e+005,-7.92620131248872e+000,-8.14807414629629e+000

4.98665330982714e+005,-7.92572319561374e+000,-8.26164818058356e+000

5.05626439592555e+005,-7.92523007693201e+000,-8.37680743605028e+000

5.12684721657352e+005,-7.92472148689786e+000,-8.49357435680229e+000

5.19841533667984e+005,-7.92419694220520e+000,-8.61197172514244e+000

5.27098251051240e+005,-7.92365594545400e+000,-8.73202266750683e+000

5.34456268434150e+005,-7.92309798481114e+000,-8.85375066052302e+000

5.41916999912011e+005,-7.92252253366631e+000,-8.97717953718783e+000

