Freq.,VOut,OutRef

1.00000000000000e+004,-6.48259224267423e-001,-7.57351200540354e-002

1.01395947979003e+004,-6.48259209625570e-001,-7.67923434382824e-002

1.02811382665607e+004,-6.48259194572090e-001,-7.78643251326316e-002

1.04246576084112e+004,-6.48259179095457e-001,-7.89512711563106e-002

1.05701804056138e+004,-6.48259163183798e-001,-8.00533904041316e-002

1.07177346253629e+004,-6.48259146824853e-001,-8.11708946876758e-002

1.08673486252606e+004,-6.48259130005993e-001,-8.23039987757163e-002

1.10190511587661e+004,-6.48259112714432e-001,-8.34529204333189e-002

1.11728713807222e+004,-6.48259094936809e-001,-8.46178804671895e-002

1.13288388529580e+004,-6.48259076659410e-001,-8.57991027662381e-002

1.14869835499703e+004,-6.48259057868209e-001,-8.69968143442476e-002

1.16473358646846e+004,-6.48259038548950e-001,-8.82112453832080e-002

1.18099266142953e+004,-6.48259018686523e-001,-8.94426292809606e-002

1.19747870461893e+004,-6.48258998265756e-001,-9.06912026917294e-002

1.21419488439505e+004,-6.48258977271091e-001,-9.19572055724636e-002

1.23114441334492e+004,-6.48258955686225e-001,-9.32408812320493e-002

1.24833054890161e+004,-6.48258933494637e-001,-9.45424763745759e-002

1.26575659397028e+004,-6.48258910679270e-001,-9.58622411484432e-002

1.28342589756290e+004,-6.48258887222663e-001,-9.72004291934793e-002

1.30134185544193e+004,-6.48258863106790e-001,-9.85572976907248e-002

1.31950791077289e+004,-6.48258838312854e-001,-9.99331074128968e-002

1.33792755478611e+004,-6.48258812822172e-001,-1.01328122769743e-001

1.35660432744767e+004,-6.48258786614961e-001,-1.02742611864830e-001

1.37554181813974e+004,-6.48258759671140e-001,-1.04176846543408e-001

1.39474366635040e+004,-6.48258731970076e-001,-1.05631102445167e-001

1.41421356237309e+004,-6.48258703490333e-001,-1.07105659059183e-001

1.43395524801583e+004,-6.48258674210008e-001,-1.08600799775355e-001

1.45397251732031e+004,-6.48258644106914e-001,-1.10116811937818e-001

1.47426921729110e+004,-6.48258613157573e-001,-1.11653986905790e-001

1.49484924863494e+004,-6.48258581338347e-001,-1.13212620102675e-001

1.51571656651040e+004,-6.48258548624894e-001,-1.14793011076535e-001

1.53687518128801e+004,-6.48258514992050e-001,-1.16395463557852e-001

1.55832915932100e+004,-6.48258480413804e-001,-1.18020285517602e-001

1.58008262372675e+004,-6.48258444863785e-001,-1.19667789224530e-001

1.60213975517924e+004,-6.48258408314586e-001,-1.21338291307678e-001

1.62450479271247e+004,-6.48258370738119e-001,-1.23032112815980e-001

1.64718203453514e+004,-6.48258332105694e-001,-1.24749579278930e-001

1.67017583885674e+004,-6.48258292387440e-001,-1.26491020772990e-001

1.69349062472505e+004,-6.48258251553036e-001,-1.28256771979889e-001

1.71713087287550e+004,-6.48258209570911e-001,-1.30047172255915e-001

1.74110112659224e+004,-6.48258166408985e-001,-1.31862565692231e-001

1.76540599258131e+004,-6.48258122033977e-001,-1.33703301185851e-001

1.79005014185594e+004,-6.48258076412038e-001,-1.35569732502004e-001

1.81503831063432e+004,-6.48258029507887e-001,-1.37462218347402e-001

1.84037530124975e+004,-6.48257981285611e-001,-1.39381122433916e-001

1.86606598307361e+004,-6.48257931708274e-001,-1.41326813551074e-001

1.89211529345119e+004,-6.48257880737662e-001,-1.43299665638392e-001

1.91852823865052e+004,-6.48257828334588e-001,-1.45300057854672e-001

1.94530989482457e+004,-6.48257774458993e-001,-1.47328374650899e-001

1.97246540898671e+004,-6.48257719069524e-001,-1.49385005845603e-001

1.99999999999999e+004,-6.48257662123526e-001,-1.51470346700399e-001

2.02791895958005e+004,-6.48257603577324e-001,-1.53584797993672e-001

2.05622765331213e+004,-6.48257543385988e-001,-1.55728766098856e-001

2.08493152168224e+004,-6.48257481503402e-001,-1.57902663062051e-001

2.11403608112276e+004,-6.48257417881856e-001,-1.60106906683422e-001

2.14354692507258e+004,-6.48257352472651e-001,-1.62341920593601e-001

2.17346972505211e+004,-6.48257285225626e-001,-1.64608134337801e-001

2.20381023175322e+004,-6.48257216089094e-001,-1.66905983458769e-001

2.23457427614443e+004,-6.48257145010063e-001,-1.69235909578242e-001

2.26576777059159e+004,-6.48257071933932e-001,-1.71598360484077e-001

2.29739670999406e+004,-6.48256996804548e-001,-1.73993790215596e-001

2.32946717293690e+004,-6.48256919564413e-001,-1.76422659149345e-001

2.36198532285905e+004,-6.48256840154207e-001,-1.78885434090205e-001

2.39495740923785e+004,-6.48256758512953e-001,-1.81382588359521e-001

2.42838976879009e+004,-6.48256674578116e-001,-1.83914601885870e-001

2.46228882668982e+004,-6.48256588285222e-001,-1.86481961298730e-001

2.49666109780322e+004,-6.48256499568004e-001,-1.89085160021345e-001

2.53151318794055e+004,-6.48256408358581e-001,-1.91724698363649e-001

2.56685179512580e+004,-6.48256314586921e-001,-1.94401083621925e-001

2.60268371088386e+004,-6.48256218181005e-001,-1.97114830174875e-001

2.63901582154578e+004,-6.48256119067108e-001,-1.99866459579725e-001

2.67585510957221e+004,-6.48256017168940e-001,-2.02656500678848e-001

2.71320865489533e+004,-6.48255912408647e-001,-2.05485489693908e-001

2.75108363627948e+004,-6.48255804705751e-001,-2.08353970334851e-001

2.78948733270080e+004,-6.48255693977700e-001,-2.11262493901574e-001

2.82842712474618e+004,-6.48255580139597e-001,-2.14211619390716e-001

2.86791049603164e+004,-6.48255463104210e-001,-2.17201913602628e-001

2.90794503464061e+004,-6.48255342781756e-001,-2.20233951251597e-001

2.94853843458219e+004,-6.48255219080070e-001,-2.23308315074146e-001

2.98969849726987e+004,-6.48255091904303e-001,-2.26425595943600e-001

3.03143313302078e+004,-6.48254961157017e-001,-2.29586392981850e-001

3.07375036257601e+004,-6.48254826738049e-001,-2.32791313674724e-001

3.11665831864199e+004,-6.48254688544450e-001,-2.36040973989646e-001

3.16016524745350e+004,-6.48254546470176e-001,-2.39335998494793e-001

3.20427951035848e+004,-6.48254400406570e-001,-2.42677020475984e-001

3.24900958542493e+004,-6.48254250241654e-001,-2.46064682061856e-001

3.29436406907028e+004,-6.48254095860459e-001,-2.49499634345370e-001

3.34035167771346e+004,-6.48253937144733e-001,-2.52982537510380e-001

3.38698124945009e+004,-6.48253773972872e-001,-2.56514060957488e-001

3.43426174575100e+004,-6.48253606220129e-001,-2.60094883431709e-001

3.48220225318448e+004,-6.48253433757867e-001,-2.63725693156885e-001

3.53081198516260e+004,-6.48253256454266e-001,-2.67407187963117e-001

3.58010028371187e+004,-6.48253074173441e-001,-2.71140075425311e-001

3.63007662126863e+004,-6.48252886775971e-001,-2.74925072996210e-001

3.68075060249948e+004,-6.48252694118532e-001,-2.78762908145033e-001

3.73213196614721e+004,-6.48252496053587e-001,-2.82654318499108e-001

3.78423058690237e+004,-6.48252292429703e-001,-2.86600051983342e-001

3.83705647730104e+004,-6.48252083091155e-001,-2.90600866965170e-001

3.89061978964912e+004,-6.48251867877755e-001,-2.94657532401397e-001

3.94493081797342e+004,-6.48251646625005e-001,-2.98770827983357e-001

3.99999999999998e+004,-6.48251419163735e-001,-3.02941544289869e-001

4.05583791916010e+004,-6.48251185320060e-001,-3.07170482937355e-001

4.11245530662425e+004,-6.48250944915226e-001,-3.11458456735236e-001

4.16986304336447e+004,-6.48250697765602e-001,-3.15806289840237e-001

4.22807216224550e+004,-6.48250443682206e-001,-3.20214817918600e-001

4.28709385014515e+004,-6.48250182471072e-001,-3.24684888302058e-001

4.34693945010421e+004,-6.48249913932657e-001,-3.29217360154951e-001

4.40762046350642e+004,-6.48249637861822e-001,-3.33813104637539e-001

4.46914855228886e+004,-6.48249354047892e-001,-3.38473005073355e-001

4.53153554118317e+004,-6.48249062274094e-001,-3.43197957120517e-001

4.59479341998812e+004,-6.48248762317840e-001,-3.47988868942137e-001

4.65893434587380e+004,-6.48248453950178e-001,-3.52846661383044e-001

4.72397064571810e+004,-6.48248136935891e-001,-3.57772268145181e-001

4.78991481847569e+004,-6.48247811033185e-001,-3.62766635968224e-001

4.85677953758016e+004,-6.48247475993479e-001,-3.67830724811960e-001

4.92457765337964e+004,-6.48247131561416e-001,-3.72965508039684e-001

4.99332219560642e+004,-6.48246777474410e-001,-3.78171972607038e-001

5.06302637588109e+004,-6.48246413462704e-001,-3.83451119250360e-001

5.13370359025159e+004,-6.48246039248900e-001,-3.88803962681153e-001

5.20536742176771e+004,-6.48245654547997e-001,-3.94231531779514e-001

5.27803164309155e+004,-6.48245259067050e-001,-3.99734869792869e-001

5.35171021914442e+004,-6.48244852504962e-001,-4.05315034537102e-001

5.42641730979066e+004,-6.48244434552435e-001,-4.10973098598793e-001

5.50216727255895e+004,-6.48244004891361e-001,-4.16710149543710e-001

5.57897466540159e+004,-6.48243563194975e-001,-4.22527290124062e-001

5.65685424949235e+004,-6.48243109127411e-001,-4.28425638492118e-001

5.73582099206328e+004,-6.48242642343451e-001,-4.34406328415075e-001

5.81589006928121e+004,-6.48242162488443e-001,-4.40470509492322e-001

5.89707686916437e+004,-6.48241669197842e-001,-4.46619347377996e-001

5.97939699453972e+004,-6.48241162097062e-001,-4.52854024004902e-001

6.06286626604156e+004,-6.48240640801082e-001,-4.59175737812079e-001

6.14750072515201e+004,-6.48240104914267e-001,-4.65585703975357e-001

6.23331663728396e+004,-6.48239554030087e-001,-4.72085154641390e-001

6.32033049490698e+004,-6.48238987730842e-001,-4.78675339164420e-001

6.40855902071694e+004,-6.48238405587156e-001,-4.85357524347732e-001

6.49801917084985e+004,-6.48237807157931e-001,-4.92132994687050e-001

6.58872813814055e+004,-6.48237191989871e-001,-4.99003052617732e-001

6.68070335542691e+004,-6.48236559617203e-001,-5.05969018765700e-001

6.77396249890018e+004,-6.48235909561347e-001,-5.13032232201480e-001

6.86852349150199e+004,-6.48235241330493e-001,-5.20194050699117e-001

6.96440450636895e+004,-6.48234554419332e-001,-5.27455850996321e-001

7.06162397032520e+004,-6.48233848308777e-001,-5.34819029059901e-001

7.16020056742374e+004,-6.48233122465256e-001,-5.42285000355977e-001

7.26015324253724e+004,-6.48232376340723e-001,-5.49855200120974e-001

7.36150120499896e+004,-6.48231609372018e-001,-5.57531083638379e-001

7.46426393229441e+004,-6.48230820980715e-001,-5.65314126519632e-001

7.56846117380472e+004,-6.48230010572228e-001,-5.73205824988960e-001

7.67411295460207e+004,-6.48229177535991e-001,-5.81207696169529e-001

7.78123957929823e+004,-6.48228321244552e-001,-5.89321278378304e-001

7.88986163594682e+004,-6.48227441053395e-001,-5.97548131420364e-001

7.99999999999995e+004,-6.48226536300412e-001,-6.05889836890666e-001

8.11167583832018e+004,-6.48225606305299e-001,-6.14347998479335e-001

8.22491061324848e+004,-6.48224650369384e-001,-6.22924242278304e-001

8.33972608672892e+004,-6.48223667774817e-001,-6.31620217097813e-001

8.45614432449099e+004,-6.48222657784290e-001,-6.40437594781834e-001

8.57418770029029e+004,-6.48221619640350e-001,-6.49378070532256e-001

8.69387890020841e+004,-6.48220552565077e-001,-6.58443363233427e-001

8.81524092701283e+004,-6.48219455759392e-001,-6.67635215785646e-001

8.93829710457770e+004,-6.48218328402429e-001,-6.76955395440638e-001

9.06307108236633e+004,-6.48217169651177e-001,-6.86405694141597e-001

9.18958683997622e+004,-6.48215978639923e-001,-6.95987928868847e-001

9.31786869174758e+004,-6.48214754479303e-001,-7.05703941991382e-001

9.44794129143618e+004,-6.48213496256112e-001,-7.15555601620741e-001

9.57982963695136e+004,-6.48212203032362e-001,-7.25544801972860e-001

9.71355907516031e+004,-6.48210873844956e-001,-7.35673463731807e-001

9.84915530675926e+004,-6.48209507704687e-001,-7.45943534421690e-001

9.98664439121282e+004,-6.48208103595883e-001,-7.56356988781557e-001

1.01260527517622e+005,-6.48206660475530e-001,-7.66915829146746e-001

1.02674071805032e+005,-6.48205177272603e-001,-7.77622085835391e-001

1.04107348435354e+005,-6.48203652887474e-001,-7.88477817539999e-001

1.05560632861831e+005,-6.48202086191037e-001,-7.99485111724836e-001

1.07034204382888e+005,-6.48200476023978e-001,-8.10646085028987e-001

1.08528346195813e+005,-6.48198821196144e-001,-8.21962883674808e-001

1.10043345451179e+005,-6.48197120485542e-001,-8.33437683882446e-001

1.11579493308032e+005,-6.48195372637804e-001,-8.45072692289370e-001

1.13137084989847e+005,-6.48193576365087e-001,-8.56870146377931e-001

1.14716419841265e+005,-6.48191730345553e-001,-8.68832314905153e-001

1.16317801385624e+005,-6.48189833222126e-001,-8.80961498343674e-001

1.17941537383287e+005,-6.48187883602080e-001,-8.93260029323693e-001

1.19587939890794e+005,-6.48185880055693e-001,-9.05730273084879e-001

1.21257325320831e+005,-6.48183821115779e-001,-9.18374627932576e-001

1.22950014503040e+005,-6.48181705276330e-001,-9.31195525702180e-001

1.24666332745679e+005,-6.48179530991961e-001,-9.44195432227788e-001

1.26406609898139e+005,-6.48177296676554e-001,-9.57376847820390e-001

1.28171180414339e+005,-6.48175000702745e-001,-9.70742307748432e-001

1.29960383416997e+005,-6.48172641400362e-001,-9.84294382731247e-001

1.31774562762811e+005,-6.48170217055919e-001,-9.98035679432899e-001

1.33614067108538e+005,-6.48167725911201e-001,-1.01196884096862e+000

1.35479249978003e+005,-6.48165166162417e-001,-1.02609654741366e+000

1.37370469830040e+005,-6.48162535958973e-001,-1.04042151632342e+000

1.39288090127379e+005,-6.48159833402388e-001,-1.05494650325805e+000

1.41232479406504e+005,-6.48157056545293e-001,-1.06967430231534e+000

1.43204011348474e+005,-6.48154203390038e-001,-1.08460774667181e+000

1.45203064850745e+005,-6.48151271887771e-001,-1.09974970912998e+000

1.47230024099979e+005,-6.48148259937002e-001,-1.11510310267513e+000

1.49285278645888e+005,-6.48145165382630e-001,-1.13067088103800e+000

1.51369223476094e+005,-6.48141986014540e-001,-1.14645603926689e+000

1.53482259092041e+005,-6.48138719566207e-001,-1.16246161430785e+000

1.55624791585964e+005,-6.48135363713856e-001,-1.17869068559108e+000

1.57797232718936e+005,-6.48131916074661e-001,-1.19514637562835e+000

1.59999999999999e+005,-6.48128374205734e-001,-1.21183185061666e+000

1.62233516766403e+005,-6.48124735602582e-001,-1.22875032105181e+000

1.64498212264969e+005,-6.48120997697898e-001,-1.24590504234979e+000

1.66794521734578e+005,-6.48117157860016e-001,-1.26329931547683e+000

1.69122886489819e+005,-6.48113213391591e-001,-1.28093648758947e+000

1.71483754005805e+005,-6.48109161528054e-001,-1.29881995268207e+000

1.73877578004168e+005,-6.48104999436225e-001,-1.31695315224461e+000

1.76304818540256e+005,-6.48100724212846e-001,-1.33533957592911e+000

1.78765942091554e+005,-6.48096332882902e-001,-1.35398276222613e+000

1.81261421647326e+005,-6.48091822398310e-001,-1.37288629914949e+000

1.83791736799524e+005,-6.48087189636139e-001,-1.39205382493225e+000

1.86357373834951e+005,-6.48082431397190e-001,-1.41148902873121e+000

1.88958825828723e+005,-6.48077544404332e-001,-1.43119565134177e+000

1.91596592739027e+005,-6.48072525300785e-001,-1.45117748592319e+000

1.94271181503206e+005,-6.48067370648615e-001,-1.47143837873302e+000

1.96983106135185e+005,-6.48062076926991e-001,-1.49198222987300e+000

1.99732887824256e+005,-6.48056640530394e-001,-1.51281299404489e+000

2.02521055035243e+005,-6.48051057767032e-001,-1.53393468131677e+000

2.05348143610063e+005,-6.48045324857011e-001,-1.55535135790027e+000

2.08214696870707e+005,-6.48039437930557e-001,-1.57706714693866e+000

2.11121265723661e+005,-6.48033393026300e-001,-1.59908622930582e+000

2.14068408765776e+005,-6.48027186089314e-001,-1.62141284441698e+000

2.17056692391625e+005,-6.48020812969355e-001,-1.64405129104991e+000

2.20086690902357e+005,-6.48014269419051e-001,-1.66700592817833e+000

2.23158986616063e+005,-6.48007551091842e-001,-1.69028117581675e+000

2.26274169979693e+005,-6.48000653540288e-001,-1.71388151587614e+000

2.29432839682530e+005,-6.47993572213817e-001,-1.73781149303424e+000

2.32635602771247e+005,-6.47986302457084e-001,-1.76207571561425e+000

2.35883074766574e+005,-6.47978839507663e-001,-1.78667885647935e+000

2.39175879781588e+005,-6.47971178494310e-001,-1.81162565393639e+000

2.42514650641661e+005,-6.47963314434678e-001,-1.83692091265558e+000

2.45900029006080e+005,-6.47955242233348e-001,-1.86256950459973e+000

2.49332665491357e+005,-6.47946956679620e-001,-1.88857636996875e+000

2.52813219796278e+005,-6.47938452445584e-001,-1.91494651815569e+000

2.56342360828676e+005,-6.47929724083716e-001,-1.94168502871705e+000

2.59920766833993e+005,-6.47920766024770e-001,-1.96879705235656e+000

2.63549125525621e+005,-6.47911572575444e-001,-1.99628781192132e+000

2.67228134217075e+005,-6.47902137916291e-001,-2.02416260341302e+000

2.70958499956006e+005,-6.47892456099213e-001,-2.05242679701307e+000

2.74740939660078e+005,-6.47882521045219e-001,-2.08108583812076e+000

2.78576180254757e+005,-6.47872326541924e-001,-2.11014524840708e+000

2.82464958813007e+005,-6.47861866241190e-001,-2.13961062688198e+000

2.86408022696948e+005,-6.47851133656652e-001,-2.16948765097706e+000

2.90406129701488e+005,-6.47840122161046e-001,-2.19978207764294e+000

2.94460048199957e+005,-6.47828824983733e-001,-2.23049974446112e+000

2.98570557291775e+005,-6.47817235207955e-001,-2.26164657077261e+000

3.02738446952187e+005,-6.47805345768317e-001,-2.29322855881940e+000

3.06964518184081e+005,-6.47793149447693e-001,-2.32525179490501e+000

3.11249583171928e+005,-6.47780638874672e-001,-2.35772245056794e+000

3.15594465437872e+005,-6.47767806520412e-001,-2.39064678377247e+000

3.19999999999997e+005,-6.47754644695861e-001,-2.42403114011580e+000

3.24467033532806e+005,-6.47741145548373e-001,-2.45788195405174e+000

3.28996424529938e+005,-6.47727301058920e-001,-2.49220575012978e+000

3.33589043469155e+005,-6.47713103038412e-001,-2.52700914425324e+000

3.38245772979638e+005,-6.47698543124669e-001,-2.56229884495278e+000

3.42967508011610e+005,-6.47683612778632e-001,-2.59808165467803e+000

3.47755156008335e+005,-6.47668303280988e-001,-2.63436447110656e+000

3.52609637080511e+005,-6.47652605728331e-001,-2.67115428847082e+000

3.57531884183106e+005,-6.47636511029243e-001,-2.70845819890307e+000

3.62522843294651e+005,-6.47620009900480e-001,-2.74628339379848e+000

3.67583473599047e+005,-6.47603092862567e-001,-2.78463716519678e+000

3.72714747669902e+005,-6.47585750235559e-001,-2.82352690718338e+000

3.77917651657445e+005,-6.47567972134578e-001,-2.86296011730812e+000

3.83193185478053e+005,-6.47549748465068e-001,-2.90294439802478e+000

3.88542363006410e+005,-6.47531068917987e-001,-2.94348745814921e+000

3.93966212270369e+005,-6.47511922964478e-001,-2.98459711433797e+000

3.99465775648511e+005,-6.47492299850963e-001,-3.02628129258616e+000

4.05042110070485e+005,-6.47472188593158e-001,-3.06854802974709e+000

4.10696287220124e+005,-6.47451577970466e-001,-3.11140547507153e+000

4.16429393741414e+005,-6.47430456519963e-001,-3.15486189176823e+000

4.22242531447321e+005,-6.47408812529948e-001,-3.19892565858606e+000

4.28136817531551e+005,-6.47386634033376e-001,-3.24360527141772e+000

4.34113384783250e+005,-6.47363908800870e-001,-3.28890934492506e+000

4.40173381804713e+005,-6.47340624333473e-001,-3.33484661418755e+000

4.46317973232124e+005,-6.47316767855053e-001,-3.38142593637242e+000

4.52548339959385e+005,-6.47292326304349e-001,-3.42865629242862e+000

4.58865679365059e+005,-6.47267286326666e-001,-3.47654678880364e+000

4.65271205542494e+005,-6.47241634265083e-001,-3.52510665918449e+000

4.71766149533147e+005,-6.47215356151423e-001,-3.57434526626286e+000

4.78351759563174e+005,-6.47188437696568e-001,-3.62427210352437e+000

4.85029301283321e+005,-6.47160864280691e-001,-3.67489679706301e+000

4.91800058012158e+005,-6.47132620942596e-001,-3.72622910742127e+000

4.98665330982714e+005,-6.47103692368910e-001,-3.77827893145577e+000

5.05626439592555e+005,-6.47074062882728e-001,-3.83105630422884e+000

5.12684721657352e+005,-6.47043716431496e-001,-3.88457140092782e+000

5.19841533667984e+005,-6.47012636574823e-001,-3.93883453880985e+000

5.27098251051240e+005,-6.46980806471278e-001,-3.99385617917619e+000

5.34456268434150e+005,-6.46948208864952e-001,-4.04964692937319e+000

5.41916999912011e+005,-6.46914826071244e-001,-4.10621754482252e+000

