Freq.,VOut,OutRef

1.00000000000000e+004,-4.22276565806243e+001,-4.04756473769415e-001

1.01395947979003e+004,-4.22276594876067e+001,-4.10406570940767e-001

1.02811382665607e+004,-4.22276624763085e+001,-4.16135536595835e-001

1.04246576084112e+004,-4.22276655490269e+001,-4.21944471530684e-001

1.05701804056138e+004,-4.22276687081234e+001,-4.27834491900490e-001

1.07177346253629e+004,-4.22276719560259e+001,-4.33806729434671e-001

1.08673486252606e+004,-4.22276752952309e+001,-4.39862331652103e-001

1.10190511587661e+004,-4.22276787283045e+001,-4.46002462083478e-001

1.11728713807222e+004,-4.22276822578853e+001,-4.52228300493705e-001

1.13288388529580e+004,-4.22276858866859e+001,-4.58541043106410e-001

1.14869835499703e+004,-4.22276896174951e+001,-4.64941902836251e-001

1.16473358646846e+004,-4.22276934531803e+001,-4.71432109519238e-001

1.18099266142953e+004,-4.22276973966892e+001,-4.78012910149503e-001

1.19747870461893e+004,-4.22277014510525e+001,-4.84685569118061e-001

1.21419488439505e+004,-4.22277056193860e+001,-4.91451368456438e-001

1.23114441334492e+004,-4.22277099048931e+001,-4.98311608079809e-001

1.24833054890161e+004,-4.22277143108670e+001,-5.05267606039444e-001

1.26575659397028e+004,-4.22277188406939e+001,-5.12320698772884e-001

1.28342589756290e+004,-4.22277234978547e+001,-5.19472241360901e-001

1.30134185544193e+004,-4.22277282859283e+001,-5.26723607787773e-001

1.31950791077289e+004,-4.22277332085942e+001,-5.34076191203446e-001

1.33792755478611e+004,-4.22277382696352e+001,-5.41531404191401e-001

1.35660432744767e+004,-4.22277434729405e+001,-5.49090679039192e-001

1.37554181813974e+004,-4.22277488225083e+001,-5.56755468013392e-001

1.39474366635040e+004,-4.22277543224496e+001,-5.64527243635743e-001

1.41421356237309e+004,-4.22277599769904e+001,-5.72407498968036e-001

1.43395524801583e+004,-4.22277657904759e+001,-5.80397747895209e-001

1.45397251732031e+004,-4.22277717673729e+001,-5.88499525418987e-001

1.47426921729110e+004,-4.22277779122741e+001,-5.96714387947344e-001

1.49484924863494e+004,-4.22277842299010e+001,-6.05043913597039e-001

1.51571656651040e+004,-4.22277907251079e+001,-6.13489702491359e-001

1.53687518128801e+004,-4.22277974028853e+001,-6.22053377070870e-001

1.55832915932100e+004,-4.22278042683641e+001,-6.30736582400211e-001

1.58008262372675e+004,-4.22278113268190e+001,-6.39540986485923e-001

1.60213975517924e+004,-4.22278185836733e+001,-6.48468280593757e-001

1.62450479271247e+004,-4.22278260445025e+001,-6.57520179572295e-001

1.64718203453514e+004,-4.22278337150385e+001,-6.66698422183224e-001

1.67017583885674e+004,-4.22278416011743e+001,-6.76004771431457e-001

1.69349062472505e+004,-4.22278497089687e+001,-6.85441014903570e-001

1.71713087287550e+004,-4.22278580446503e+001,-6.95008965109630e-001

1.74110112659224e+004,-4.22278666146228e+001,-7.04710459830242e-001

1.76540599258131e+004,-4.22278754254699e+001,-7.14547362466523e-001

1.79005014185594e+004,-4.22278844839600e+001,-7.24521562397959e-001

1.81503831063432e+004,-4.22278937970516e+001,-7.34634975343435e-001

1.84037530124975e+004,-4.22279033718989e+001,-7.44889543725670e-001

1.86606598307361e+004,-4.22279132158566e+001,-7.55287237044885e-001

1.89211529345119e+004,-4.22279233364862e+001,-7.65830052252851e-001

1.91852823865052e+004,-4.22279337415615e+001,-7.76520014136509e-001

1.94530989482457e+004,-4.22279444390746e+001,-7.87359175703042e-001

1.97246540898671e+004,-4.22279554372420e+001,-7.98349618572623e-001

1.99999999999999e+004,-4.22279667445109e+001,-8.09493453375561e-001

2.02791895958005e+004,-4.22279783695655e+001,-8.20792820156745e-001

2.05622765331213e+004,-4.22279903213342e+001,-8.32249888781458e-001

2.08493152168224e+004,-4.22280026089958e+001,-8.43866859351922e-001

2.11403608112276e+004,-4.22280152419870e+001,-8.55645962625378e-001

2.14354692507258e+004,-4.22280282300091e+001,-8.67589460440624e-001

2.17346972505211e+004,-4.22280415830360e+001,-8.79699646149609e-001

2.20381023175322e+004,-4.22280553113216e+001,-8.91978845053259e-001

2.23457427614443e+004,-4.22280694254074e+001,-9.04429414846147e-001

2.26576777059159e+004,-4.22280839361310e+001,-9.17053746066161e-001

2.29739670999406e+004,-4.22280988546341e+001,-9.29854262548287e-001

2.32946717293690e+004,-4.22281141923711e+001,-9.42833421887410e-001

2.36198532285905e+004,-4.22281299611180e+001,-9.55993715907168e-001

2.39495740923785e+004,-4.22281461729809e+001,-9.69337671133104e-001

2.42838976879009e+004,-4.22281628404062e+001,-9.82867849274203e-001

2.46228882668982e+004,-4.22281799761890e+001,-9.96586847710130e-001

2.49666109780322e+004,-4.22281975934839e+001,-1.01049729998579e+000

2.53151318794055e+004,-4.22282157058141e+001,-1.02460187631201e+000

2.56685179512580e+004,-4.22282343270826e+001,-1.03890328407358e+000

2.60268371088386e+004,-4.22282534715823e+001,-1.05340426834291e+000

2.63901582154578e+004,-4.22282731540072e+001,-1.06810761240303e+000

2.67585510957221e+004,-4.22282933894631e+001,-1.08301613827579e+000

2.71320865489533e+004,-4.22283141934799e+001,-1.09813270725730e+000

2.75108363627948e+004,-4.22283355820229e+001,-1.11346022046189e+000

2.78948733270080e+004,-4.22283575715051e+001,-1.12900161937243e+000

2.82842712474618e+004,-4.22283801788002e+001,-1.14475988639723e+000

2.86791049603164e+004,-4.22284034212544e+001,-1.16073804543839e+000

2.90794503464061e+004,-4.22284273167008e+001,-1.17693916246256e+000

2.94853843458219e+004,-4.22284518834724e+001,-1.19336634608234e+000

2.98969849726987e+004,-4.22284771404160e+001,-1.21002274814616e+000

3.03143313302078e+004,-4.22285031069070e+001,-1.22691156433443e+000

3.07375036257601e+004,-4.22285298028636e+001,-1.24403603476464e+000

3.11665831864199e+004,-4.22285572487626e+001,-1.26139944460395e+000

3.16016524745350e+004,-4.22285854656546e+001,-1.27900512469049e+000

3.20427951035848e+004,-4.22286144751799e+001,-1.29685645216383e+000

3.24900958542493e+004,-4.22286442995857e+001,-1.31495685110128e+000

3.29436406907028e+004,-4.22286749617420e+001,-1.33330979316709e+000

3.34035167771346e+004,-4.22287064851599e+001,-1.35191879826490e+000

3.38698124945009e+004,-4.22287388940089e+001,-1.37078743520401e+000

3.43426174575100e+004,-4.22287722131358e+001,-1.38991932237064e+000

3.48220225318448e+004,-4.22288064680831e+001,-1.40931812841187e+000

3.53081198516260e+004,-4.22288416851084e+001,-1.42898757292446e+000

3.58010028371187e+004,-4.22288778912052e+001,-1.44893142715606e+000

3.63007662126863e+004,-4.22289151141221e+001,-1.46915351471522e+000

3.68075060249948e+004,-4.22289533823852e+001,-1.48965771228928e+000

3.73213196614721e+004,-4.22289927253184e+001,-1.51044795037408e+000

3.78423058690237e+004,-4.22290331730671e+001,-1.53152821401050e+000

3.83705647730104e+004,-4.22290747566197e+001,-1.55290254353365e+000

3.89061978964912e+004,-4.22291175078321e+001,-1.57457503533054e+000

3.94493081797342e+004,-4.22291614594514e+001,-1.59654984260722e+000

3.99999999999998e+004,-4.22292066451408e+001,-1.61883117616619e+000

4.05583791916010e+004,-4.22292530995049e+001,-1.64142330519664e+000

4.11245530662425e+004,-4.22293008581163e+001,-1.66433055806986e+000

4.16986304336447e+004,-4.22293499575423e+001,-1.68755732315062e+000

4.22807216224550e+004,-4.22294004353724e+001,-1.71110804961498e+000

4.28709385014515e+004,-4.22294523302470e+001,-1.73498724828111e+000

4.34693945010421e+004,-4.22295056818864e+001,-1.75919949245046e+000

4.40762046350642e+004,-4.22295605311212e+001,-1.78374941875813e+000

4.46914855228886e+004,-4.22296169199224e+001,-1.80864172803786e+000

4.53153554118317e+004,-4.22296748914337e+001,-1.83388118619428e+000

4.59479341998812e+004,-4.22297344900038e+001,-1.85947262508939e+000

4.65893434587380e+004,-4.22297957612200e+001,-1.88542094343762e+000

4.72397064571810e+004,-4.22298587519420e+001,-1.91173110771687e+000

4.78991481847569e+004,-4.22299235103382e+001,-1.93840815308522e+000

4.85677953758016e+004,-4.22299900859210e+001,-1.96545718431433e+000

4.92457765337964e+004,-4.22300585295843e+001,-1.99288337673340e+000

4.99332219560642e+004,-4.22301288936419e+001,-2.02069197718298e+000

5.06302637588109e+004,-4.22302012318670e+001,-2.04888830498325e+000

5.13370359025159e+004,-4.22302755995321e+001,-2.07747775291482e+000

5.20536742176771e+004,-4.22303520534506e+001,-2.10646578820971e+000

5.27803164309155e+004,-4.22304306520196e+001,-2.13585795355650e+000

5.35171021914442e+004,-4.22305114552635e+001,-2.16565986811713e+000

5.42641730979066e+004,-4.22305945248790e+001,-2.19587722855813e+000

5.50216727255895e+004,-4.22306799242811e+001,-2.22651581009233e+000

5.57897466540159e+004,-4.22307677186507e+001,-2.25758146753420e+000

5.65685424949235e+004,-4.22308579749832e+001,-2.28908013636967e+000

5.73582099206328e+004,-4.22309507621385e+001,-2.32101783383814e+000

5.81589006928121e+004,-4.22310461508923e+001,-2.35340066002680e+000

5.89707686916437e+004,-4.22311442139890e+001,-2.38623479898001e+000

5.97939699453972e+004,-4.22312450261957e+001,-2.41952651982108e+000

6.06286626604156e+004,-4.22313486643578e+001,-2.45328217788856e+000

6.14750072515201e+004,-4.22314552074563e+001,-2.48750821588520e+000

6.23331663728396e+004,-4.22315647366663e+001,-2.52221116504160e+000

6.32033049490698e+004,-4.22316773354171e+001,-2.55739764629332e+000

6.40855902071694e+004,-4.22317930894541e+001,-2.59307437147284e+000

6.49801917084985e+004,-4.22319120869025e+001,-2.62924814451397e+000

6.58872813814055e+004,-4.22320344183322e+001,-2.66592586267218e+000

6.68070335542691e+004,-4.22321601768247e+001,-2.70311451775915e+000

6.77396249890018e+004,-4.22322894580418e+001,-2.74082119739021e+000

6.86852349150199e+004,-4.22324223602965e+001,-2.77905308624779e+000

6.96440450636895e+004,-4.22325589846246e+001,-2.81781746735972e+000

7.06162397032520e+004,-4.22326994348596e+001,-2.85712172339024e+000

7.16020056742374e+004,-4.22328438177089e+001,-2.89697333794878e+000

7.26015324253724e+004,-4.22329922428317e+001,-2.93737989690995e+000

7.36150120499896e+004,-4.22331448229197e+001,-2.97834908975214e+000

7.46426393229441e+004,-4.22333016737794e+001,-3.01988871090863e+000

7.56846117380472e+004,-4.22334629144166e+001,-3.06200666113491e+000

7.67411295460207e+004,-4.22336286671236e+001,-3.10471094888969e+000

7.78123957929823e+004,-4.22337990575674e+001,-3.14800969173460e+000

7.88986163594682e+004,-4.22339742148825e+001,-3.19191111774423e+000

7.99999999999995e+004,-4.22341542717633e+001,-3.23642356693526e+000

8.11167583832018e+004,-4.22343393645612e+001,-3.28155549270955e+000

8.22491061324848e+004,-4.22345296333829e+001,-3.32731546331298e+000

8.33972608672892e+004,-4.22347252221919e+001,-3.37371216330872e+000

8.45614432449099e+004,-4.22349262789124e+001,-3.42075439506714e+000

8.57418770029029e+004,-4.22351329555356e+001,-3.46845108027111e+000

8.69387890020841e+004,-4.22353454082291e+001,-3.51681126143594e+000

8.81524092701283e+004,-4.22355637974493e+001,-3.56584410344511e+000

8.93829710457770e+004,-4.22357882880560e+001,-3.61555889510226e+000

9.06307108236633e+004,-4.22360190494302e+001,-3.66596505069808e+000

9.18958683997622e+004,-4.22362562555955e+001,-3.71707211159180e+000

9.31786869174758e+004,-4.22365000853416e+001,-3.76888974781024e+000

9.44794129143618e+004,-4.22367507223514e+001,-3.82142775966008e+000

9.57982963695136e+004,-4.22370083553314e+001,-3.87469607935734e+000

9.71355907516031e+004,-4.22372731781454e+001,-3.92870477267078e+000

9.84915530675926e+004,-4.22375453899511e+001,-3.98346404058167e+000

9.98664439121282e+004,-4.22378251953406e+001,-4.03898422095778e+000

1.01260527517622e+005,-4.22381128044842e+001,-4.09527579024391e+000

1.02674071805032e+005,-4.22384084332774e+001,-4.15234936516577e+000

1.04107348435354e+005,-4.22387123034927e+001,-4.21021570445087e+000

1.05560632861831e+005,-4.22390246429336e+001,-4.26888571056169e+000

1.07034204382888e+005,-4.22393456855934e+001,-4.32837043144691e+000

1.08528346195813e+005,-4.22396756718175e+001,-4.38868106230422e+000

1.10043345451179e+005,-4.22400148484701e+001,-4.44982894735893e+000

1.11579493308032e+005,-4.22403634691043e+001,-4.51182558165805e+000

1.13137084989847e+005,-4.22407217941363e+001,-4.57468261287634e+000

1.14716419841265e+005,-4.22410900910250e+001,-4.63841184313832e+000

1.16317801385624e+005,-4.22414686344539e+001,-4.70302523085302e+000

1.17941537383287e+005,-4.22418577065196e+001,-4.76853489256255e+000

1.19587939890794e+005,-4.22422575969225e+001,-4.83495310480502e+000

1.21257325320831e+005,-4.22426686031639e+001,-4.90229230598923e+000

1.22950014503040e+005,-4.22430910307469e+001,-4.97056509828374e+000

1.24666332745679e+005,-4.22435251933817e+001,-5.03978424951769e+000

1.26406609898139e+005,-4.22439714131963e+001,-5.10996269509481e+000

1.28171180414339e+005,-4.22444300209518e+001,-5.18111353991927e+000

1.29960383416997e+005,-4.22449013562631e+001,-5.25325006033336e+000

1.31774562762811e+005,-4.22453857678235e+001,-5.32638570606690e+000

1.33614067108538e+005,-4.22458836136360e+001,-5.40053410219886e+000

1.35479249978003e+005,-4.22463952612487e+001,-5.47570905112805e+000

1.37370469830040e+005,-4.22469210879961e+001,-5.55192453455605e+000

1.39288090127379e+005,-4.22474614812451e+001,-5.62919471547995e+000

1.41232479406504e+005,-4.22480168386478e+001,-5.70753394019451e+000

1.43204011348474e+005,-4.22485875683986e+001,-5.78695674030467e+000

1.45203064850745e+005,-4.22491740894977e+001,-5.86747783474611e+000

1.47230024099979e+005,-4.22497768320200e+001,-5.94911213181582e+000

1.49285278645888e+005,-4.22503962373903e+001,-6.03187473120946e+000

1.51369223476094e+005,-4.22510327586640e+001,-6.11578092606736e+000

1.53482259092041e+005,-4.22516868608142e+001,-6.20084620502778e+000

1.55624791585964e+005,-4.22523590210248e+001,-6.28708625428688e+000

1.57797232718936e+005,-4.22530497289896e+001,-6.37451695966495e+000

1.59999999999999e+005,-4.22537594872182e+001,-6.46315440867896e+000

1.62233516766403e+005,-4.22544888113478e+001,-6.55301489261913e+000

1.64498212264969e+005,-4.22552382304619e+001,-6.64411490863274e+000

1.66794521734578e+005,-4.22560082874152e+001,-6.73647116180925e+000

1.69122886489819e+005,-4.22567995391658e+001,-6.83010056727155e+000

1.71483754005805e+005,-4.22576125571131e+001,-6.92502025226910e+000

1.73877578004168e+005,-4.22584479274435e+001,-7.02124755827369e+000

1.76304818540256e+005,-4.22593062514829e+001,-7.11880004307768e+000

1.78765942091554e+005,-4.22601881460557e+001,-7.21769548289339e+000

1.81261421647326e+005,-4.22610942438509e+001,-7.31795187445288e+000

1.83791736799524e+005,-4.22620251937965e+001,-7.41958743710851e+000

1.86357373834951e+005,-4.22629816614397e+001,-7.52262061493265e+000

1.88958825828723e+005,-4.22639643293353e+001,-7.62707007881664e+000

1.91596592739027e+005,-4.22649738974414e+001,-7.73295472856737e+000

1.94271181503206e+005,-4.22660110835224e+001,-7.84029369500218e+000

1.96983106135185e+005,-4.22670766235600e+001,-7.94910634204043e+000

1.99732887824256e+005,-4.22681712721716e+001,-8.05941226879172e+000

2.02521055035243e+005,-4.22692958030364e+001,-8.17123131163915e+000

2.05348143610063e+005,-4.22704510093296e+001,-8.28458354631834e+000

2.08214696870707e+005,-4.22716377041647e+001,-8.39948928999074e+000

2.11121265723661e+005,-4.22728567210432e+001,-8.51596910331000e+000

2.14068408765776e+005,-4.22741089143132e+001,-8.63404379248239e+000

2.17056692391625e+005,-4.22753951596357e+001,-8.75373441131917e+000

2.20086690902357e+005,-4.22767163544593e+001,-8.87506226328052e+000

2.23158986616063e+005,-4.22780734185036e+001,-8.99804890351100e+000

2.26274169979693e+005,-4.22794672942509e+001,-9.12271614086553e+000

2.29432839682530e+005,-4.22808989474464e+001,-9.24908603992498e+000

2.32635602771247e+005,-4.22823693676072e+001,-9.37718092300127e+000

2.35883074766574e+005,-4.22838795685403e+001,-9.50702337213017e+000

2.39175879781588e+005,-4.22854305888695e+001,-9.63863623105352e+000

2.42514650641661e+005,-4.22870234925710e+001,-9.77204260718741e+000

2.45900029006080e+005,-4.22886593695186e+001,-9.90726587357772e+000

2.49332665491357e+005,-4.22903393360381e+001,-1.00443296708415e+001

2.52813219796278e+005,-4.22920645354712e+001,-1.01832579090934e+001

2.56342360828676e+005,-4.22938361387488e+001,-1.03240747698576e+001

2.59920766833993e+005,-4.22956553449743e+001,-1.04668047079629e+001

2.63549125525621e+005,-4.22975233820165e+001,-1.06114724534219e+001

2.67228134217075e+005,-4.22994415071131e+001,-1.07581030132929e+001

2.70958499956006e+005,-4.23014110074841e+001,-1.09067216735230e+001

2.74740939660078e+005,-4.23034332009557e+001,-1.10573540007738e+001

2.78576180254757e+005,-4.23055094365950e+001,-1.12100258442265e+001

2.82464958813007e+005,-4.23076410953555e+001,-1.13647633373680e+001

2.86408022696948e+005,-4.23098295907340e+001,-1.15215928997548e+001

2.90406129701488e+005,-4.23120763694384e+001,-1.16805412387555e+001

2.94460048199957e+005,-4.23143829120678e+001,-1.18416353512713e+001

2.98570557291775e+005,-4.23167507338040e+001,-1.20049025254313e+001

3.02738446952187e+005,-4.23191813851152e+001,-1.21703703422646e+001

3.06964518184081e+005,-4.23216764524733e+001,-1.23380666773448e+001

3.11249583171928e+005,-4.23242375590825e+001,-1.25080197024090e+001

3.15594465437872e+005,-4.23268663656222e+001,-1.26802578869473e+001

3.19999999999997e+005,-4.23295645710037e+001,-1.28548099997625e+001

3.24467033532806e+005,-4.23323339131398e+001,-1.30317051104992e+001

3.28996424529938e+005,-4.23351761697304e+001,-1.32109725911380e+001

3.33589043469155e+005,-4.23380931590614e+001,-1.33926421174571e+001

3.38245772979638e+005,-4.23410867408201e+001,-1.35767436704536e+001

3.42967508011610e+005,-4.23441588169259e+001,-1.37633075377285e+001

3.47755156008335e+005,-4.23473113323775e+001,-1.39523643148280e+001

3.52609637080511e+005,-4.23505462761165e+001,-1.41439449065401e+001

3.57531884183106e+005,-4.23538656819093e+001,-1.43380805281449e+001

3.62522843294651e+005,-4.23572716292455e+001,-1.45348027066126e+001

3.67583473599047e+005,-4.23607662442565e+001,-1.47341432817483e+001

3.72714747669902e+005,-4.23643517006517e+001,-1.49361344072773e+001

3.77917651657445e+005,-4.23680302206751e+001,-1.51408085518694e+001

3.83193185478053e+005,-4.23718040760820e+001,-1.53481985000945e+001

3.88542363006410e+005,-4.23756755891370e+001,-1.55583373533075e+001

3.93966212270369e+005,-4.23796471336327e+001,-1.57712585304543e+001

3.99465775648511e+005,-4.23837211359314e+001,-1.59869957687960e+001

4.05042110070485e+005,-4.23879000760292e+001,-1.62055831245416e+001

4.10696287220124e+005,-4.23921864886434e+001,-1.64270549733860e+001

4.16429393741414e+005,-4.23965829643244e+001,-1.66514460109430e+001

4.22242531447321e+005,-4.24010921505915e+001,-1.68787912530666e+001

4.28136817531551e+005,-4.24057167530948e+001,-1.71091260360535e+001

4.34113384783250e+005,-4.24104595368023e+001,-1.73424860167146e+001

4.40173381804713e+005,-4.24153233272131e+001,-1.75789071723094e+001

4.46317973232124e+005,-4.24203110115982e+001,-1.78184258003306e+001

4.52548339959385e+005,-4.24254255402678e+001,-1.80610785181302e+001

4.58865679365059e+005,-4.24306699278665e+001,-1.83069022623732e+001

4.65271205542494e+005,-4.24360472546965e+001,-1.85559342883088e+001

4.71766149533147e+005,-4.24415606680688e+001,-1.88082121688462e+001

4.78351759563174e+005,-4.24472133836834e+001,-1.90637737934204e+001

4.85029301283321e+005,-4.24530086870372e+001,-1.93226573666353e+001

4.91800058012158e+005,-4.24589499348612e+001,-1.95849014066689e+001

4.98665330982714e+005,-4.24650405565857e+001,-1.98505447434254e+001

5.05626439592555e+005,-4.24712840558337e+001,-2.01196265164181e+001

5.12684721657352e+005,-4.24776840119425e+001,-2.03921861723675e+001

5.19841533667984e+005,-4.24842440815128e+001,-2.06682634624967e+001

5.27098251051240e+005,-4.24909679999839e+001,-2.09478984395066e+001

5.34456268434150e+005,-4.24978595832361e+001,-2.12311314542135e+001

5.41916999912011e+005,-4.25049227292174e+001,-2.15180031518306e+001

