Freq.,VOut,OutRef

1.00000000000000e+004,-8.95078639767953e+000,-6.45699337170595e-002

1.01395947979003e+004,-8.95078645210367e+000,-6.54712893745615e-002

1.02811382665607e+004,-8.95078650805670e+000,-6.63852271923078e-002

1.04246576084112e+004,-8.95078656558229e+000,-6.73119227934209e-002

1.05701804056138e+004,-8.95078662472396e+000,-6.82515542610865e-002

1.07177346253629e+004,-8.95078668552768e+000,-6.92043021552404e-002

1.08673486252606e+004,-8.95078674803964e+000,-7.01703495635069e-002

1.10190511587661e+004,-8.95078681230809e+000,-7.11498821234439e-002

1.11728713807222e+004,-8.95078687838235e+000,-7.21430880648877e-002

1.13288388529580e+004,-8.95078694631297e+000,-7.31501582461300e-002

1.14869835499703e+004,-8.95078701615213e+000,-7.41712861875250e-002

1.16473358646846e+004,-8.95078708795342e+000,-7.52066681102548e-002

1.18099266142953e+004,-8.95078716177205e+000,-7.62565029731490e-002

1.19747870461893e+004,-8.95078723766463e+000,-7.73209925130315e-002

1.21419488439505e+004,-8.95078731568915e+000,-7.84003412828715e-002

1.23114441334492e+004,-8.95078739590556e+000,-7.94947566885049e-002

1.24833054890161e+004,-8.95078747837572e+000,-8.06044490282794e-002

1.26575659397028e+004,-8.95078756316245e+000,-8.17296315403949e-002

1.28342589756290e+004,-8.95078765033088e+000,-8.28705204355277e-002

1.30134185544193e+004,-8.95078773994804e+000,-8.40273349405151e-002

1.31950791077289e+004,-8.95078783208263e+000,-8.52002973434664e-002

1.33792755478611e+004,-8.95078792680506e+000,-8.63896330353007e-002

1.35660432744767e+004,-8.95078802418821e+000,-8.75955705489772e-002

1.37554181813974e+004,-8.95078812430680e+000,-8.88183416080706e-002

1.39474366635040e+004,-8.95078822723711e+000,-9.00581811728493e-002

1.41421356237309e+004,-8.95078833305872e+000,-9.13153274746210e-002

1.43395524801583e+004,-8.95078844185209e+000,-9.25900220779908e-002

1.45397251732031e+004,-8.95078855370120e+000,-9.38825099099429e-002

1.47426921729110e+004,-8.95078866869131e+000,-9.51930393216114e-002

1.49484924863494e+004,-8.95078878691060e+000,-9.65218621266324e-002

1.51571656651040e+004,-8.95078890845003e+000,-9.78692336500060e-002

1.53687518128801e+004,-8.95078903340256e+000,-9.92354127828466e-002

1.55832915932100e+004,-8.95078916186364e+000,-1.00620662028719e-001

1.58008262372675e+004,-8.95078929393184e+000,-1.02025247551586e-001

1.60213975517924e+004,-8.95078942970848e+000,-1.03449439229117e-001

1.62450479271247e+004,-8.95078956929728e+000,-1.04893510706588e-001

1.64718203453514e+004,-8.95078971280540e+000,-1.06357739444230e-001

1.67017583885674e+004,-8.95078986034255e+000,-1.07842406776047e-001

1.69349062472505e+004,-8.95079001202177e+000,-1.09347797959548e-001

1.71713087287550e+004,-8.95079016795914e+000,-1.10874202232673e-001

1.74110112659224e+004,-8.95079032827413e+000,-1.12421912867554e-001

1.76540599258131e+004,-8.95079049308933e+000,-1.13991227229559e-001

1.79005014185594e+004,-8.95079066253088e+000,-1.15582446830905e-001

1.81503831063432e+004,-8.95079083672852e+000,-1.17195877390388e-001

1.84037530124975e+004,-8.95079101581543e+000,-1.18831828892510e-001

1.86606598307361e+004,-8.95079119992870e+000,-1.20490615644979e-001

1.89211529345119e+004,-8.95079138920905e+000,-1.22172556340749e-001

1.91852823865052e+004,-8.95079158380115e+000,-1.23877974118708e-001

1.94530989482457e+004,-8.95079178385403e+000,-1.25607196623442e-001

1.97246540898671e+004,-8.95079198952044e+000,-1.27360556071730e-001

1.99999999999999e+004,-8.95079220095793e+000,-1.29138389311876e-001

2.02791895958005e+004,-8.95079241832757e+000,-1.30941037895388e-001

2.05622765331213e+004,-8.95079264179590e+000,-1.32768848132140e-001

2.08493152168224e+004,-8.95079287153347e+000,-1.34622171165807e-001

2.11403608112276e+004,-8.95079310771586e+000,-1.36501363035637e-001

2.14354692507258e+004,-8.95079335052336e+000,-1.38406784748478e-001

2.17346972505211e+004,-8.95079360014143e+000,-1.40338802344300e-001

2.20381023175322e+004,-8.95079385676084e+000,-1.42297786967442e-001

2.23457427614443e+004,-8.95079412057717e+000,-1.44284114941207e-001

2.26576777059159e+004,-8.95079439179178e+000,-1.46298167834761e-001

2.29739670999406e+004,-8.95079467061187e+000,-1.48340332537019e-001

2.32946717293690e+004,-8.95079495724995e+000,-1.50411001334483e-001

2.36198532285905e+004,-8.95079525192461e+000,-1.52510571983120e-001

2.39495740923785e+004,-8.95079555486069e+000,-1.54639447783947e-001

2.42838976879009e+004,-8.95079586628919e+000,-1.56798037661671e-001

2.46228882668982e+004,-8.95079618644720e+000,-1.58986756245130e-001

2.49666109780322e+004,-8.95079651557885e+000,-1.61206023940853e-001

2.53151318794055e+004,-8.95079685393480e+000,-1.63456267018772e-001

2.56685179512580e+004,-8.95079720177268e+000,-1.65737917691158e-001

2.60268371088386e+004,-8.95079755935756e+000,-1.68051414194016e-001

2.63901582154578e+004,-8.95079792696160e+000,-1.70397200874804e-001

2.67585510957221e+004,-8.95079830486420e+000,-1.72775728276216e-001

2.71320865489533e+004,-8.95079869335328e+000,-1.75187453217390e-001

2.75108363627948e+004,-8.95079909272408e+000,-1.77632838888219e-001

2.78948733270080e+004,-8.95079950328024e+000,-1.80112354933921e-001

2.82842712474618e+004,-8.95079992533375e+000,-1.82626477545960e-001

2.86791049603164e+004,-8.95080035920564e+000,-1.85175689549526e-001

2.90794503464061e+004,-8.95080080522496e+000,-1.87760480504424e-001

2.94853843458219e+004,-8.95080126373072e+000,-1.90381346787139e-001

2.98969849726987e+004,-8.95080173507083e+000,-1.93038791694957e-001

3.03143313302078e+004,-8.95080221960296e+000,-1.95733325537007e-001

3.07375036257601e+004,-8.95080271769463e+000,-1.98465465732941e-001

3.11665831864199e+004,-8.95080322972353e+000,-2.01235736911830e-001

3.16016524745350e+004,-8.95080375607747e+000,-2.04044671013987e-001

3.20427951035848e+004,-8.95080429715564e+000,-2.06892807386282e-001

3.24900958542493e+004,-8.95080485336754e+000,-2.09780692893081e-001

3.29436406907028e+004,-8.95080542513406e+000,-2.12708882016309e-001

3.34035167771346e+004,-8.95080601288809e+000,-2.15677936958995e-001

3.38698124945009e+004,-8.95080661707406e+000,-2.18688427756291e-001

3.43426174575100e+004,-8.95080723814860e+000,-2.21740932383595e-001

3.48220225318448e+004,-8.95080787658100e+000,-2.24836036864145e-001

3.53081198516260e+004,-8.95080853285358e+000,-2.27974335381853e-001

3.58010028371187e+004,-8.95080920746155e+000,-2.31156430395890e-001

3.63007662126863e+004,-8.95080990091394e+000,-2.34382932752997e-001

3.68075060249948e+004,-8.95081061373357e+000,-2.37654461805440e-001

3.73213196614721e+004,-8.95081134645754e+000,-2.40971645528603e-001

3.78423058690237e+004,-8.95081209963794e+000,-2.44335120637662e-001

3.83705647730104e+004,-8.95081287384162e+000,-2.47745532712621e-001

3.89061978964912e+004,-8.95081366965114e+000,-2.51203536318292e-001

3.94493081797342e+004,-8.95081448766465e+000,-2.54709795130894e-001

3.99999999999998e+004,-8.95081532849687e+000,-2.58264982060973e-001

4.05583791916010e+004,-8.95081619277912e+000,-2.61869779384116e-001

4.11245530662425e+004,-8.95081708115995e+000,-2.65524878868679e-001

4.16986304336447e+004,-8.95081799430550e+000,-2.69230981907489e-001

4.22807216224550e+004,-8.95081893290015e+000,-2.72988799650129e-001

4.28709385014515e+004,-8.95081989764668e+000,-2.76799053139166e-001

4.34693945010421e+004,-8.95082088926678e+000,-2.80662473447420e-001

4.40762046350642e+004,-8.95082190850195e+000,-2.84579801812964e-001

4.46914855228886e+004,-8.95082295611370e+000,-2.88551789782164e-001

4.53153554118317e+004,-8.95082403288383e+000,-2.92579199352682e-001

4.59479341998812e+004,-8.95082513961552e+000,-2.96662803114996e-001

4.65893434587380e+004,-8.95082627713357e+000,-3.00803384399615e-001

4.72397064571810e+004,-8.95082744628475e+000,-3.05001737426695e-001

4.78991481847569e+004,-8.95082864793879e+000,-3.09258667454086e-001

4.85677953758016e+004,-8.95082988298863e+000,-3.13574990930087e-001

4.92457765337964e+004,-8.95083115235132e+000,-3.17951535647300e-001

4.99332219560642e+004,-8.95083245696822e+000,-3.22389140899800e-001

5.06302637588109e+004,-8.95083379780587e+000,-3.26888657640957e-001

5.13370359025159e+004,-8.95083517585693e+000,-3.31450948641715e-001

5.20536742176771e+004,-8.95083659214010e+000,-3.36076888656831e-001

5.27803164309155e+004,-8.95083804770138e+000,-3.40767364587332e-001

5.35171021914442e+004,-8.95083954361447e+000,-3.45523275647559e-001

5.42641730979066e+004,-8.95084108098145e+000,-3.50345533535509e-001

5.50216727255895e+004,-8.95084266093386e+000,-3.55235062601317e-001

5.57897466540159e+004,-8.95084428463289e+000,-3.60192800024430e-001

5.65685424949235e+004,-8.95084595327029e+000,-3.65219695988068e-001

5.73582099206328e+004,-8.95084766806948e+000,-3.70316713855463e-001

5.81589006928121e+004,-8.95084943028566e+000,-3.75484830355257e-001

5.89707686916437e+004,-8.95085124120705e+000,-3.80725035760006e-001

5.97939699453972e+004,-8.95085310215574e+000,-3.86038334072876e-001

6.06286626604156e+004,-8.95085501448807e+000,-3.91425743217436e-001

6.14750072515201e+004,-8.95085697959594e+000,-3.96888295224896e-001

6.23331663728396e+004,-8.95085899890700e+000,-4.02427036431199e-001

6.32033049490698e+004,-8.95086107388636e+000,-4.08043027667159e-001

6.40855902071694e+004,-8.95086320603689e+000,-4.13737344459576e-001

6.49801917084985e+004,-8.95086539690001e+000,-4.19511077232314e-001

6.58872813814055e+004,-8.95086764805693e+000,-4.25365331507961e-001

6.68070335542691e+004,-8.95086996112945e+000,-4.31301228113537e-001

6.77396249890018e+004,-8.95087233778068e+000,-4.37319903390479e-001

6.86852349150199e+004,-8.95087477971645e+000,-4.43422509403021e-001

6.96440450636895e+004,-8.95087728868567e+000,-4.49610214155471e-001

7.06162397032520e+004,-8.95087986648164e+000,-4.55884201807322e-001

7.16020056742374e+004,-8.95088251494312e+000,-4.62245672891148e-001

7.26015324253724e+004,-8.95088523595498e+000,-4.68695844538225e-001

7.36150120499896e+004,-8.95088803144944e+000,-4.75235950701191e-001

7.46426393229441e+004,-8.95089090340706e+000,-4.81867242382951e-001

7.56846117380472e+004,-8.95089385385787e+000,-4.88590987866777e-001

7.67411295460207e+004,-8.95089688488211e+000,-4.95408472952038e-001

7.78123957929823e+004,-8.95089999861136e+000,-5.02321001190447e-001

7.88986163594682e+004,-8.95090319722981e+000,-5.09329894124937e-001

7.99999999999995e+004,-8.95090648297541e+000,-5.16436491532070e-001

8.11167583832018e+004,-8.95090985814026e+000,-5.23642151672144e-001

8.22491061324848e+004,-8.95091332507259e+000,-5.30948251533073e-001

8.33972608672892e+004,-8.95091688617699e+000,-5.38356187087715e-001

8.45614432449099e+004,-8.95092054391646e+000,-5.45867373544144e-001

8.57418770029029e+004,-8.95092430081240e+000,-5.53483245609778e-001

8.69387890020841e+004,-8.95092815944659e+000,-5.61205257749341e-001

8.81524092701283e+004,-8.95093212246186e+000,-5.69034884451760e-001

8.93829710457770e+004,-8.95093619256341e+000,-5.76973620497765e-001

9.06307108236633e+004,-8.95094037251968e+000,-5.85022981233384e-001

9.18958683997622e+004,-8.95094466516341e+000,-5.93184502844381e-001

9.31786869174758e+004,-8.95094907339295e+000,-6.01459742635052e-001

9.44794129143618e+004,-8.95095360017339e+000,-6.09850279308677e-001

9.57982963695136e+004,-8.95095824853724e+000,-6.18357713256093e-001

9.71355907516031e+004,-8.95096302158576e+000,-6.26983666842949e-001

9.84915530675926e+004,-8.95096792248997e+000,-6.35729784703023e-001

9.98664439121282e+004,-8.95097295449149e+000,-6.44597734034645e-001

1.01260527517622e+005,-8.95097812090378e+000,-6.53589204899708e-001

1.02674071805032e+005,-8.95098342511307e+000,-6.62705910527554e-001

1.04107348435354e+005,-8.95098887057902e+000,-6.71949587623718e-001

1.05560632861831e+005,-8.95099446083604e+000,-6.81321996678159e-001

1.07034204382888e+005,-8.95100019949382e+000,-6.90824922283057e-001

1.08528346195813e+005,-8.95100609023829e+000,-7.00460173449025e-001

1.10043345451179e+005,-8.95101213683260e+000,-7.10229583928183e-001

1.11579493308032e+005,-8.95101834311762e+000,-7.20135012540942e-001

1.13137084989847e+005,-8.95102471301257e+000,-7.30178343506154e-001

1.14716419841265e+005,-8.95103125051604e+000,-7.40361486774280e-001

1.16317801385624e+005,-8.95103795970624e+000,-7.50686378366461e-001

1.17941537383287e+005,-8.95104484474150e+000,-7.61154980716992e-001

1.19587939890794e+005,-8.95105190986098e+000,-7.71769283018141e-001

1.21257325320831e+005,-8.95105915938464e+000,-7.82531301572857e-001

1.22950014503040e+005,-8.95106659771381e+000,-7.93443080147268e-001

1.24666332745679e+005,-8.95107422933140e+000,-8.04506690329396e-001

1.26406609898139e+005,-8.95108205880168e+000,-8.15724231893701e-001

1.28171180414339e+005,-8.95109009077043e+000,-8.27097833167864e-001

1.29960383416997e+005,-8.95109832996484e+000,-8.38629651403547e-001

1.31774562762811e+005,-8.95110678119305e+000,-8.50321873153774e-001

1.33614067108538e+005,-8.95111544934396e+000,-8.62176714652172e-001

1.35479249978003e+005,-8.95112433938658e+000,-8.74196422198584e-001

1.37370469830040e+005,-8.95113345636910e+000,-8.86383272549721e-001

1.39288090127379e+005,-8.95114280541858e+000,-8.98739573309938e-001

1.41232479406504e+005,-8.95115239173935e+000,-9.11267663333936e-001

1.43204011348474e+005,-8.95116222061191e+000,-9.23969913128597e-001

1.45203064850745e+005,-8.95117229739195e+000,-9.36848725259423e-001

1.47230024099979e+005,-8.95118262750789e+000,-9.49906534767959e-001

1.49285278645888e+005,-8.95119321645995e+000,-9.63145809584773e-001

1.51369223476094e+005,-8.95120406981719e+000,-9.76569050957047e-001

1.53482259092041e+005,-8.95121519321584e+000,-9.90178793873372e-001

1.55624791585964e+005,-8.95122659235646e+000,-1.00397760749730e+000

1.57797232718936e+005,-8.95123827300084e+000,-1.01796809560797e+000

1.59999999999999e+005,-8.95125024096907e+000,-1.03215289704135e+000

1.62233516766403e+005,-8.95126250213607e+000,-1.04653468613925e+000

1.64498212264969e+005,-8.95127506242763e+000,-1.06111617320535e+000

1.66794521734578e+005,-8.95128792781621e+000,-1.07590010496351e+000

1.69122886489819e+005,-8.95130110431658e+000,-1.09088926502432e+000

1.71483754005805e+005,-8.95131459798084e+000,-1.10608647435529e+000

1.73877578004168e+005,-8.95132841489297e+000,-1.12149459175962e+000

1.76304818540256e+005,-8.95134256116317e+000,-1.13711651435788e+000

1.78765942091554e+005,-8.95135704292178e+000,-1.15295517807728e+000

1.81261421647326e+005,-8.95137186631251e+000,-1.16901355814748e+000

1.83791736799524e+005,-8.95138703748514e+000,-1.18529466960281e+000

1.86357373834951e+005,-8.95140256258824e+000,-1.20180156778841e+000

1.88958825828723e+005,-8.95141844776050e+000,-1.21853734887764e+000

1.91596592739027e+005,-8.95143469912234e+000,-1.23550515039154e+000

1.94271181503206e+005,-8.95145132276662e+000,-1.25270815172724e+000

1.96983106135185e+005,-8.95146832474812e+000,-1.27014957469566e+000

1.99732887824256e+005,-8.95148571107371e+000,-1.28783268406150e+000

2.02521055035243e+005,-8.95150348769043e+000,-1.30576078809582e+000

2.05348143610063e+005,-8.95152166047398e+000,-1.32393723913247e+000

2.08214696870707e+005,-8.95154023521585e+000,-1.34236543413437e+000

2.11121265723661e+005,-8.95155921761013e+000,-1.36104881526683e+000

2.14068408765776e+005,-8.95157861323881e+000,-1.37999087048170e+000

2.17056692391625e+005,-8.95159842755735e+000,-1.39919513410593e+000

2.20086690902357e+005,-8.95161866587859e+000,-1.41866518744197e+000

2.23158986616063e+005,-8.95163933335614e+000,-1.43840465937613e+000

2.26274169979693e+005,-8.95166043496675e+000,-1.45841722699709e+000

2.29432839682530e+005,-8.95168197549168e+000,-1.47870661622419e+000

2.32635602771247e+005,-8.95170395949760e+000,-1.49927660244273e+000

2.35883074766574e+005,-8.95172639131586e+000,-1.52013101115438e+000

2.39175879781588e+005,-8.95174927502104e+000,-1.54127371863497e+000

2.42514650641661e+005,-8.95177261440873e+000,-1.56270865260322e+000

2.45900029006080e+005,-8.95179641297167e+000,-1.58443979290260e+000

2.49332665491357e+005,-8.95182067387544e+000,-1.60647117219313e+000

2.52813219796278e+005,-8.95184539993242e+000,-1.62880687665699e+000

2.56342360828676e+005,-8.95187059357502e+000,-1.65145104671508e+000

2.59920766833993e+005,-8.95189625682749e+000,-1.67440787775823e+000

2.63549125525621e+005,-8.95192239127691e+000,-1.69768162088933e+000

2.67228134217075e+005,-8.95194899804233e+000,-1.72127658368277e+000

2.70958499956006e+005,-8.95197607774339e+000,-1.74519713095462e+000

2.74740939660078e+005,-8.95200363046698e+000,-1.76944768555149e+000

2.78576180254757e+005,-8.95203165573326e+000,-1.79403272915103e+000

2.82464958813007e+005,-8.95206015245995e+000,-1.81895680308104e+000

2.86408022696948e+005,-8.95208911892550e+000,-1.84422450915401e+000

2.90406129701488e+005,-8.95211855273071e+000,-1.86984051051954e+000

2.94460048199957e+005,-8.95214845075951e+000,-1.89580953253227e+000

2.98570557291775e+005,-8.95217880913798e+000,-1.92213636364093e+000

3.02738446952187e+005,-8.95220962319191e+000,-1.94882585629468e+000

3.06964518184081e+005,-8.95224088740374e+000,-1.97588292786773e+000

3.11249583171928e+005,-8.95227259536716e+000,-2.00331256160816e+000

3.15594465437872e+005,-8.95230473974133e+000,-2.03111980760214e+000

3.19999999999997e+005,-8.95233731220315e+000,-2.05930978376339e+000

3.24467033532806e+005,-8.95237030339844e+000,-2.08788767684426e+000

3.28996424529938e+005,-8.95240370289191e+000,-2.11685874346793e+000

3.33589043469155e+005,-8.95243749911586e+000,-2.14622831118525e+000

3.38245772979638e+005,-8.95247167931745e+000,-2.17600177955582e+000

3.42967508011610e+005,-8.95250622950490e+000,-2.20618462125423e+000

3.47755156008335e+005,-8.95254113439262e+000,-2.23678238320055e+000

3.52609637080511e+005,-8.95257637734519e+000,-2.26780068771722e+000

3.57531884183106e+005,-8.95261194032004e+000,-2.29924523371546e+000

3.62522843294651e+005,-8.95264780380950e+000,-2.33112179790475e+000

3.67583473599047e+005,-8.95268394678147e+000,-2.36343623603460e+000

3.72714747669902e+005,-8.95272034661946e+000,-2.39619448416401e+000

3.77917651657445e+005,-8.95275697906189e+000,-2.42940255995829e+000

3.83193185478053e+005,-8.95279381814020e+000,-2.46306656401997e+000

3.88542363006410e+005,-8.95283083611681e+000,-2.49719268124738e+000

3.93966212270369e+005,-8.95286800342209e+000,-2.53178718222574e+000

3.99465775648511e+005,-8.95290528859103e+000,-2.56685642465034e+000

4.05042110070485e+005,-8.95294265819931e+000,-2.60240685478248e+000

4.10696287220124e+005,-8.95298007679950e+000,-2.63844500893613e+000

4.16429393741414e+005,-8.95301750685634e+000,-2.67497751500147e+000

4.22242531447321e+005,-8.95305490868243e+000,-2.71201109399988e+000

4.28136817531551e+005,-8.95309224037394e+000,-2.74955256167313e+000

4.34113384783250e+005,-8.95312945774605e+000,-2.78760883010824e+000

4.40173381804713e+005,-8.95316651426903e+000,-2.82618690939598e+000

4.46317973232124e+005,-8.95320336100433e+000,-2.86529390932538e+000

4.52548339959385e+005,-8.95323994654144e+000,-2.90493704111245e+000

4.58865679365059e+005,-8.95327621693500e+000,-2.94512361916531e+000

4.65271205542494e+005,-8.95331211564291e+000,-2.98586106288333e+000

4.71766149533147e+005,-8.95334758346519e+000,-3.02715689849275e+000

4.78351759563174e+005,-8.95338255848356e+000,-3.06901876091703e+000

4.85029301283321e+005,-8.95341697600246e+000,-3.11145439568239e+000

4.91800058012158e+005,-8.95345076849086e+000,-3.15447166085885e+000

4.98665330982714e+005,-8.95348386552559e+000,-3.19807852903507e+000

5.05626439592555e+005,-8.95351619373610e+000,-3.24228308932815e+000

5.12684721657352e+005,-8.95354767675036e+000,-3.28709354942762e+000

5.19841533667984e+005,-8.95357823514289e+000,-3.33251823767230e+000

5.27098251051240e+005,-8.95360778638385e+000,-3.37856560516109e+000

5.34456268434150e+005,-8.95363624479036e+000,-3.42524422789566e+000

5.41916999912011e+005,-8.95366352147949e+000,-3.47256280895477e+000

