Freq.,VOut,OutRef

1.00000000000000e+004,-7.19663715677306e+000,-4.51508566224517e-002

1.01395947979003e+004,-7.19663723010027e+000,-4.57811314419870e-002

1.02811382665607e+004,-7.19663730548799e+000,-4.64202042466146e-002

1.04246576084112e+004,-7.19663738299402e+000,-4.70681978376226e-002

1.05701804056138e+004,-7.19663746267836e+000,-4.77252367276729e-002

1.07177346253629e+004,-7.19663754460205e+000,-4.83914471699546e-002

1.08673486252606e+004,-7.19663762882770e+000,-4.90669571810131e-002

1.10190511587661e+004,-7.19663771542018e+000,-4.97518965603581e-002

1.11728713807222e+004,-7.19663780444612e+000,-5.04463969191981e-002

1.13288388529580e+004,-7.19663789597330e+000,-5.11505917092769e-002

1.14869835499703e+004,-7.19663799007243e+000,-5.18646162390918e-002

1.16473358646846e+004,-7.19663808681570e+000,-5.25886077072627e-002

1.18099266142953e+004,-7.19663818627741e+000,-5.33227052270579e-002

1.19747870461893e+004,-7.19663828853375e+000,-5.40670498534816e-002

1.21419488439505e+004,-7.19663839366331e+000,-5.48217846085061e-002

1.23114441334492e+004,-7.19663850174663e+000,-5.55870545108562e-002

1.24833054890161e+004,-7.19663861286702e+000,-5.63630066002484e-002

1.26575659397028e+004,-7.19663872710910e+000,-5.71497899735255e-002

1.28342589756290e+004,-7.19663884456116e+000,-5.79475558001327e-002

1.30134185544193e+004,-7.19663896531294e+000,-5.87564573649554e-002

1.31950791077289e+004,-7.19663908945727e+000,-5.95766500882784e-002

1.33792755478611e+004,-7.19663921708926e+000,-6.04082915603444e-002

1.35660432744767e+004,-7.19663934830703e+000,-6.12515415679524e-002

1.37554181813974e+004,-7.19663948321085e+000,-6.21065621310947e-002

1.39474366635040e+004,-7.19663962190487e+000,-6.29735175236135e-002

1.41421356237309e+004,-7.19663976449474e+000,-6.38525743193860e-002

1.43395524801583e+004,-7.19663991109029e+000,-6.47439014092873e-002

1.45397251732031e+004,-7.19664006180370e+000,-6.56476700441600e-002

1.47426921729110e+004,-7.19664021675085e+000,-6.65640538606861e-002

1.49484924863494e+004,-7.19664037605018e+000,-6.74932289219884e-002

1.51571656651040e+004,-7.19664053982431e+000,-6.84353737418215e-002

1.53687518128801e+004,-7.19664070819813e+000,-6.93906693315940e-002

1.55832915932100e+004,-7.19664088130144e+000,-7.03592992187233e-002

1.58008262372675e+004,-7.19664105926644e+000,-7.13414494980165e-002

1.60213975517924e+004,-7.19664124222980e+000,-7.23373088557588e-002

1.62450479271247e+004,-7.19664143033169e+000,-7.33470686116658e-002

1.64718203453514e+004,-7.19664162371615e+000,-7.43709227545648e-002

1.67017583885674e+004,-7.19664182253169e+000,-7.54090679762416e-002

1.69349062472505e+004,-7.19664202693034e+000,-7.64617037157378e-002

1.71713087287550e+004,-7.19664223706890e+000,-7.75290321903932e-002

1.74110112659224e+004,-7.19664245310811e+000,-7.86112584407193e-002

1.76540599258131e+004,-7.19664267521368e+000,-7.97085903635747e-002

1.79005014185594e+004,-7.19664290355583e+000,-8.08212387558798e-002

1.81503831063432e+004,-7.19664313830936e+000,-8.19494173559478e-002

1.84037530124975e+004,-7.19664337965387e+000,-8.30933428823700e-002

1.86606598307361e+004,-7.19664362777448e+000,-8.42532350733070e-002

1.89211529345119e+004,-7.19664388286079e+000,-8.54293167353273e-002

1.91852823865052e+004,-7.19664414510837e+000,-8.66218137771212e-002

1.94530989482457e+004,-7.19664441471803e+000,-8.78309552594454e-002

1.97246540898671e+004,-7.19664469189574e+000,-8.90569734392272e-002

1.99999999999999e+004,-7.19664497685405e+000,-9.03001038062705e-002

2.02791895958005e+004,-7.19664526981080e+000,-9.15605851380321e-002

2.05622765331213e+004,-7.19664557098995e+000,-9.28386595407238e-002

2.08493152168224e+004,-7.19664588062239e+000,-9.41345724909807e-002

2.11403608112276e+004,-7.19664619894447e+000,-9.54485728943079e-002

2.14354692507258e+004,-7.19664652619973e+000,-9.67809131219508e-002

2.17346972505211e+004,-7.19664686263850e+000,-9.81318490630965e-002

2.20381023175322e+004,-7.19664720851819e+000,-9.95016401732356e-002

2.23457427614443e+004,-7.19664756410285e+000,-1.00890549527613e-001

2.26576777059159e+004,-7.19664792966442e+000,-1.02298843864698e-001

2.29739670999406e+004,-7.19664830548225e+000,-1.03726793641881e-001

2.32946717293690e+004,-7.19664869184339e+000,-1.05174673086051e-001

2.36198532285905e+004,-7.19664908904319e+000,-1.06642760244038e-001

2.39495740923785e+004,-7.19664949738479e+000,-1.08131337039870e-001

2.42838976879009e+004,-7.19664991717996e+000,-1.09640689324967e-001

2.46228882668982e+004,-7.19665034874960e+000,-1.11171106931151e-001

2.49666109780322e+004,-7.19665079242293e+000,-1.12722883731928e-001

2.53151318794055e+004,-7.19665124853839e+000,-1.14296317695066e-001

2.56685179512580e+004,-7.19665171744419e+000,-1.15891710937534e-001

2.60268371088386e+004,-7.19665219949792e+000,-1.17509369786283e-001

2.63901582154578e+004,-7.19665269506743e+000,-1.19149604834034e-001

2.67585510957221e+004,-7.19665320453063e+000,-1.20812731000693e-001

2.71320865489533e+004,-7.19665372827552e+000,-1.22499067595189e-001

2.75108363627948e+004,-7.19665426670172e+000,-1.24208938368179e-001

2.78948733270080e+004,-7.19665482021937e+000,-1.25942671582506e-001

2.82842712474618e+004,-7.19665538925006e+000,-1.27700600072455e-001

2.86791049603164e+004,-7.19665597422728e+000,-1.29483061305262e-001

2.90794503464061e+004,-7.19665657559638e+000,-1.31290397448423e-001

2.94853843458219e+004,-7.19665719381503e+000,-1.33122955433386e-001

2.98969849726987e+004,-7.19665782935387e+000,-1.34981087019497e-001

3.03143313302078e+004,-7.19665848269616e+000,-1.36865148865594e-001

3.07375036257601e+004,-7.19665915433927e+000,-1.38775502591191e-001

3.11665831864199e+004,-7.19665984479329e+000,-1.40712514854464e-001

3.16016524745350e+004,-7.19666055458324e+000,-1.42676557412438e-001

3.20427951035848e+004,-7.19666128424849e+000,-1.44668007196467e-001

3.24900958542493e+004,-7.19666203434334e+000,-1.46687246382879e-001

3.29436406907028e+004,-7.19666280543716e+000,-1.48734662466271e-001

3.34035167771346e+004,-7.19666359811544e+000,-1.50810648331054e-001

3.38698124945009e+004,-7.19666441297956e+000,-1.52915602328570e-001

3.43426174575100e+004,-7.19666525064774e+000,-1.55049928349057e-001

3.48220225318448e+004,-7.19666611175477e+000,-1.57214035904009e-001

3.53081198516260e+004,-7.19666699695363e+000,-1.59408340195307e-001

3.58010028371187e+004,-7.19666790691497e+000,-1.61633262201146e-001

3.63007662126863e+004,-7.19666884232761e+000,-1.63889228754057e-001

3.68075060249948e+004,-7.19666980389987e+000,-1.66176672618090e-001

3.73213196614721e+004,-7.19667079235938e+000,-1.68496032573889e-001

3.78423058690237e+004,-7.19667180845350e+000,-1.70847753502700e-001

3.83705647730104e+004,-7.19667285295055e+000,-1.73232286466147e-001

3.89061978964912e+004,-7.19667392663981e+000,-1.75650088794680e-001

3.94493081797342e+004,-7.19667503033199e+000,-1.78101624174202e-001

3.99999999999998e+004,-7.19667616486032e+000,-1.80587362730889e-001

4.05583791916010e+004,-7.19667733108070e+000,-1.83107781122337e-001

4.11245530662425e+004,-7.19667852987260e+000,-1.85663362624954e-001

4.16986304336447e+004,-7.19667976213943e+000,-1.88254597228487e-001

4.22807216224550e+004,-7.19668102880942e+000,-1.90881981723825e-001

4.28709385014515e+004,-7.19668233083615e+000,-1.93546019799609e-001

4.34693945010421e+004,-7.19668366919917e+000,-1.96247222136313e-001

4.40762046350642e+004,-7.19668504490481e+000,-1.98986106501450e-001

4.46914855228886e+004,-7.19668645898673e+000,-2.01763197847764e-001

4.53153554118317e+004,-7.19668791250681e+000,-2.04579028410987e-001

4.59479341998812e+004,-7.19668940655583e+000,-2.07434137809561e-001

4.65893434587380e+004,-7.19669094225428e+000,-2.10329073145731e-001

4.72397064571810e+004,-7.19669252075301e+000,-2.13264389108715e-001

4.78991481847569e+004,-7.19669414323410e+000,-2.16240648077967e-001

4.85677953758016e+004,-7.19669581091142e+000,-2.19258420230243e-001

4.92457765337964e+004,-7.19669752503204e+000,-2.22318283641587e-001

4.99332219560642e+004,-7.19669928687677e+000,-2.25420824398723e-001

5.06302637588109e+004,-7.19670109776081e+000,-2.28566636708383e-001

5.13370359025159e+004,-7.19670295903487e+000,-2.31756323007515e-001

5.20536742176771e+004,-7.19670487208599e+000,-2.34990494075731e-001

5.27803164309155e+004,-7.19670683833881e+000,-2.38269769146804e-001

5.35171021914442e+004,-7.19670885925613e+000,-2.41594776026731e-001

5.42641730979066e+004,-7.19671093633985e+000,-2.44966151209882e-001

5.50216727255895e+004,-7.19671307113216e+000,-2.48384539996768e-001

5.57897466540159e+004,-7.19671526521703e+000,-2.51850596610226e-001

5.65685424949235e+004,-7.19671752021998e+000,-2.55364984324450e-001

5.73582099206328e+004,-7.19671983781054e+000,-2.58928375579648e-001

5.81589006928121e+004,-7.19672221970239e+000,-2.62541452111556e-001

5.89707686916437e+004,-7.19672466765492e+000,-2.66204905075901e-001

5.97939699453972e+004,-7.19672718347446e+000,-2.69919435173207e-001

6.06286626604156e+004,-7.19672976901493e+000,-2.73685752783060e-001

6.14750072515201e+004,-7.19673242617939e+000,-2.77504578091720e-001

6.23331663728396e+004,-7.19673515692131e+000,-2.81376641224487e-001

6.32033049490698e+004,-7.19673796324577e+000,-2.85302682379447e-001

6.40855902071694e+004,-7.19674084721032e+000,-2.89283451966828e-001

6.49801917084985e+004,-7.19674381092697e+000,-2.93319710740853e-001

6.58872813814055e+004,-7.19674685656289e+000,-2.97412229943500e-001

6.68070335542691e+004,-7.19674998634194e+000,-3.01561791444160e-001

6.77396249890018e+004,-7.19675320254630e+000,-3.05769187880920e-001

6.86852349150199e+004,-7.19675650751747e+000,-3.10035222806411e-001

6.96440450636895e+004,-7.19675990365761e+000,-3.14360710835783e-001

7.06162397032520e+004,-7.19676339343161e+000,-3.18746477789733e-001

7.16020056742374e+004,-7.19676697936777e+000,-3.23193360850142e-001

7.26015324253724e+004,-7.19677066406005e+000,-3.27702208706556e-001

7.36150120499896e+004,-7.19677445016889e+000,-3.32273881714165e-001

7.46426393229441e+004,-7.19677834042311e+000,-3.36909252046807e-001

7.56846117380472e+004,-7.19678233762137e+000,-3.41609203855494e-001

7.67411295460207e+004,-7.19678644463390e+000,-3.46374633425981e-001

7.78123957929823e+004,-7.19679066440403e+000,-3.51206449340843e-001

7.88986163594682e+004,-7.19679499994958e+000,-3.56105572644284e-001

7.99999999999995e+004,-7.19679945436500e+000,-3.61072937003338e-001

8.11167583832018e+004,-7.19680403082261e+000,-3.66109488878907e-001

8.22491061324848e+004,-7.19680873257453e+000,-3.71216187691398e-001

8.33972608672892e+004,-7.19681356295422e+000,-3.76394005995086e-001

8.45614432449099e+004,-7.19681852537874e+000,-3.81643929646121e-001

8.57418770029029e+004,-7.19682362334970e+000,-3.86966957983258e-001

8.69387890020841e+004,-7.19682886045570e+000,-3.92364104000879e-001

8.81524092701283e+004,-7.19683424037372e+000,-3.97836394530479e-001

8.93829710457770e+004,-7.19683976687141e+000,-4.03384870419027e-001

9.06307108236633e+004,-7.19684544380835e+000,-4.09010586715479e-001

9.18958683997622e+004,-7.19685127513812e+000,-4.14714612855028e-001

9.31786869174758e+004,-7.19685726491040e+000,-4.20498032844928e-001

9.44794129143618e+004,-7.19686341727255e+000,-4.26361945456411e-001

9.57982963695136e+004,-7.19686973647173e+000,-4.32307464413746e-001

9.71355907516031e+004,-7.19687622685630e+000,-4.38335718592366e-001

9.84915530675926e+004,-7.19688289287823e+000,-4.44447852211339e-001

9.98664439121282e+004,-7.19688973909482e+000,-4.50645025032061e-001

1.01260527517622e+005,-7.19689677017038e+000,-4.56928412561173e-001

1.02674071805032e+005,-7.19690399087853e+000,-4.63299206249945e-001

1.04107348435354e+005,-7.19691140610352e+000,-4.69758613702548e-001

1.05560632861831e+005,-7.19691902084268e+000,-4.76307858880491e-001

1.07034204382888e+005,-7.19692684020777e+000,-4.82948182314546e-001

1.08528346195813e+005,-7.19693486942736e+000,-4.89680841313356e-001

1.10043345451179e+005,-7.19694311384807e+000,-4.96507110180649e-001

1.11579493308032e+005,-7.19695157893663e+000,-5.03428280431003e-001

1.13137084989847e+005,-7.19696027028201e+000,-5.10445661005319e-001

1.14716419841265e+005,-7.19696919359616e+000,-5.17560578498249e-001

1.16317801385624e+005,-7.19697835471712e+000,-5.24774377373067e-001

1.17941537383287e+005,-7.19698775960918e+000,-5.32088420196357e-001

1.19587939890794e+005,-7.19699741436560e+000,-5.39504087859314e-001

1.21257325320831e+005,-7.19700732520981e+000,-5.47022779810702e-001

1.22950014503040e+005,-7.19701749849668e+000,-5.54645914290875e-001

1.24666332745679e+005,-7.19702794071398e+000,-5.62374928566700e-001

1.26406609898139e+005,-7.19703865848432e+000,-5.70211279166803e-001

1.28171180414339e+005,-7.19704965856559e+000,-5.78156442125373e-001

1.29960383416997e+005,-7.19706094785253e+000,-5.86211913223953e-001

1.31774562762811e+005,-7.19707253337808e+000,-5.94379208235101e-001

1.33614067108538e+005,-7.19708442231372e+000,-6.02659863172586e-001

1.35479249978003e+005,-7.19709662197087e+000,-6.11055434540477e-001

1.37370469830040e+005,-7.19710913980152e+000,-6.19567499585506e-001

1.39288090127379e+005,-7.19712198339857e+000,-6.28197656554901e-001

1.41232479406504e+005,-7.19713516049666e+000,-6.36947524952054e-001

1.43204011348474e+005,-7.19714867897223e+000,-6.45818745799274e-001

1.45203064850745e+005,-7.19716254684353e+000,-6.54812981901359e-001

1.47230024099979e+005,-7.19717677227120e+000,-6.63931918109607e-001

1.49285278645888e+005,-7.19719136355723e+000,-6.73177261594024e-001

1.51369223476094e+005,-7.19720632914504e+000,-6.82550742113169e-001

1.53482259092041e+005,-7.19722167761883e+000,-6.92054112288913e-001

1.55624791585964e+005,-7.19723741770223e+000,-7.01689147885862e-001

1.57797232718936e+005,-7.19725355825779e+000,-7.11457648089109e-001

1.59999999999999e+005,-7.19727010828517e+000,-7.21361435789353e-001

1.62233516766403e+005,-7.19728707691949e+000,-7.31402357870034e-001

1.64498212264969e+005,-7.19730447342967e+000,-7.41582285494351e-001

1.66794521734578e+005,-7.19732230721559e+000,-7.51903114401166e-001

1.69122886489819e+005,-7.19734058780605e+000,-7.62366765198122e-001

1.71483754005805e+005,-7.19735932485550e+000,-7.72975183662160e-001

1.73877578004168e+005,-7.19737852814062e+000,-7.83730341042037e-001

1.76304818540256e+005,-7.19739820755683e+000,-7.94634234363547e-001

1.78765942091554e+005,-7.19741837311395e+000,-8.05688886739971e-001

1.81261421647326e+005,-7.19743903493176e+000,-8.16896347683577e-001

1.83791736799524e+005,-7.19746020323489e+000,-8.28258693423809e-001

1.86357373834951e+005,-7.19748188834739e+000,-8.39778027226432e-001

1.88958825828723e+005,-7.19750410068660e+000,-8.51456479718947e-001

1.91596592739027e+005,-7.19752685075658e+000,-8.63296209219122e-001

1.94271181503206e+005,-7.19755014914131e+000,-8.75299402066538e-001

1.96983106135185e+005,-7.19757400649691e+000,-8.87468272958428e-001

1.99732887824256e+005,-7.19759843354299e+000,-8.99805065294982e-001

2.02521055035243e+005,-7.19762344105443e+000,-9.12312051520291e-001

2.05348143610063e+005,-7.19764903985131e+000,-9.24991533475936e-001

2.08214696870707e+005,-7.19767524078896e+000,-9.37845842755742e-001

2.11121265723661e+005,-7.19770205474693e+000,-9.50877341065484e-001

2.14068408765776e+005,-7.19772949261721e+000,-9.64088420590546e-001

2.17056692391625e+005,-7.19775756529211e+000,-9.77481504364485e-001

2.20086690902357e+005,-7.19778628365074e+000,-9.91059046648821e-001

2.23158986616063e+005,-7.19781565854506e+000,-1.00482353331460e+000

2.26274169979693e+005,-7.19784570078508e+000,-1.01877748223121e+000

2.29432839682530e+005,-7.19787642112275e+000,-1.03292344366359e+000

2.32635602771247e+005,-7.19790783023581e+000,-1.04726400067244e+000

2.35883074766574e+005,-7.19793993870952e+000,-1.06180176952619e+000

2.39175879781588e+005,-7.19797275701863e+000,-1.07653940011473e+000

2.42514650641661e+005,-7.19800629550752e+000,-1.09147957637569e+000

2.45900029006080e+005,-7.19804056436955e+000,-1.10662501672650e+000

2.49332665491357e+005,-7.19807557362561e+000,-1.12197847450393e+000

2.52813219796278e+005,-7.19811133310125e+000,-1.13754273841463e+000

2.56342360828676e+005,-7.19814785240273e+000,-1.15332063299311e+000

2.59920766833993e+005,-7.19818514089265e+000,-1.16931501906781e+000

2.63549125525621e+005,-7.19822320766315e+000,-1.18552879424149e+000

2.67228134217075e+005,-7.19826206150917e+000,-1.20196489337724e+000

2.70958499956006e+005,-7.19830171089980e+000,-1.21862628909797e+000

2.74740939660078e+005,-7.19834216394869e+000,-1.23551599229681e+000

2.78576180254757e+005,-7.19838342838337e+000,-1.25263705265707e+000

2.82464958813007e+005,-7.19842551151302e+000,-1.26999255918840e+000

2.86408022696948e+005,-7.19846842019533e+000,-1.28758564077142e+000

2.90406129701488e+005,-7.19851216080177e+000,-1.30541946671906e+000

2.94460048199957e+005,-7.19855673918211e+000,-1.32349724734918e+000

2.98570557291775e+005,-7.19860216062708e+000,-1.34182223457386e+000

3.02738446952187e+005,-7.19864842983018e+000,-1.36039772250190e+000

3.06964518184081e+005,-7.19869555084854e+000,-1.37922704805583e+000

3.11249583171928e+005,-7.19874352706149e+000,-1.39831359161043e+000

3.15594465437872e+005,-7.19879236112921e+000,-1.41766077764034e+000

3.19999999999997e+005,-7.19884205494921e+000,-1.43727207539175e+000

3.24467033532806e+005,-7.19889260961211e+000,-1.45715099956777e+000

3.28996424529938e+005,-7.19894402535620e+000,-1.47730111103501e+000

3.33589043469155e+005,-7.19899630152065e+000,-1.49772601754811e+000

3.38245772979638e+005,-7.19904943649803e+000,-1.51842937449431e+000

3.42967508011610e+005,-7.19910342768529e+000,-1.53941488566027e+000

3.47755156008335e+005,-7.19915827143432e+000,-1.56068630401720e+000

3.52609637080511e+005,-7.19921396300110e+000,-1.58224743253006e+000

3.57531884183106e+005,-7.19927049649410e+000,-1.60410212498972e+000

3.62522843294651e+005,-7.19932786482212e+000,-1.62625428686524e+000

3.67583473599047e+005,-7.19938605964075e+000,-1.64870787618443e+000

3.72714747669902e+005,-7.19944507129902e+000,-1.67146690443429e+000

3.77917651657445e+005,-7.19950488878470e+000,-1.69453543748914e+000

3.83193185478053e+005,-7.19956549966946e+000,-1.71791759656375e+000

3.88542363006410e+005,-7.19962689005369e+000,-1.74161755919141e+000

3.93966212270369e+005,-7.19968904451065e+000,-1.76563956023029e+000

3.99465775648511e+005,-7.19975194603068e+000,-1.78998789289616e+000

4.05042110070485e+005,-7.19981557596538e+000,-1.81466690982081e+000

4.10696287220124e+005,-7.19987991397165e+000,-1.83968102414124e+000

4.16429393741414e+005,-7.19994493795585e+000,-1.86503471061502e+000

4.22242531447321e+005,-7.20001062401821e+000,-1.89073250676525e+000

4.28136817531551e+005,-7.20007694639781e+000,-1.91677901405320e+000

4.34113384783250e+005,-7.20014387741796e+000,-1.94317889908152e+000

4.40173381804713e+005,-7.20021138743196e+000,-1.96993689482539e+000

4.46317973232124e+005,-7.20027944477033e+000,-1.99705780189280e+000

4.52548339959385e+005,-7.20034801568826e+000,-2.02454648981528e+000

4.58865679365059e+005,-7.20041706431444e+000,-2.05240789836728e+000

4.65271205542494e+005,-7.20048655260125e+000,-2.08064703891387e+000

4.71766149533147e+005,-7.20055644027591e+000,-2.10926899578956e+000

4.78351759563174e+005,-7.20062668479360e+000,-2.13827892770321e+000

4.85029301283321e+005,-7.20069724129164e+000,-2.16768206917438e+000

4.91800058012158e+005,-7.20076806254614e+000,-2.19748373199457e+000

4.98665330982714e+005,-7.20083909892976e+000,-2.22768930671967e+000

5.05626439592555e+005,-7.20091029837209e+000,-2.25830426418626e+000

5.12684721657352e+005,-7.20098160632217e+000,-2.28933415705594e+000

5.19841533667984e+005,-7.20105296571265e+000,-2.32078462138675e+000

5.27098251051240e+005,-7.20112431692710e+000,-2.35266137822712e+000

5.34456268434150e+005,-7.20119559776943e+000,-2.38497023523576e+000

5.41916999912011e+005,-7.20126674343567e+000,-2.41771708832539e+000

