Freq.,VOut,OutRef

1.00000000000000e+004,-1.68745535652592e+001,-7.03172266412132e-002

1.01395947979003e+004,-1.68745540863772e+001,-7.12987767202618e-002

1.02811382665607e+004,-1.68745546221412e+001,-7.22940269517235e-002

1.04246576084112e+004,-1.68745551729625e+001,-7.33031685085428e-002

1.05701804056138e+004,-1.68745557392646e+001,-7.43263952259587e-002

1.07177346253629e+004,-1.68745563214819e+001,-7.53639036454046e-002

1.08673486252606e+004,-1.68745569200620e+001,-7.64158930453087e-002

1.10190511587661e+004,-1.68745575354644e+001,-7.74825654834777e-002

1.11728713807222e+004,-1.68745581681617e+001,-7.85641258349393e-002

1.13288388529580e+004,-1.68745588186396e+001,-7.96607818314688e-002

1.14869835499703e+004,-1.68745594873976e+001,-8.07727441000654e-002

1.16473358646846e+004,-1.68745601749496e+001,-8.19002261999874e-002

1.18099266142953e+004,-1.68745608818233e+001,-8.30434446727126e-002

1.19747870461893e+004,-1.68745616085613e+001,-8.42026190766793e-002

1.21419488439505e+004,-1.68745623557219e+001,-8.53779720258214e-002

1.23114441334492e+004,-1.68745631238784e+001,-8.65697292441719e-002

1.24833054890161e+004,-1.68745639136207e+001,-8.77781195949402e-002

1.26575659397028e+004,-1.68745647255552e+001,-8.90033751331822e-002

1.28342589756290e+004,-1.68745655603049e+001,-9.02457311492942e-002

1.30134185544193e+004,-1.68745664185111e+001,-9.15054262071566e-002

1.31950791077289e+004,-1.68745673008318e+001,-9.27827022022500e-002

1.33792755478611e+004,-1.68745682079450e+001,-9.40778043924530e-002

1.35660432744767e+004,-1.68745691405466e+001,-9.53909814576693e-002

1.37554181813974e+004,-1.68745700993524e+001,-9.67224855413335e-002

1.39474366635040e+004,-1.68745710850984e+001,-9.80725722965677e-002

1.41421356237309e+004,-1.68745720985407e+001,-9.94415009432267e-002

1.43395524801583e+004,-1.68745731404575e+001,-1.00829534305115e-001

1.45397251732031e+004,-1.68745742116481e+001,-1.02236938870711e-001

1.47426921729110e+004,-1.68745753129345e+001,-1.03663984839278e-001

1.49484924863494e+004,-1.68745764451616e+001,-1.05110946172535e-001

1.51571656651040e+004,-1.68745776091983e+001,-1.06578100645920e-001

1.53687518128801e+004,-1.68745788059372e+001,-1.08065729906795e-001

1.55832915932100e+004,-1.68745800362971e+001,-1.09574119516812e-001

1.58008262372675e+004,-1.68745813012211e+001,-1.11103559022123e-001

1.60213975517924e+004,-1.68745826016800e+001,-1.12654341990808e-001

1.62450479271247e+004,-1.68745839386708e+001,-1.14226766085060e-001

1.64718203453514e+004,-1.68745853132193e+001,-1.15821133104097e-001

1.67017583885674e+004,-1.68745867263795e+001,-1.17437749052265e-001

1.69349062472505e+004,-1.68745881792352e+001,-1.19076924188335e-001

1.71713087287550e+004,-1.68745896729001e+001,-1.20738973093392e-001

1.74110112659224e+004,-1.68745912085199e+001,-1.22424214720277e-001

1.76540599258131e+004,-1.68745927872720e+001,-1.24132972460868e-001

1.79005014185594e+004,-1.68745944103663e+001,-1.25865574210099e-001

1.81503831063432e+004,-1.68745960790472e+001,-1.27622352419178e-001

1.84037530124975e+004,-1.68745977945938e+001,-1.29403644165085e-001

1.86606598307361e+004,-1.68745995583210e+001,-1.31209791212805e-001

1.89211529345119e+004,-1.68746013715805e+001,-1.33041140078813e-001

1.91852823865052e+004,-1.68746032357619e+001,-1.34898042099057e-001

1.94530989482457e+004,-1.68746051522935e+001,-1.36780853492945e-001

1.97246540898671e+004,-1.68746071226437e+001,-1.38689935434193e-001

1.99999999999999e+004,-1.68746091483219e+001,-1.40625654114035e-001

2.02791895958005e+004,-1.68746112308800e+001,-1.42588380813708e-001

2.05622765331213e+004,-1.68746133719131e+001,-1.44578491974214e-001

2.08493152168224e+004,-1.68746155730611e+001,-1.46596369266244e-001

2.11403608112276e+004,-1.68746178360093e+001,-1.48642399665472e-001

2.14354692507258e+004,-1.68746201624905e+001,-1.50716975520708e-001

2.17346972505211e+004,-1.68746225542862e+001,-1.52820494629960e-001

2.20381023175322e+004,-1.68746250132272e+001,-1.54953360316320e-001

2.23457427614443e+004,-1.68746275411957e+001,-1.57115981502573e-001

2.26576777059159e+004,-1.68746301401264e+001,-1.59308772789042e-001

2.29739670999406e+004,-1.68746328120083e+001,-1.61532154530522e-001

2.32946717293690e+004,-1.68746355588857e+001,-1.63786552915475e-001

2.36198532285905e+004,-1.68746383828600e+001,-1.66072400047841e-001

2.39495740923785e+004,-1.68746412860917e+001,-1.68390134023703e-001

2.42838976879009e+004,-1.68746442708009e+001,-1.70740199019326e-001

2.46228882668982e+004,-1.68746473392705e+001,-1.73123045368519e-001

2.49666109780322e+004,-1.68746504938464e+001,-1.75539129651776e-001

2.53151318794055e+004,-1.68746537369403e+001,-1.77988914778620e-001

2.56685179512580e+004,-1.68746570710313e+001,-1.80472870075343e-001

2.60268371088386e+004,-1.68746604986675e+001,-1.82991471370766e-001

2.63901582154578e+004,-1.68746640224679e+001,-1.85545201090397e-001

2.67585510957221e+004,-1.68746676451247e+001,-1.88134548339669e-001

2.71320865489533e+004,-1.68746713694053e+001,-1.90760008997697e-001

2.75108363627948e+004,-1.68746751981539e+001,-1.93422085812470e-001

2.78948733270080e+004,-1.68746791342940e+001,-1.96121288490148e-001

2.82842712474618e+004,-1.68746831808307e+001,-1.98858133791349e-001

2.86791049603164e+004,-1.68746873408528e+001,-2.01633145626619e-001

2.90794503464061e+004,-1.68746916175346e+001,-2.04446855156854e-001

2.94853843458219e+004,-1.68746960141397e+001,-2.07299800884660e-001

2.98969849726987e+004,-1.68747005340214e+001,-2.10192528762683e-001

3.03143313302078e+004,-1.68747051806269e+001,-2.13125592287714e-001

3.07375036257601e+004,-1.68747099574992e+001,-2.16099552604834e-001

3.11665831864199e+004,-1.68747148682799e+001,-2.19114978612077e-001

3.16016524745350e+004,-1.68747199167112e+001,-2.22172447066243e-001

3.20427951035848e+004,-1.68747251066399e+001,-2.25272542685252e-001

3.24900958542493e+004,-1.68747304420193e+001,-2.28415858258241e-001

3.29436406907028e+004,-1.68747359269128e+001,-2.31602994752378e-001

3.34035167771346e+004,-1.68747415654960e+001,-2.34834561428451e-001

3.38698124945009e+004,-1.68747473620605e+001,-2.38111175945273e-001

3.43426174575100e+004,-1.68747533210174e+001,-2.41433464475541e-001

3.48220225318448e+004,-1.68747594468994e+001,-2.44802061822172e-001

3.53081198516260e+004,-1.68747657443652e+001,-2.48217611530685e-001

3.58010028371187e+004,-1.68747722182023e+001,-2.51680766009394e-001

3.63007662126863e+004,-1.68747788733309e+001,-2.55192186644799e-001

3.68075060249948e+004,-1.68747857148074e+001,-2.58752543924562e-001

3.73213196614721e+004,-1.68747927478275e+001,-2.62362517558021e-001

3.78423058690237e+004,-1.68747999777316e+001,-2.66022796595866e-001

3.83705647730104e+004,-1.68748074100066e+001,-2.69734079561638e-001

3.89061978964912e+004,-1.68748150502915e+001,-2.73497074570251e-001

3.94493081797342e+004,-1.68748229043810e+001,-2.77312499459773e-001

3.99999999999998e+004,-1.68748309782295e+001,-2.81181081918291e-001

4.05583791916010e+004,-1.68748392779554e+001,-2.85103559617872e-001

4.11245530662425e+004,-1.68748478098464e+001,-2.89080680339741e-001

4.16986304336447e+004,-1.68748565803627e+001,-2.93113202114778e-001

4.22807216224550e+004,-1.68748655961427e+001,-2.97201893354134e-001

4.28709385014515e+004,-1.68748748640073e+001,-3.01347532988380e-001

4.34693945010421e+004,-1.68748843909652e+001,-3.05550910602875e-001

4.40762046350642e+004,-1.68748941842176e+001,-3.09812826579168e-001

4.46914855228886e+004,-1.68749042511631e+001,-3.14134092239666e-001

4.53153554118317e+004,-1.68749145994038e+001,-3.18515529981640e-001

4.59479341998812e+004,-1.68749252367501e+001,-3.22957973431395e-001

4.65893434587380e+004,-1.68749361712264e+001,-3.27462267583989e-001

4.72397064571810e+004,-1.68749474110770e+001,-3.32029268952664e-001

4.78991481847569e+004,-1.68749589647714e+001,-3.36659845720835e-001

4.85677953758016e+004,-1.68749708410113e+001,-3.41354877887008e-001

4.92457765337964e+004,-1.68749830487356e+001,-3.46115257423238e-001

4.99332219560642e+004,-1.68749955971276e+001,-3.50941888426217e-001

5.06302637588109e+004,-1.68750084956207e+001,-3.55835687273588e-001

5.13370359025159e+004,-1.68750217539059e+001,-3.60797582780571e-001

5.20536742176771e+004,-1.68750353819374e+001,-3.65828516361253e-001

5.27803164309155e+004,-1.68750493899408e+001,-3.70929442186388e-001

5.35171021914442e+004,-1.68750637884193e+001,-3.76101327346497e-001

5.42641730979066e+004,-1.68750785881613e+001,-3.81345152018111e-001

5.50216727255895e+004,-1.68750938002479e+001,-3.86661909624906e-001

5.57897466540159e+004,-1.68751094360603e+001,-3.92052607008530e-001

5.65685424949235e+004,-1.68751255072879e+001,-3.97518264596259e-001

5.73582099206328e+004,-1.68751420259361e+001,-4.03059916570063e-001

5.81589006928121e+004,-1.68751590043346e+001,-4.08678611039291e-001

5.89707686916437e+004,-1.68751764551454e+001,-4.14375410215754e-001

5.97939699453972e+004,-1.68751943913722e+001,-4.20151390585077e-001

6.06286626604156e+004,-1.68752128263682e+001,-4.26007643088098e-001

6.14750072515201e+004,-1.68752317738455e+001,-4.31945273295484e-001

6.23331663728396e+004,-1.68752512478847e+001,-4.37965401588041e-001

6.32033049490698e+004,-1.68752712629432e+001,-4.44069163339999e-001

6.40855902071694e+004,-1.68752918338660e+001,-4.50257709099525e-001

6.49801917084985e+004,-1.68753129758945e+001,-4.56532204774593e-001

6.58872813814055e+004,-1.68753347046771e+001,-4.62893831817960e-001

6.68070335542691e+004,-1.68753570362793e+001,-4.69343787415028e-001

6.77396249890018e+004,-1.68753799871940e+001,-4.75883284671857e-001

6.86852349150199e+004,-1.68754035743522e+001,-4.82513552806718e-001

6.96440450636895e+004,-1.68754278151343e+001,-4.89235837338948e-001

7.06162397032520e+004,-1.68754527273804e+001,-4.96051400285512e-001

7.16020056742374e+004,-1.68754783294029e+001,-5.02961520351550e-001

7.26015324253724e+004,-1.68755046399966e+001,-5.09967493129020e-001

7.36150120499896e+004,-1.68755316784518e+001,-5.17070631291528e-001

7.46426393229441e+004,-1.68755594645658e+001,-5.24272264793198e-001

7.56846117380472e+004,-1.68755880186549e+001,-5.31573741068291e-001

7.67411295460207e+004,-1.68756173615678e+001,-5.38976425230796e-001

7.78123957929823e+004,-1.68756475146976e+001,-5.46481700276083e-001

7.88986163594682e+004,-1.68756784999950e+001,-5.54090967285515e-001

7.99999999999995e+004,-1.68757103399822e+001,-5.61805645626276e-001

8.11167583832018e+004,-1.68757430577653e+001,-5.69627173160248e-001

8.22491061324848e+004,-1.68757766770491e+001,-5.77557006446928e-001

8.33972608672892e+004,-1.68758112221505e+001,-5.85596620950437e-001

8.45614432449099e+004,-1.68758467180126e+001,-5.93747511248277e-001

8.57418770029029e+004,-1.68758831902199e+001,-6.02011191237375e-001

8.69387890020841e+004,-1.68759206650123e+001,-6.10389194344297e-001

8.81524092701283e+004,-1.68759591693005e+001,-6.18883073734806e-001

8.93829710457770e+004,-1.68759987306807e+001,-6.27494402523636e-001

9.06307108236633e+004,-1.68760393774509e+001,-6.36224773983057e-001

9.18958683997622e+004,-1.68760811386253e+001,-6.45075801758724e-001

9.31786869174758e+004,-1.68761240439512e+001,-6.54049120076604e-001

9.44794129143618e+004,-1.68761681239249e+001,-6.63146383956063e-001

9.57982963695136e+004,-1.68762134098073e+001,-6.72369269423582e-001

9.71355907516031e+004,-1.68762599336413e+001,-6.81719473722798e-001

9.84915530675926e+004,-1.68763077282681e+001,-6.91198715526404e-001

9.98664439121282e+004,-1.68763568273440e+001,-7.00808735150511e-001

1.01260527517622e+005,-1.68764072653578e+001,-7.10551294764048e-001

1.02674071805032e+005,-1.68764590776476e+001,-7.20428178603164e-001

1.04107348435354e+005,-1.68765123004188e+001,-7.30441193180251e-001

1.05560632861831e+005,-1.68765669707608e+001,-7.40592167497482e-001

1.07034204382888e+005,-1.68766231266660e+001,-7.50882953254719e-001

1.08528346195813e+005,-1.68766808070465e+001,-7.61315425061902e-001

1.10043345451179e+005,-1.68767400517522e+001,-7.71891480647543e-001

1.11579493308032e+005,-1.68768009015897e+001,-7.82613041066869e-001

1.13137084989847e+005,-1.68768633983392e+001,-7.93482050909911e-001

1.14716419841265e+005,-1.68769275847738e+001,-8.04500478507766e-001

1.16317801385624e+005,-1.68769935046771e+001,-8.15670316138131e-001

1.17941537383287e+005,-1.68770612028614e+001,-8.26993580229661e-001

1.19587939890794e+005,-1.68771307251864e+001,-8.38472311565665e-001

1.21257325320831e+005,-1.68772021185769e+001,-8.50108575483500e-001

1.22950014503040e+005,-1.68772754310414e+001,-8.61904462076291e-001

1.24666332745679e+005,-1.68773507116900e+001,-8.73862086390775e-001

1.26406609898139e+005,-1.68774280107523e+001,-8.85983588622166e-001

1.28171180414339e+005,-1.68775073795954e+001,-8.98271134311166e-001

1.29960383416997e+005,-1.68775888707413e+001,-9.10726914534872e-001

1.31774562762811e+005,-1.68776725378848e+001,-9.23353146096483e-001

1.33614067108538e+005,-1.68777584359103e+001,-9.36152071715526e-001

1.35479249978003e+005,-1.68778466209086e+001,-9.49125960211489e-001

1.37370469830040e+005,-1.68779371501942e+001,-9.62277106688248e-001

1.39288090127379e+005,-1.68780300823206e+001,-9.75607832715504e-001

1.41232479406504e+005,-1.68781254770968e+001,-9.89120486504951e-001

1.43204011348474e+005,-1.68782233956021e+001,-1.00281744308860e+000

1.45203064850745e+005,-1.68783239002014e+001,-1.01670110448857e+000

1.47230024099979e+005,-1.68784270545591e+001,-1.03077389988970e+000

1.49285278645888e+005,-1.68785329236526e+001,-1.04503828580386e+000

1.51369223476094e+005,-1.68786415737854e+001,-1.05949674623710e+000

1.53482259092041e+005,-1.68787530725994e+001,-1.07415179284718e+000

1.55624791585964e+005,-1.68788674890858e+001,-1.08900596510389e+000

1.57797232718936e+005,-1.68789848935958e+001,-1.10406183044408e+000

1.59999999999999e+005,-1.68791053578500e+001,-1.11932198442140e+000

1.62233516766403e+005,-1.68792289549468e+001,-1.13478905085715e+000

1.64498212264969e+005,-1.68793557593700e+001,-1.15046568198457e+000

1.66794521734578e+005,-1.68794858469943e+001,-1.16635455859303e+000

1.69122886489819e+005,-1.68796192950908e+001,-1.18245839016563e+000

1.71483754005805e+005,-1.68797561823301e+001,-1.19877991501859e+000

1.73877578004168e+005,-1.68798965887845e+001,-1.21532190043357e+000

1.76304818540256e+005,-1.68800405959283e+001,-1.23208714279033e+000

1.78765942091554e+005,-1.68801882866366e+001,-1.24907846769509e+000

1.81261421647326e+005,-1.68803397451827e+001,-1.26629873010809e+000

1.83791736799524e+005,-1.68804950572330e+001,-1.28375081446688e+000

1.86357373834951e+005,-1.68806543098402e+001,-1.30143763481185e+000

1.88958825828723e+005,-1.68808175914348e+001,-1.31936213490470e+000

1.91596592739027e+005,-1.68809849918141e+001,-1.33752728835067e+000

1.94271181503206e+005,-1.68811566021284e+001,-1.35593609871669e+000

1.96983106135185e+005,-1.68813325148660e+001,-1.37459159965143e+000

1.99732887824256e+005,-1.68815128238346e+001,-1.39349685500239e+000

2.02521055035243e+005,-1.68816976241407e+001,-1.41265495893621e+000

2.05348143610063e+005,-1.68818870121653e+001,-1.43206903605966e+000

2.08214696870707e+005,-1.68820810855383e+001,-1.45174224154009e+000

2.11121265723661e+005,-1.68822799431083e+001,-1.47167776122958e+000

2.14068408765776e+005,-1.68824836849099e+001,-1.49187881179257e+000

2.17056692391625e+005,-1.68826924121281e+001,-1.51234864083654e+000

2.20086690902357e+005,-1.68829062270582e+001,-1.53309052704650e+000

2.23158986616063e+005,-1.68831252330637e+001,-1.55410778032450e+000

2.26274169979693e+005,-1.68833495345287e+001,-1.57540374193939e+000

2.29432839682530e+005,-1.68835792368082e+001,-1.59698178467701e+000

2.32635602771247e+005,-1.68838144461734e+001,-1.61884531300574e+000

2.35883074766574e+005,-1.68840552697533e+001,-1.64099776324569e+000

2.39175879781588e+005,-1.68843018154721e+001,-1.66344260375394e+000

2.42514650641661e+005,-1.68845541919823e+001,-1.68618333511757e+000

2.45900029006080e+005,-1.68848125085935e+001,-1.70922349036216e+000

2.49332665491357e+005,-1.68850768751965e+001,-1.73256663517504e+000

2.52813219796278e+005,-1.68853474021825e+001,-1.75621636814520e+000

2.56342360828676e+005,-1.68856242003587e+001,-1.78017632102039e+000

2.59920766833993e+005,-1.68859073808576e+001,-1.80445015898506e+000

2.63549125525621e+005,-1.68861970550426e+001,-1.82904158095864e+000

2.67228134217075e+005,-1.68864933344077e+001,-1.85395431991842e+000

2.70958499956006e+005,-1.68867963304730e+001,-1.87919214324907e+000

2.74740939660078e+005,-1.68871061546746e+001,-1.90475885311522e+000

2.78576180254757e+005,-1.68874229182496e+001,-1.93065828686904e+000

2.82464958813007e+005,-1.68877467321155e+001,-1.95689431748592e+000

2.86408022696948e+005,-1.68880777067452e+001,-1.98347085403678e+000

2.90406129701488e+005,-1.68884159520363e+001,-2.01039184219406e+000

2.94460048199957e+005,-1.68887615771756e+001,-2.03766126478002e+000

2.98570557291775e+005,-1.68891146904976e+001,-2.06528314235378e+000

3.02738446952187e+005,-1.68894753993398e+001,-2.09326153384402e+000

3.06964518184081e+005,-1.68898438098907e+001,-2.12160053722791e+000

3.11249583171928e+005,-1.68902200270351e+001,-2.15030429025937e+000

3.15594465437872e+005,-1.68906041541931e+001,-2.17937697124905e+000

3.19999999999997e+005,-1.68909962931557e+001,-2.20882279990046e+000

3.24467033532806e+005,-1.68913965439148e+001,-2.23864603820326e+000

3.28996424529938e+005,-1.68918050044902e+001,-2.26885099138590e+000

3.33589043469155e+005,-1.68922217707515e+001,-2.29944200893496e+000

3.38245772979638e+005,-1.68926469362375e+001,-2.33042348567611e+000

3.42967508011610e+005,-1.68930805919708e+001,-2.36179986292933e+000

3.47755156008335e+005,-1.68935228262706e+001,-2.39357562973231e+000

3.52609637080511e+005,-1.68939737245619e+001,-2.42575532414039e+000

3.57531884183106e+005,-1.68944333691823e+001,-2.45834353460407e+000

3.62522843294651e+005,-1.68949018391876e+001,-2.49134490142562e+000

3.67583473599047e+005,-1.68953792101553e+001,-2.52476411829965e+000

3.72714747669902e+005,-1.68958655539868e+001,-2.55860593393947e+000

3.77917651657445e+005,-1.68963609387100e+001,-2.59287515378893e+000

3.83193185478053e+005,-1.68968654282809e+001,-2.62757664182640e+000

3.88542363006410e+005,-1.68973790823868e+001,-2.66271532246072e+000

3.93966212270369e+005,-1.68979019562501e+001,-2.69829618251933e+000

3.99465775648511e+005,-1.68984341004338e+001,-2.73432427333483e+000

4.05042110070485e+005,-1.68989755606506e+001,-2.77080471292661e+000

4.10696287220124e+005,-1.68995263775740e+001,-2.80774268828269e+000

4.16429393741414e+005,-1.69000865866539e+001,-2.84514345774087e+000

4.22242531447321e+005,-1.69006562179378e+001,-2.88301235346954e+000

4.28136817531551e+005,-1.69012352958959e+001,-2.92135478405203e+000

4.34113384783250e+005,-1.69018238392537e+001,-2.96017623716893e+000

4.40173381804713e+005,-1.69024218608316e+001,-2.99948228238543e+000

4.46317973232124e+005,-1.69030293673925e+001,-3.03927857403548e+000

4.52548339959385e+005,-1.69036463594976e+001,-3.07957085421061e+000

4.58865679365059e+005,-1.69042728313730e+001,-3.12036495584307e+000

4.65271205542494e+005,-1.69049087707863e+001,-3.16166680589030e+000

4.71766149533147e+005,-1.69055541589344e+001,-3.20348242861211e+000

4.78351759563174e+005,-1.69062089703442e+001,-3.24581794894300e+000

4.85029301283321e+005,-1.69068731727865e+001,-3.28867959595400e+000

4.91800058012158e+005,-1.69075467272028e+001,-3.33207370640232e+000

4.98665330982714e+005,-1.69082295876489e+001,-3.37600672836485e+000

5.05626439592555e+005,-1.69089217012524e+001,-3.42048522495086e+000

5.12684721657352e+005,-1.69096230081879e+001,-3.46551587809173e+000

5.19841533667984e+005,-1.69103334416683e+001,-3.51110549240077e+000

5.27098251051240e+005,-1.69110529279550e+001,-3.55726099909697e+000

5.34456268434150e+005,-1.69117813863862e+001,-3.60398945999266e+000

5.41916999912011e+005,-1.69125187294247e+001,-3.65129807153087e+000

