Freq.,VOut,OutRef

1.00000000000000e+004,-2.68346651000807e+000,-5.02143621744230e-002

1.01395947979003e+004,-2.68346650251291e+000,-5.09153278288312e-002

1.02811382665607e+004,-2.68346649480691e+000,-5.16260785687573e-002

1.04246576084112e+004,-2.68346648688423e+000,-5.23467509871859e-002

1.05701804056138e+004,-2.68346647873870e+000,-5.30774835844806e-002

1.07177346253629e+004,-2.68346647036423e+000,-5.38184167931470e-002

1.08673486252606e+004,-2.68346646175393e+000,-5.45696930095154e-002

1.10190511587661e+004,-2.68346645290184e+000,-5.53314566112571e-002

1.11728713807222e+004,-2.68346644380040e+000,-5.61038539995684e-002

1.13288388529580e+004,-2.68346643444312e+000,-5.68870336116548e-002

1.14869835499703e+004,-2.68346642482273e+000,-5.76811459607201e-002

1.16473358646846e+004,-2.68346641493142e+000,-5.84863436625510e-002

1.18099266142953e+004,-2.68346640476221e+000,-5.93027814569012e-002

1.19747870461893e+004,-2.68346639430680e+000,-6.01306162509711e-002

1.21419488439505e+004,-2.68346638355729e+000,-6.09700071377146e-002

1.23114441334492e+004,-2.68346637250540e+000,-6.18211154321726e-002

1.24833054890161e+004,-2.68346636114268e+000,-6.26841047004796e-002

1.26575659397028e+004,-2.68346634946012e+000,-6.35591407943612e-002

1.28342589756290e+004,-2.68346633744910e+000,-6.44463918763662e-002

1.30134185544193e+004,-2.68346632510018e+000,-6.53460284597830e-002

1.31950791077289e+004,-2.68346631240387e+000,-6.62582234373650e-002

1.33792755478611e+004,-2.68346629935018e+000,-6.71831521164270e-002

1.35660432744767e+004,-2.68346628592954e+000,-6.81209922464153e-002

1.37554181813974e+004,-2.68346627213104e+000,-6.90719240656068e-002

1.39474366635040e+004,-2.68346625794453e+000,-7.00361303205597e-002

1.41421356237309e+004,-2.68346624335877e+000,-7.10137963145436e-002

1.43395524801583e+004,-2.68346622836281e+000,-7.20051099330808e-002

1.45397251732031e+004,-2.68346621294477e+000,-7.30102616889340e-002

1.47426921729110e+004,-2.68346619709283e+000,-7.40294447506873e-002

1.49484924863494e+004,-2.68346618079497e+000,-7.50628549831402e-002

1.51571656651040e+004,-2.68346616403851e+000,-7.61106909872378e-002

1.53687518128801e+004,-2.68346614681048e+000,-7.71731541351084e-002

1.55832915932100e+004,-2.68346612909782e+000,-7.82504486085353e-002

1.58008262372675e+004,-2.68346611088663e+000,-7.93427814420639e-002

1.60213975517924e+004,-2.68346609216283e+000,-8.04503625590847e-002

1.62450479271247e+004,-2.68346607291213e+000,-8.15734048116789e-002

1.64718203453514e+004,-2.68346605311988e+000,-8.27121240229425e-002

1.67017583885674e+004,-2.68346603277054e+000,-8.38667390316446e-002

1.69349062472505e+004,-2.68346601184827e+000,-8.50374717302325e-002

1.71713087287550e+004,-2.68346599033734e+000,-8.62245471048325e-002

1.74110112659224e+004,-2.68346596822096e+000,-8.74281932856114e-002

1.76540599258131e+004,-2.68346594548204e+000,-8.86486415867259e-002

1.79005014185594e+004,-2.68346592210291e+000,-8.98861265513457e-002

1.81503831063432e+004,-2.68346589806588e+000,-9.11408859929531e-002

1.84037530124975e+004,-2.68346587335207e+000,-9.24131610495313e-002

1.86606598307361e+004,-2.68346584794268e+000,-9.37031962207624e-002

1.89211529345119e+004,-2.68346582181803e+000,-9.50112394213425e-002

1.91852823865052e+004,-2.68346579495767e+000,-9.63375420276869e-002

1.94530989482457e+004,-2.68346576734135e+000,-9.76823589201237e-002

1.97246540898671e+004,-2.68346573894728e+000,-9.90459485426598e-002

1.99999999999999e+004,-2.68346570975385e+000,-1.00428572941694e-001

2.02791895958005e+004,-2.68346567973836e+000,-1.01830497824243e-001

2.05622765331213e+004,-2.68346564887764e+000,-1.03251992605202e-001

2.08493152168224e+004,-2.68346561714798e+000,-1.04693330458569e-001

2.11403608112276e+004,-2.68346558452466e+000,-1.06154788374355e-001

2.14354692507258e+004,-2.68346555098258e+000,-1.07636647206047e-001

2.17346972505211e+004,-2.68346551649592e+000,-1.09139191727243e-001

2.20381023175322e+004,-2.68346548103787e+000,-1.10662710688494e-001

2.23457427614443e+004,-2.68346544458108e+000,-1.12207496868825e-001

2.26576777059159e+004,-2.68346540709747e+000,-1.13773847133683e-001

2.29739670999406e+004,-2.68346536855777e+000,-1.15362062494516e-001

2.32946717293690e+004,-2.68346532893251e+000,-1.16972448159794e-001

2.36198532285905e+004,-2.68346528819082e+000,-1.18605313602204e-001

2.39495740923785e+004,-2.68346524630143e+000,-1.20260972610336e-001

2.42838976879009e+004,-2.68346520323155e+000,-1.21939743356634e-001

2.46228882668982e+004,-2.68346515894795e+000,-1.23641948451202e-001

2.49666109780322e+004,-2.68346511341667e+000,-1.25367915005745e-001

2.53151318794055e+004,-2.68346506660214e+000,-1.27117974701132e-001

2.56685179512580e+004,-2.68346501846815e+000,-1.28892463846029e-001

2.60268371088386e+004,-2.68346496897754e+000,-1.30691723441490e-001

2.63901582154578e+004,-2.68346491809205e+000,-1.32516099248973e-001

2.67585510957221e+004,-2.68346486577197e+000,-1.34365941857737e-001

2.71320865489533e+004,-2.68346481197686e+000,-1.36241606747595e-001

2.75108363627948e+004,-2.68346475666514e+000,-1.38143454359587e-001

2.78948733270080e+004,-2.68346469979374e+000,-1.40071850167609e-001

2.82842712474618e+004,-2.68346464131884e+000,-1.42027164742969e-001

2.86791049603164e+004,-2.68346458119469e+000,-1.44009773833131e-001

2.90794503464061e+004,-2.68346451937501e+000,-1.46020058425217e-001

2.94853843458219e+004,-2.68346445581160e+000,-1.48058404827185e-001

2.98969849726987e+004,-2.68346439045520e+000,-1.50125204736225e-001

3.03143313302078e+004,-2.68346432325484e+000,-1.52220855318241e-001

3.07375036257601e+004,-2.68346425415874e+000,-1.54345759278097e-001

3.11665831864199e+004,-2.68346418311298e+000,-1.56500324944667e-001

3.16016524745350e+004,-2.68346411006231e+000,-1.58684966344339e-001

3.20427951035848e+004,-2.68346403494999e+000,-1.60900103281128e-001

3.24900958542493e+004,-2.68346395771771e+000,-1.63146161417146e-001

3.29436406907028e+004,-2.68346387830514e+000,-1.65423572357460e-001

3.34035167771346e+004,-2.68346379665065e+000,-1.67732773727385e-001

3.38698124945009e+004,-2.68346371269078e+000,-1.70074209260226e-001

3.43426174575100e+004,-2.68346362635990e+000,-1.72448328883671e-001

3.48220225318448e+004,-2.68346353759100e+000,-1.74855588801321e-001

3.53081198516260e+004,-2.68346344631481e+000,-1.77296451585050e-001

3.58010028371187e+004,-2.68346335246004e+000,-1.79771386262344e-001

3.63007662126863e+004,-2.68346325595368e+000,-1.82280868403938e-001

3.68075060249948e+004,-2.68346315672057e+000,-1.84825380217127e-001

3.73213196614721e+004,-2.68346305468284e+000,-1.87405410641638e-001

3.78423058690237e+004,-2.68346294976124e+000,-1.90021455434877e-001

3.83705647730104e+004,-2.68346284187355e+000,-1.92674017276591e-001

3.89061978964912e+004,-2.68346273093563e+000,-1.95363605858023e-001

3.94493081797342e+004,-2.68346261686061e+000,-1.98090737984661e-001

3.99999999999998e+004,-2.68346249955928e+000,-2.00855937672639e-001

4.05583791916010e+004,-2.68346237894004e+000,-2.03659736248652e-001

4.11245530662425e+004,-2.68346225490832e+000,-2.06502672455338e-001

4.16986304336447e+004,-2.68346212736676e+000,-2.09385292553303e-001

4.22807216224550e+004,-2.68346199621573e+000,-2.12308150421720e-001

4.28709385014515e+004,-2.68346186135230e+000,-2.15271807670713e-001

4.34693945010421e+004,-2.68346172267057e+000,-2.18276833746344e-001

4.40762046350642e+004,-2.68346158006177e+000,-2.21323806039015e-001

4.46914855228886e+004,-2.68346143341386e+000,-2.24413309995694e-001

4.53153554118317e+004,-2.68346128261162e+000,-2.27545939231478e-001

4.59479341998812e+004,-2.68346112753652e+000,-2.30722295643622e-001

4.65893434587380e+004,-2.68346096806639e+000,-2.33942989527710e-001

4.72397064571810e+004,-2.68346080407564e+000,-2.37208639693713e-001

4.78991481847569e+004,-2.68346063543538e+000,-2.40519873582714e-001

4.85677953758016e+004,-2.68346046201223e+000,-2.43877327393872e-001

4.92457765337964e+004,-2.68346028366982e+000,-2.47281646196330e-001

4.99332219560642e+004,-2.68346010026697e+000,-2.50733484064265e-001

5.06302637588109e+004,-2.68345991165911e+000,-2.54233504191580e-001

5.13370359025159e+004,-2.68345971769690e+000,-2.57782379027483e-001

5.20536742176771e+004,-2.68345951822705e+000,-2.61380790399421e-001

5.27803164309155e+004,-2.68345931309142e+000,-2.65029429648775e-001

5.35171021914442e+004,-2.68345910212754e+000,-2.68728997758467e-001

5.42641730979066e+004,-2.68345888516822e+000,-2.72480205490057e-001

5.50216727255895e+004,-2.68345866204105e+000,-2.76283773521210e-001

5.57897466540159e+004,-2.68345843256893e+000,-2.80140432579846e-001

5.65685424949235e+004,-2.68345819656928e+000,-2.84050923588345e-001

5.73582099206328e+004,-2.68345795385438e+000,-2.88015997801963e-001

5.81589006928121e+004,-2.68345770423080e+000,-2.92036416955941e-001

5.89707686916437e+004,-2.68345744749957e+000,-2.96112953408592e-001

5.97939699453972e+004,-2.68345718345567e+000,-3.00246390291407e-001

6.06286626604156e+004,-2.68345691188838e+000,-3.04437521656483e-001

6.14750072515201e+004,-2.68345663258023e+000,-3.08687152633064e-001

6.23331663728396e+004,-2.68345634530795e+000,-3.12996099575405e-001

6.32033049490698e+004,-2.68345604984092e+000,-3.17365190226449e-001

6.40855902071694e+004,-2.68345574594239e+000,-3.21795263868626e-001

6.49801917084985e+004,-2.68345543336820e+000,-3.26287171490586e-001

6.58872813814055e+004,-2.68345511186688e+000,-3.30841775947471e-001

6.68070335542691e+004,-2.68345478117974e+000,-3.35459952125806e-001

6.77396249890018e+004,-2.68345444104011e+000,-3.40142587112203e-001

6.86852349150199e+004,-2.68345409117349e+000,-3.44890580362257e-001

6.96440450636895e+004,-2.68345373129722e+000,-3.49704843872139e-001

7.06162397032520e+004,-2.68345336112012e+000,-3.54586302354285e-001

7.16020056742374e+004,-2.68345298034215e+000,-3.59535893414174e-001

7.26015324253724e+004,-2.68345258865443e+000,-3.64554567728794e-001

7.36150120499896e+004,-2.68345218573859e+000,-3.69643289229594e-001

7.46426393229441e+004,-2.68345177126711e+000,-3.74803035283780e-001

7.56846117380472e+004,-2.68345134490203e+000,-3.80034796886229e-001

7.67411295460207e+004,-2.68345090629543e+000,-3.85339578845511e-001

7.78123957929823e+004,-2.68345045508897e+000,-3.90718399975422e-001

7.88986163594682e+004,-2.68344999091318e+000,-3.96172293292923e-001

7.99999999999995e+004,-2.68344951338748e+000,-4.01702306212265e-001

8.11167583832018e+004,-2.68344902211969e+000,-4.07309500747344e-001

8.22491061324848e+004,-2.68344851670573e+000,-4.12994953712632e-001

8.33972608672892e+004,-2.68344799672912e+000,-4.18759756930678e-001

8.45614432449099e+004,-2.68344746176064e+000,-4.24605017439735e-001

8.57418770029029e+004,-2.68344691135786e+000,-4.30531857705324e-001

8.69387890020841e+004,-2.68344634506475e+000,-4.36541415835126e-001

8.81524092701283e+004,-2.68344576241121e+000,-4.42634845795418e-001

8.93829710457770e+004,-2.68344516291283e+000,-4.48813317630570e-001

9.06307108236633e+004,-2.68344454606994e+000,-4.55078017689069e-001

9.18958683997622e+004,-2.68344391136748e+000,-4.61430148847995e-001

9.31786869174758e+004,-2.68344325827462e+000,-4.67870930740981e-001

9.44794129143618e+004,-2.68344258624359e+000,-4.74401599995326e-001

9.57982963695136e+004,-2.68344189470985e+000,-4.81023410463142e-001

9.71355907516031e+004,-2.68344118309103e+000,-4.87737633464112e-001

9.84915530675926e+004,-2.68344045078684e+000,-4.94545558023768e-001

9.98664439121282e+004,-2.68343969717763e+000,-5.01448491124757e-001

1.01260527517622e+005,-2.68343892162462e+000,-5.08447757951327e-001

1.02674071805032e+005,-2.68343812346880e+000,-5.15544702143038e-001

1.04107348435354e+005,-2.68343730203025e+000,-5.22740686052488e-001

1.05560632861831e+005,-2.68343645660760e+000,-5.30037091001978e-001

1.07034204382888e+005,-2.68343558647705e+000,-5.37435317549724e-001

1.08528346195813e+005,-2.68343469089197e+000,-5.44936785753156e-001

1.10043345451179e+005,-2.68343376908154e+000,-5.52542935443734e-001

1.11579493308032e+005,-2.68343282025064e+000,-5.60255226495367e-001

1.13137084989847e+005,-2.68343184357846e+000,-5.68075139106828e-001

1.14716419841265e+005,-2.68343083821770e+000,-5.76004174082411e-001

1.16317801385624e+005,-2.68342980329392e+000,-5.84043853115383e-001

1.17941537383287e+005,-2.68342873790430e+000,-5.92195719079782e-001

1.19587939890794e+005,-2.68342764111671e+000,-6.00461336322874e-001

1.21257325320831e+005,-2.68342651196877e+000,-6.08842290962954e-001

1.22950014503040e+005,-2.68342534946686e+000,-6.17340191189233e-001

1.24666332745679e+005,-2.68342415258461e+000,-6.25956667570739e-001

1.26406609898139e+005,-2.68342292026222e+000,-6.34693373363107e-001

1.28171180414339e+005,-2.68342165140508e+000,-6.43551984823588e-001

1.29960383416997e+005,-2.68342034488247e+000,-6.52534201530647e-001

1.31774562762811e+005,-2.68341899952627e+000,-6.61641746704905e-001

1.33614067108538e+005,-2.68341761412967e+000,-6.70876367538173e-001

1.35479249978003e+005,-2.68341618744604e+000,-6.80239835522387e-001

1.37370469830040e+005,-2.68341471818686e+000,-6.89733946789634e-001

1.39288090127379e+005,-2.68341320502077e+000,-6.99360522449947e-001

1.41232479406504e+005,-2.68341164657192e+000,-7.09121408937919e-001

1.43204011348474e+005,-2.68341004141809e+000,-7.19018478363123e-001

1.45203064850745e+005,-2.68340838808921e+000,-7.29053628865314e-001

1.47230024099979e+005,-2.68340668506578e+000,-7.39228784972868e-001

1.49285278645888e+005,-2.68340493077659e+000,-7.49545897970839e-001

1.51369223476094e+005,-2.68340312359730e+000,-7.60006946266820e-001

1.53482259092041e+005,-2.68340126184816e+000,-7.70613935769976e-001

1.55624791585964e+005,-2.68339934379216e+000,-7.81368900268056e-001

1.57797232718936e+005,-2.68339736763287e+000,-7.92273901814205e-001

1.59999999999999e+005,-2.68339533151221e+000,-8.03331031117507e-001

1.62233516766403e+005,-2.68339323350819e+000,-8.14542407939150e-001

1.64498212264969e+005,-2.68339107163250e+000,-8.25910181493742e-001

1.66794521734578e+005,-2.68338884382804e+000,-8.37436530856910e-001

1.69122886489819e+005,-2.68338654796659e+000,-8.49123665375965e-001

1.71483754005805e+005,-2.68338418184573e+000,-8.60973825091706e-001

1.73877578004168e+005,-2.68338174318645e+000,-8.72989281159080e-001

1.76304818540256e+005,-2.68337922963009e+000,-8.85172336279825e-001

1.78765942091554e+005,-2.68337663873543e+000,-8.97525325136855e-001

1.81261421647326e+005,-2.68337396797556e+000,-9.10050614836733e-001

1.83791736799524e+005,-2.68337121473458e+000,-9.22750605358819e-001

1.86357373834951e+005,-2.68336837630449e+000,-9.35627730007777e-001

1.88958825828723e+005,-2.68336544988152e+000,-9.48684455875402e-001

1.91596592739027e+005,-2.68336243256262e+000,-9.61923284307407e-001

1.94271181503206e+005,-2.68335932134171e+000,-9.75346751377321e-001

1.96983106135185e+005,-2.68335611310570e+000,-9.88957428366395e-001

1.99732887824256e+005,-2.68335280463061e+000,-1.00275792225099e+000

2.02521055035243e+005,-2.68334939257736e+000,-1.01675087619507e+000

2.05348143610063e+005,-2.68334587348732e+000,-1.03093897005268e+000

2.08214696870707e+005,-2.68334224377800e+000,-1.04532492087378e+000

2.11121265723661e+005,-2.68333849973812e+000,-1.05991148342070e+000

2.14068408765776e+005,-2.68333463752297e+000,-1.07470145068951e+000

2.17056692391625e+005,-2.68333065314947e+000,-1.08969765443829e+000

2.20086690902357e+005,-2.68332654249056e+000,-1.10490296572720e+000

2.23158986616063e+005,-2.68332230127021e+000,-1.12032029545987e+000

2.26274169979693e+005,-2.68331792505771e+000,-1.13595259493696e+000

2.29432839682530e+005,-2.68331340926178e+000,-1.15180285641645e+000

2.32635602771247e+005,-2.68330874912462e+000,-1.16787411368200e+000

2.35883074766574e+005,-2.68330393971566e+000,-1.18416944261866e+000

2.39175879781588e+005,-2.68329897592511e+000,-1.20069196179785e+000

2.42514650641661e+005,-2.68329385245743e+000,-1.21744483306972e+000

2.45900029006080e+005,-2.68328856382418e+000,-1.23443126216523e+000

2.49332665491357e+005,-2.68328310433705e+000,-1.25165449930684e+000

2.52813219796278e+005,-2.68327746810043e+000,-1.26911783982611e+000

2.56342360828676e+005,-2.68327164900357e+000,-1.28682462479355e+000

2.59920766833993e+005,-2.68326564071314e+000,-1.30477824165355e+000

2.63549125525621e+005,-2.68325943666447e+000,-1.32298212487346e+000

2.67228134217075e+005,-2.68325303005361e+000,-1.34143975659721e+000

2.70958499956006e+005,-2.68324641382819e+000,-1.36015466731313e+000

2.74740939660078e+005,-2.68323958067877e+000,-1.37913043652732e+000

2.78576180254757e+005,-2.68323252302937e+000,-1.39837069345002e+000

2.82464958813007e+005,-2.68322523302774e+000,-1.41787911769216e+000

2.86408022696948e+005,-2.68321770253575e+000,-1.43765943996925e+000

2.90406129701488e+005,-2.68320992311893e+000,-1.45771544281952e+000

2.94460048199957e+005,-2.68320188603618e+000,-1.47805096132987e+000

2.98570557291775e+005,-2.68319358222868e+000,-1.49866988387508e+000

3.02738446952187e+005,-2.68318500230885e+000,-1.51957615286631e+000

3.06964518184081e+005,-2.68317613654904e+000,-1.54077376551090e+000

3.11249583171928e+005,-2.68316697486921e+000,-1.56226677458629e+000

3.15594465437872e+005,-2.68315750682536e+000,-1.58405928922135e+000

3.19999999999997e+005,-2.68314772159649e+000,-1.60615547569410e+000

3.24467033532806e+005,-2.68313760797203e+000,-1.62855955823814e+000

3.28996424529938e+005,-2.68312715433869e+000,-1.65127581986249e+000

3.33589043469155e+005,-2.68311634866657e+000,-1.67430860318566e+000

3.38245772979638e+005,-2.68310517849561e+000,-1.69766231127946e+000

3.42967508011610e+005,-2.68309363092104e+000,-1.72134140852815e+000

3.47755156008335e+005,-2.68308169257875e+000,-1.74535042150025e+000

3.52609637080511e+005,-2.68306934963046e+000,-1.76969393983344e+000

3.57531884183106e+005,-2.68305658774824e+000,-1.79437661713242e+000

3.62522843294651e+005,-2.68304339209862e+000,-1.81940317188330e+000

3.67583473599047e+005,-2.68302974732667e+000,-1.84477838837910e+000

3.72714747669902e+005,-2.68301563753943e+000,-1.87050711766133e+000

3.77917651657445e+005,-2.68300104628895e+000,-1.89659427847636e+000

3.83193185478053e+005,-2.68298595655536e+000,-1.92304485824442e+000

3.88542363006410e+005,-2.68297035072887e+000,-1.94986391404747e+000

3.93966212270369e+005,-2.68295421059210e+000,-1.97705657362902e+000

3.99465775648511e+005,-2.68293751730162e+000,-2.00462803641096e+000

4.05042110070485e+005,-2.68292025136929e+000,-2.03258357452579e+000

4.10696287220124e+005,-2.68290239264308e+000,-2.06092853386572e+000

4.16429393741414e+005,-2.68288392028776e+000,-2.08966833514682e+000

4.22242531447321e+005,-2.68286481276517e+000,-2.11880847499000e+000

4.28136817531551e+005,-2.68284504781370e+000,-2.14835452702048e+000

4.34113384783250e+005,-2.68282460242827e+000,-2.17831214298010e+000

4.40173381804713e+005,-2.68280345283908e+000,-2.20868705386183e+000

4.46317973232124e+005,-2.68278157449062e+000,-2.23948507105787e+000

4.52548339959385e+005,-2.68275894201987e+000,-2.27071208752771e+000

4.58865679365059e+005,-2.68273552923459e+000,-2.30237407898194e+000

4.65271205542494e+005,-2.68271130909091e+000,-2.33447710508679e+000

4.71766149533147e+005,-2.68268625367076e+000,-2.36702731068421e+000

4.78351759563174e+005,-2.68266033415897e+000,-2.40003092703184e+000

4.85029301283321e+005,-2.68263352081965e+000,-2.43349427306331e+000

4.91800058012158e+005,-2.68260578297307e+000,-2.46742375666281e+000

4.98665330982714e+005,-2.68257708897102e+000,-2.50182587596443e+000

5.05626439592555e+005,-2.68254740617302e+000,-2.53670722066629e+000

5.12684721657352e+005,-2.68251670092113e+000,-2.57207447336715e+000

5.19841533667984e+005,-2.68248493851522e+000,-2.60793441092065e+000

5.27098251051240e+005,-2.68245208318734e+000,-2.64429390581126e+000

5.34456268434150e+005,-2.68241809807603e+000,-2.68115992754819e+000

5.41916999912011e+005,-2.68238294520005e+000,-2.71853954408261e+000

