Freq.,VOut,OutRef

1.00000000000000e+004,-6.88721885734559e+000,-2.93059115491926e-002

1.01395947979003e+004,-6.88721955383233e+000,-2.97149477958671e-002

1.02811382665607e+004,-6.88722026989307e+000,-3.01296914714909e-002

1.04246576084112e+004,-6.88722100607840e+000,-3.05502221386844e-002

1.05701804056138e+004,-6.88722176295336e+000,-3.09766204718761e-002

1.07177346253629e+004,-6.88722254109967e+000,-3.14089682621960e-002

1.08673486252606e+004,-6.88722334111405e+000,-3.18473484457686e-002

1.10190511587661e+004,-6.88722416361151e+000,-3.22918451016612e-002

1.11728713807222e+004,-6.88722500922342e+000,-3.27425434832719e-002

1.13288388529580e+004,-6.88722587859870e+000,-3.31995300295827e-002

1.14869835499703e+004,-6.88722677240561e+000,-3.36628923726703e-002

1.16473358646846e+004,-6.88722769132987e+000,-3.41327193710030e-002

1.18099266142953e+004,-6.88722863607736e+000,-3.46091011109192e-002

1.19747870461893e+004,-6.88722960737366e+000,-3.50921289301642e-002

1.21419488439505e+004,-6.88723060596335e+000,-3.55818954439402e-002

1.23114441334492e+004,-6.88723163261465e+000,-3.60784945351665e-002

1.24833054890161e+004,-6.88723268811408e+000,-3.65820214113083e-002

1.26575659397028e+004,-6.88723377327305e+000,-3.70925725821109e-002

1.28342589756290e+004,-6.88723488892418e+000,-3.76102459072318e-002

1.30134185544193e+004,-6.88723603592362e+000,-3.81351406026389e-002

1.31950791077289e+004,-6.88723721515189e+000,-3.86673572584395e-002

1.33792755478611e+004,-6.88723842751409e+000,-3.92069978602182e-002

1.35660432744767e+004,-6.88723967394012e+000,-3.97541658116639e-002

1.37554181813974e+004,-6.88724095538787e+000,-4.03089659376331e-002

1.39474366635040e+004,-6.88724227283946e+000,-4.08715045331701e-002

1.41421356237309e+004,-6.88724362730632e+000,-4.14418893543629e-002

1.43395524801583e+004,-6.88724501982787e+000,-4.20202296533366e-002

1.45397251732031e+004,-6.88724645147236e+000,-4.26066361973155e-002

1.47426921729110e+004,-6.88724792333791e+000,-4.32012212880092e-002

1.49484924863494e+004,-6.88724943655453e+000,-4.38040987749920e-002

1.51571656651040e+004,-6.88725099228229e+000,-4.44153840944535e-002

1.53687518128801e+004,-6.88725259171518e+000,-4.50351942708285e-002

1.55832915932100e+004,-6.88725423607957e+000,-4.56636479547770e-002

1.58008262372675e+004,-6.88725592663678e+000,-4.63008654347328e-002

1.60213975517924e+004,-6.88725766468388e+000,-4.69469686598777e-002

1.62450479271247e+004,-6.88725945155298e+000,-4.76020812735850e-002

1.64718203453514e+004,-6.88726128861521e+000,-4.82663286176615e-002

1.67017583885674e+004,-6.88726317727877e+000,-4.89398377743747e-002

1.69349062472505e+004,-6.88726511899179e+000,-4.96227375778803e-002

1.71713087287550e+004,-6.88726711524303e+000,-5.03151586418316e-002

1.74110112659224e+004,-6.88726916756265e+000,-5.10172333848142e-002

1.76540599258131e+004,-6.88727127752457e+000,-5.17290960467229e-002

1.79005014185594e+004,-6.88727344674503e+000,-5.24508827308809e-002

1.81503831063432e+004,-6.88727567688760e+000,-5.31827314049311e-002

1.84037530124975e+004,-6.88727796966066e+000,-5.39247819493744e-002

1.86606598307361e+004,-6.88728032682191e+000,-5.46771761633654e-002

1.89211529345119e+004,-6.88728275017678e+000,-5.54400578089588e-002

1.91852823865052e+004,-6.88728524158235e+000,-5.62135726210979e-002

1.94530989482457e+004,-6.88728780294770e+000,-5.69978683408382e-002

1.97246540898671e+004,-6.88729043623384e+000,-5.77930947516584e-002

1.99999999999999e+004,-6.88729314345854e+000,-5.85994036859626e-002

2.02791895958005e+004,-6.88729592669516e+000,-5.94169490684104e-002

2.05622765331213e+004,-6.88729878807458e+000,-6.02458869431112e-002

2.08493152168224e+004,-6.88730172978803e+000,-6.10863754925557e-002

2.11403608112276e+004,-6.88730475408763e+000,-6.19385750740193e-002

2.14354692507258e+004,-6.88730786328885e+000,-6.28026482431775e-002

2.17346972505211e+004,-6.88731105977117e+000,-6.36787597907232e-002

2.20381023175322e+004,-6.88731434598128e+000,-6.45670767621625e-002

2.23457427614443e+004,-6.88731772443365e+000,-6.54677684961666e-002

2.26576777059159e+004,-6.88732119771349e+000,-6.63810066482139e-002

2.29739670999406e+004,-6.88732476847813e+000,-6.73069652239914e-002

2.32946717293690e+004,-6.88732843945867e+000,-6.82458206131029e-002

2.36198532285905e+004,-6.88733221346267e+000,-6.91977516167666e-002

2.39495740923785e+004,-6.88733609337686e+000,-7.01629394739702e-002

2.42838976879009e+004,-6.88734008216695e+000,-7.11415679099939e-002

2.46228882668982e+004,-6.88734418288319e+000,-7.21338231465207e-002

2.49666109780322e+004,-6.88734839865924e+000,-7.31398939565446e-002

2.53151318794055e+004,-6.88735273271756e+000,-7.41599716779488e-002

2.56685179512580e+004,-6.88735718836966e+000,-7.51942502603221e-002

2.60268371088386e+004,-6.88736176901958e+000,-7.62429262928181e-002

2.63901582154578e+004,-6.88736647816597e+000,-7.73061990404103e-002

2.67585510957221e+004,-6.88737131940593e+000,-7.83842704715839e-002

2.71320865489533e+004,-6.88737629643572e+000,-7.94773453047427e-002

2.75108363627948e+004,-6.88738141305475e+000,-8.05856310360596e-002

2.78948733270080e+004,-6.88738667316874e+000,-8.17093379726456e-002

2.82842712474618e+004,-6.88739208079151e+000,-8.28486792759980e-002

2.86791049603164e+004,-6.88739764004924e+000,-8.40038709894310e-002

2.90794503464061e+004,-6.88740335518218e+000,-8.51751320835048e-002

2.94853843458219e+004,-6.88740923054898e+000,-8.63626844863816e-002

2.98969849726987e+004,-6.88741527062923e+000,-8.75667531236039e-002

3.03143313302078e+004,-6.88742148002756e+000,-8.87875659530036e-002

3.07375036257601e+004,-6.88742786347580e+000,-9.00253540088089e-002

3.11665831864199e+004,-6.88743442583794e+000,-9.12803514317557e-002

3.16016524745350e+004,-6.88744117211201e+000,-9.25527955184061e-002

3.20427951035848e+004,-6.88744810743629e+000,-9.38429267441708e-002

3.24900958542493e+004,-6.88745523709018e+000,-9.51509888210718e-002

3.29436406907028e+004,-6.88746256650031e+000,-9.64772287232454e-002

3.34035167771346e+004,-6.88747010124394e+000,-9.78218967312114e-002

3.38698124945009e+004,-6.88747784705203e+000,-9.91852464785182e-002

3.43426174575100e+004,-6.88748580981515e+000,-1.00567534980950e-001

3.48220225318448e+004,-6.88749399558678e+000,-1.01969022685063e-001

3.53081198516260e+004,-6.88750241058758e+000,-1.03389973510137e-001

3.58010028371187e+004,-6.88751106121128e+000,-1.04830654880328e-001

3.63007662126863e+004,-6.88751995402723e+000,-1.06291337781627e-001

3.68075060249948e+004,-6.88752909578748e+000,-1.07772296787586e-001

3.73213196614721e+004,-6.88753849342969e+000,-1.09273810116724e-001

3.78423058690237e+004,-6.88754815408393e+000,-1.10796159661647e-001

3.83705647730104e+004,-6.88755808507684e+000,-1.12339631040575e-001

3.89061978964912e+004,-6.88756829393693e+000,-1.13904513639379e-001

3.94493081797342e+004,-6.88757878840017e+000,-1.15491100654438e-001

3.99999999999998e+004,-6.88758957641679e+000,-1.17099689128694e-001

4.05583791916010e+004,-6.88760066615471e+000,-1.18730580010274e-001

4.11245530662425e+004,-6.88761206600760e+000,-1.20384078182508e-001

4.16986304336447e+004,-6.88762378459931e+000,-1.22060492518330e-001

4.22807216224550e+004,-6.88763583079170e+000,-1.23760135914456e-001

4.28709385014515e+004,-6.88764821368913e+000,-1.25483325347926e-001

4.34693945010421e+004,-6.88766094264671e+000,-1.27230381909352e-001

4.40762046350642e+004,-6.88767402727592e+000,-1.29001630854880e-001

4.46914855228886e+004,-6.88768747745191e+000,-1.30797401647590e-001

4.53153554118317e+004,-6.88770130332064e+000,-1.32618028002210e-001

4.59479341998812e+004,-6.88771551530506e+000,-1.34463847937373e-001

4.65893434587380e+004,-6.88773012411455e+000,-1.36335203805407e-001

4.72397064571810e+004,-6.88774514075006e+000,-1.38232442355239e-001

4.78991481847569e+004,-6.88776057651403e+000,-1.40155914762100e-001

4.85677953758016e+004,-6.88777644301658e+000,-1.42105976684568e-001

4.92457765337964e+004,-6.88779275218545e+000,-1.44082988297549e-001

4.99332219560642e+004,-6.88780951627232e+000,-1.46087314350159e-001

5.06302637588109e+004,-6.88782674786330e+000,-1.48119324198537e-001

5.13370359025159e+004,-6.88784445988635e+000,-1.50179391858414e-001

5.20536742176771e+004,-6.88786266562100e+000,-1.52267896044841e-001

5.27803164309155e+004,-6.88788137870672e+000,-1.54385220221231e-001

5.35171021914442e+004,-6.88790061315356e+000,-1.56531752636595e-001

5.42641730979066e+004,-6.88792038335077e+000,-1.58707886374229e-001

5.50216727255895e+004,-6.88794070407716e+000,-1.60914019392452e-001

5.57897466540159e+004,-6.88796159051094e+000,-1.63150554569106e-001

5.65685424949235e+004,-6.88798305824021e+000,-1.65417899742876e-001

5.73582099206328e+004,-6.88800512327334e+000,-1.67716467756921e-001

5.81589006928121e+004,-6.88802780205022e+000,-1.70046676496621e-001

5.89707686916437e+004,-6.88805111145291e+000,-1.72408948934725e-001

5.97939699453972e+004,-6.88807506881734e+000,-1.74803713167485e-001

6.06286626604156e+004,-6.88809969194400e+000,-1.77231402461658e-001

6.14750072515201e+004,-6.88812499911102e+000,-1.79692455284056e-001

6.23331663728396e+004,-6.88815100908567e+000,-1.82187315344771e-001

6.32033049490698e+004,-6.88817774113648e+000,-1.84716431635191e-001

6.40855902071694e+004,-6.88820521504651e+000,-1.87280258460562e-001

6.49801917084985e+004,-6.88823345112569e+000,-1.89879255479443e-001

6.58872813814055e+004,-6.88826247022414e+000,-1.92513887737360e-001

6.68070335542691e+004,-6.88829229374586e+000,-1.95184625698215e-001

6.77396249890018e+004,-6.88832294366278e+000,-1.97891945274869e-001

6.86852349150199e+004,-6.88835444252761e+000,-2.00636327867421e-001

6.96440450636895e+004,-6.88838681348969e+000,-2.03418260383751e-001

7.06162397032520e+004,-6.88842008030873e+000,-2.06238235272488e-001

7.16020056742374e+004,-6.88845426737014e+000,-2.09096750546818e-001

7.26015324253724e+004,-6.88848939969932e+000,-2.11994309816769e-001

7.36150120499896e+004,-6.88852550297898e+000,-2.14931422299384e-001

7.46426393229441e+004,-6.88856260356306e+000,-2.17908602853409e-001

7.56846117380472e+004,-6.88860072849435e+000,-2.20926371989079e-001

7.67411295460207e+004,-6.88863990551997e+000,-2.23985255891087e-001

7.78123957929823e+004,-6.88868016310838e+000,-2.27085786433420e-001

7.88986163594682e+004,-6.88872153046675e+000,-2.30228501189307e-001

7.99999999999995e+004,-6.88876403755799e+000,-2.33413943445065e-001

8.11167583832018e+004,-6.88880771511822e+000,-2.36642662208867e-001

8.22491061324848e+004,-6.88885259467524e+000,-2.39915212213974e-001

8.33972608672892e+004,-6.88889870856606e+000,-2.43232153925401e-001

8.45614432449099e+004,-6.88894608995662e+000,-2.46594053533589e-001

8.57418770029029e+004,-6.88899477285934e+000,-2.50001482959829e-001

8.69387890020841e+004,-6.88904479215280e+000,-2.53455019846461e-001

8.81524092701283e+004,-6.88909618360141e+000,-2.56955247546414e-001

8.93829710457770e+004,-6.88914898387474e+000,-2.60502755113019e-001

9.06307108236633e+004,-6.88920323056757e+000,-2.64098137283809e-001

9.18958683997622e+004,-6.88925896222049e+000,-2.67741994457643e-001

9.31786869174758e+004,-6.88931621833977e+000,-2.71434932675845e-001

9.44794129143618e+004,-6.88937503941890e+000,-2.75177563588924e-001

9.57982963695136e+004,-6.88943546695895e+000,-2.78970504429161e-001

9.71355907516031e+004,-6.88949754348987e+000,-2.82814377973266e-001

9.84915530675926e+004,-6.88956131259254e+000,-2.86709812498369e-001

9.98664439121282e+004,-6.88962681891970e+000,-2.90657441740291e-001

1.01260527517622e+005,-6.88969410821854e+000,-2.94657904838157e-001

1.02674071805032e+005,-6.88976322735220e+000,-2.98711846283124e-001

1.04107348435354e+005,-6.88983422432231e+000,-3.02819915853659e-001

1.05560632861831e+005,-6.88990714829133e+000,-3.06982768549370e-001

1.07034204382888e+005,-6.88998204960456e+000,-3.11201064522029e-001

1.08528346195813e+005,-6.89005897981395e+000,-3.15475468988416e-001

1.10043345451179e+005,-6.89013799169935e+000,-3.19806652155229e-001

1.11579493308032e+005,-6.89021913929231e+000,-3.24195289120554e-001

1.13137084989847e+005,-6.89030247789835e+000,-3.28642059780287e-001

1.14716419841265e+005,-6.89038806412007e+000,-3.33147648720086e-001

1.16317801385624e+005,-6.89047595587955e+000,-3.37712745106575e-001

1.17941537383287e+005,-6.89056621244165e+000,-3.42338042564206e-001

1.19587939890794e+005,-6.89065889443601e+000,-3.47024239052688e-001

1.21257325320831e+005,-6.89075406387986e+000,-3.51772036729744e-001

1.22950014503040e+005,-6.89085178420043e+000,-3.56582141808609e-001

1.24666332745679e+005,-6.89095212025689e+000,-3.61455264408097e-001

1.26406609898139e+005,-6.89105513836219e+000,-3.66392118393111e-001

1.28171180414339e+005,-6.89116090630488e+000,-3.71393421205124e-001

1.29960383416997e+005,-6.89126949337032e+000,-3.76459893685123e-001

1.31774562762811e+005,-6.89138097036106e+000,-3.81592259889990e-001

1.33614067108538e+005,-6.89149540961758e+000,-3.86791246893709e-001

1.35479249978003e+005,-6.89161288503849e+000,-3.92057584580486e-001

1.37370469830040e+005,-6.89173347209873e+000,-3.97392005435274e-001

1.39288090127379e+005,-6.89185724786936e+000,-4.02795244311211e-001

1.41232479406504e+005,-6.89198429103452e+000,-4.08268038199117e-001

1.43204011348474e+005,-6.89211468190927e+000,-4.13811125976744e-001

1.45203064850745e+005,-6.89224850245553e+000,-4.19425248153881e-001

1.47230024099979e+005,-6.89238583629730e+000,-4.25111146603439e-001

1.49285278645888e+005,-6.89252676873482e+000,-4.30869564284349e-001

1.51369223476094e+005,-6.89267138675825e+000,-4.36701244945768e-001

1.53482259092041e+005,-6.89281977905910e+000,-4.42606932830188e-001

1.55624791585964e+005,-6.89297203604126e+000,-4.48587372355502e-001

1.57797232718936e+005,-6.89312824982991e+000,-4.54643307792373e-001

1.59999999999999e+005,-6.89328851427932e+000,-4.60775482926138e-001

1.62233516766403e+005,-6.89345292497928e+000,-4.66984640705610e-001

1.64498212264969e+005,-6.89362157925894e+000,-4.73271522884873e-001

1.66794521734578e+005,-6.89379457618946e+000,-4.79636869648551e-001

1.69122886489819e+005,-6.89397201658505e+000,-4.86081419224190e-001

1.71483754005805e+005,-6.89415400300070e+000,-4.92605907488172e-001

1.73877578004168e+005,-6.89434063972854e+000,-4.99211067555037e-001

1.76304818540256e+005,-6.89453203279192e+000,-5.05897629355174e-001

1.78765942091554e+005,-6.89472828993654e+000,-5.12666319201711e-001

1.81261421647326e+005,-6.89492952061886e+000,-5.19517859347054e-001

1.83791736799524e+005,-6.89513583599217e+000,-5.26452967524650e-001

1.86357373834951e+005,-6.89534734888932e+000,-5.33472356482611e-001

1.88958825828723e+005,-6.89556417380247e+000,-5.40576733503937e-001

1.91596592739027e+005,-6.89578642685936e+000,-5.47766799917850e-001

1.94271181503206e+005,-6.89601422579630e+000,-5.55043250601262e-001

1.96983106135185e+005,-6.89624768992787e+000,-5.62406773465722e-001

1.99732887824256e+005,-6.89648694011146e+000,-5.69858048945038e-001

2.02521055035243e+005,-6.89673209870986e+000,-5.77397749461485e-001

2.05348143610063e+005,-6.89698328954813e+000,-5.85026538893582e-001

2.08214696870707e+005,-6.89724063786649e+000,-5.92745072032248e-001

2.11121265723661e+005,-6.89750427026888e+000,-6.00553994032786e-001

2.14068408765776e+005,-6.89777431466684e+000,-6.08453939856662e-001

2.17056692391625e+005,-6.89805090021829e+000,-6.16445533713472e-001

2.20086690902357e+005,-6.89833415726099e+000,-6.24529388496650e-001

2.23158986616063e+005,-6.89862421724160e+000,-6.32706105214266e-001

2.26274169979693e+005,-6.89892121263773e+000,-6.40976272425419e-001

2.29432839682530e+005,-6.89922527687619e+000,-6.49340465665859e-001

2.32635602771247e+005,-6.89953654424359e+000,-6.57799246886556e-001

2.35883074766574e+005,-6.89985514979236e+000,-6.66353163883549e-001

2.39175879781588e+005,-6.90018122923966e+000,-6.75002749740293e-001

2.42514650641661e+005,-6.90051491886016e+000,-6.83748522272151e-001

2.45900029006080e+005,-6.90085635537216e+000,-6.92590983480681e-001

2.49332665491357e+005,-6.90120567581750e+000,-7.01530619013541e-001

2.52813219796278e+005,-6.90156301743369e+000,-7.10567897641487e-001

2.56342360828676e+005,-6.90192851751968e+000,-7.19703270746409e-001

2.59920766833993e+005,-6.90230231329447e+000,-7.28937171823853e-001

2.63549125525621e+005,-6.90268454174772e+000,-7.38270016008404e-001

2.67228134217075e+005,-6.90307533948426e+000,-7.47702199614463e-001

2.70958499956006e+005,-6.90347484255961e+000,-7.57234099706435e-001

2.74740939660078e+005,-6.90388318630883e+000,-7.66866073691095e-001

2.78576180254757e+005,-6.90430050516777e+000,-7.76598458940204e-001

2.82464958813007e+005,-6.90472693248596e+000,-7.86431572446957e-001

2.86408022696948e+005,-6.90516260033249e+000,-7.96365710514617e-001

2.90406129701488e+005,-6.90560763929381e+000,-8.06401148485413e-001

2.94460048199957e+005,-6.90606217826353e+000,-8.16538140512772e-001

2.98570557291775e+005,-6.90652634422564e+000,-8.26776919372899e-001

3.02738446952187e+005,-6.90700026202857e+000,-8.37117696332506e-001

3.06964518184081e+005,-6.90748405415293e+000,-8.47560661062883e-001

3.11249583171928e+005,-6.90797784047217e+000,-8.58105981608730e-001

3.15594465437872e+005,-6.90848173800439e+000,-8.68753804423703e-001

3.19999999999997e+005,-6.90899586065904e+000,-8.79504254460794e-001

3.24467033532806e+005,-6.90952031897546e+000,-8.90357435335274e-001

3.28996424529938e+005,-6.91005521985630e+000,-9.01313429552478e-001

3.33589043469155e+005,-6.91060066629309e+000,-9.12372298818135e-001

3.38245772979638e+005,-6.91115675708776e+000,-9.23534084417885e-001

3.42967508011610e+005,-6.91172358656725e+000,-9.34798807686561e-001

3.47755156008335e+005,-6.91230124429435e+000,-9.46166470557204e-001

3.52609637080511e+005,-6.91288981477292e+000,-9.57637056205283e-001

3.57531884183106e+005,-6.91348937714984e+000,-9.69210529782653e-001

3.62522843294651e+005,-6.91410000491376e+000,-9.80886839246214e-001

3.67583473599047e+005,-6.91472176559018e+000,-9.92665916292488e-001

3.72714747669902e+005,-6.91535472043529e+000,-1.00454767739045e+000

3.77917651657445e+005,-6.91599892412756e+000,-1.01653202492589e+000

3.83193185478053e+005,-6.91665442445978e+000,-1.02861884844749e+000

3.88542363006410e+005,-6.91732126202983e+000,-1.04080802603513e+000

3.93966212270369e+005,-6.91799946993377e+000,-1.05309942577398e+000

3.99465775648511e+005,-6.91868907345984e+000,-1.06549290735150e+000

4.05042110070485e+005,-6.91939008978598e+000,-1.07798832376841e+000

4.10696287220124e+005,-6.92010252768039e+000,-1.09058552317558e+000

4.16429393741414e+005,-6.92082638720744e+000,-1.10328435082803e+000

4.22242531447321e+005,-6.92156165943941e+000,-1.11608465116166e+000

4.28136817531551e+005,-6.92230832617467e+000,-1.12898626999643e+000

4.34113384783250e+005,-6.92306635966422e+000,-1.14198905685957e+000

4.40173381804713e+005,-6.92383572234774e+000,-1.15509286742966e+000

4.46317973232124e+005,-6.92461636659865e+000,-1.16829756610935e+000

4.52548339959385e+005,-6.92540823448259e+000,-1.18160302870784e+000

4.58865679365059e+005,-6.92621125752652e+000,-1.19500914525271e+000

4.65271205542494e+005,-6.92702535650311e+000,-1.20851582290989e+000

4.71766149533147e+005,-6.92785044122946e+000,-1.22212298901891e+000

4.78351759563174e+005,-6.92868641038231e+000,-1.23583059423834e+000

4.85029301283321e+005,-6.92953315133037e+000,-1.24963861579593e+000

4.91800058012158e+005,-6.93039053998553e+000,-1.26354706083723e+000

4.98665330982714e+005,-6.93125844067330e+000,-1.27755596987302e+000

5.05626439592555e+005,-6.93213670602414e+000,-1.29166542031397e+000

5.12684721657352e+005,-6.93302517688696e+000,-1.30587553008609e+000

5.19841533667984e+005,-6.93392368226504e+000,-1.32018646132548e+000

5.27098251051240e+005,-6.93483203927556e+000,-1.33459842413942e+000

5.34456268434150e+005,-6.93575005313399e+000,-1.34911168042882e+000

5.41916999912011e+005,-6.93667751716453e+000,-1.36372654775750e+000

