Freq.,VOut,OutRef

1.00000000000000e+004,-1.74064653222080e+001,-2.48733208708744e-001

1.01395947979003e+004,-1.74064661071971e+001,-2.52205362223662e-001

1.02811382665607e+004,-1.74064669142520e+001,-2.55725983807989e-001

1.04246576084112e+004,-1.74064677439931e+001,-2.59295749991161e-001

1.05701804056138e+004,-1.74064685970576e+001,-2.62915346745884e-001

1.07177346253629e+004,-1.74064694741014e+001,-2.66585469615716e-001

1.08673486252606e+004,-1.74064703757982e+001,-2.70306823853178e-001

1.10190511587661e+004,-1.74064713028408e+001,-2.74080124551823e-001

1.11728713807222e+004,-1.74064722559419e+001,-2.77906096784046e-001

1.13288388529580e+004,-1.74064732358335e+001,-2.81785475741601e-001

1.14869835499703e+004,-1.74064742432687e+001,-2.85719006876090e-001

1.16473358646846e+004,-1.74064752790216e+001,-2.89707446041221e-001

1.18099266142953e+004,-1.74064763438877e+001,-2.93751559639928e-001

1.19747870461893e+004,-1.74064774386855e+001,-2.97852124768142e-001

1.21419488439505e+004,-1.74064785642562e+001,-3.02009929366301e-001

1.23114441334492e+004,-1.74064797214643e+001,-3.06225772371970e-001

1.24833054890161e+004,-1.74064809111989e+001,-3.10500463869542e-001

1.26575659397028e+004,-1.74064821343743e+001,-3.14834825247513e-001

1.28342589756290e+004,-1.74064833919301e+001,-3.19229689356748e-001

1.30134185544193e+004,-1.74064846848325e+001,-3.23685900669020e-001

1.31950791077289e+004,-1.74064860140745e+001,-3.28204315440687e-001

1.33792755478611e+004,-1.74064873806776e+001,-3.32785801874319e-001

1.35660432744767e+004,-1.74064887856915e+001,-3.37431240288324e-001

1.37554181813974e+004,-1.74064902301955e+001,-3.42141523283452e-001

1.39474366635040e+004,-1.74064917152991e+001,-3.46917555916142e-001

1.41421356237309e+004,-1.74064932421433e+001,-3.51760255869400e-001

1.43395524801583e+004,-1.74064948119009e+001,-3.56670553631182e-001

1.45397251732031e+004,-1.74064964257777e+001,-3.61649392672073e-001

1.47426921729110e+004,-1.74064980850132e+001,-3.66697729626176e-001

1.49484924863494e+004,-1.74064997908819e+001,-3.71816534475161e-001

1.51571656651040e+004,-1.74065015446941e+001,-3.77006790732242e-001

1.53687518128801e+004,-1.74065033477967e+001,-3.82269495634411e-001

1.55832915932100e+004,-1.74065052015748e+001,-3.87605660329009e-001

1.58008262372675e+004,-1.74065071074516e+001,-3.93016310073685e-001

1.60213975517924e+004,-1.74065090668914e+001,-3.98502484425471e-001

1.62450479271247e+004,-1.74065110813985e+001,-4.04065237446906e-001

1.64718203453514e+004,-1.74065131525202e+001,-4.09705637904046e-001

1.67017583885674e+004,-1.74065152818469e+001,-4.15424769472292e-001

1.69349062472505e+004,-1.74065174710135e+001,-4.21223730945885e-001

1.71713087287550e+004,-1.74065197217014e+001,-4.27103636444530e-001

1.74110112659224e+004,-1.74065220356384e+001,-4.33065615631218e-001

1.76540599258131e+004,-1.74065244146014e+001,-4.39110813926678e-001

1.79005014185594e+004,-1.74065268604169e+001,-4.45240392728030e-001

1.81503831063432e+004,-1.74065293749626e+001,-4.51455529633173e-001

1.84037530124975e+004,-1.74065319601692e+001,-4.57757418664458e-001

1.86606598307361e+004,-1.74065346180212e+001,-4.64147270499899e-001

1.89211529345119e+004,-1.74065373505592e+001,-4.70626312702231e-001

1.91852823865052e+004,-1.74065401598806e+001,-4.77195789956511e-001

1.94530989482457e+004,-1.74065430481419e+001,-4.83856964307246e-001

1.97246540898671e+004,-1.74065460175602e+001,-4.90611115398851e-001

1.99999999999999e+004,-1.74065490704147e+001,-4.97459540724176e-001

2.02791895958005e+004,-1.74065522090483e+001,-5.04403555869724e-001

2.05622765331213e+004,-1.74065554358701e+001,-5.11444494767900e-001

2.08493152168224e+004,-1.74065587533562e+001,-5.18583709954546e-001

2.11403608112276e+004,-1.74065621640528e+001,-5.25822572824707e-001

2.14354692507258e+004,-1.74065656705769e+001,-5.33162473897888e-001

2.17346972505211e+004,-1.74065692756192e+001,-5.40604823082141e-001

2.20381023175322e+004,-1.74065729819459e+001,-5.48151049944559e-001

2.23457427614443e+004,-1.74065767924006e+001,-5.55802603985053e-001

2.26576777059159e+004,-1.74065807099067e+001,-5.63560954913606e-001

2.29739670999406e+004,-1.74065847374696e+001,-5.71427592929769e-001

2.32946717293690e+004,-1.74065888781789e+001,-5.79404029010318e-001

2.36198532285905e+004,-1.74065931352106e+001,-5.87491795196029e-001

2.39495740923785e+004,-1.74065975118302e+001,-5.95692444885019e-001

2.42838976879009e+004,-1.74066020113942e+001,-6.04007553131242e-001

2.46228882668982e+004,-1.74066066373536e+001,-6.12438716942047e-001

2.49666109780322e+004,-1.74066113932558e+001,-6.20987555586642e-001

2.53151318794055e+004,-1.74066162827477e+001,-6.29655710904639e-001

2.56685179512580e+004,-1.74066213095784e+001,-6.38444847618403e-001

2.60268371088386e+004,-1.74066264776020e+001,-6.47356653652727e-001

2.63901582154578e+004,-1.74066317907804e+001,-6.56392840455282e-001

2.67585510957221e+004,-1.74066372531867e+001,-6.65555143325621e-001

2.71320865489533e+004,-1.74066428690080e+001,-6.74845321744250e-001

2.75108363627948e+004,-1.74066486425486e+001,-6.84265159709747e-001

2.78948733270080e+004,-1.74066545782332e+001,-6.93816466079168e-001

2.82842712474618e+004,-1.74066606806106e+001,-7.03501074911504e-001

2.86791049603164e+004,-1.74066669543568e+001,-7.13320845820390e-001

2.90794503464061e+004,-1.74066734042786e+001,-7.23277664325781e-001

2.94853843458219e+004,-1.74066800353175e+001,-7.33373442215453e-001

2.98969849726987e+004,-1.74066868525532e+001,-7.43610117908132e-001

3.03143313302078e+004,-1.74066938612073e+001,-7.53989656824631e-001

3.07375036257601e+004,-1.74067010666479e+001,-7.64514051759582e-001

3.11665831864199e+004,-1.74067084743927e+001,-7.75185323263848e-001

3.16016524745350e+004,-1.74067160901142e+001,-7.86005520027165e-001

3.20427951035848e+004,-1.74067239196432e+001,-7.96976719269299e-001

3.24900958542493e+004,-1.74067319689737e+001,-8.08101027135082e-001

3.29436406907028e+004,-1.74067402442671e+001,-8.19380579095945e-001

3.34035167771346e+004,-1.74067487518569e+001,-8.30817540354573e-001

3.38698124945009e+004,-1.74067574982540e+001,-8.42414106257716e-001

3.43426174575100e+004,-1.74067664901508e+001,-8.54172502713096e-001

3.48220225318448e+004,-1.74067757344268e+001,-8.66094986613294e-001

3.53081198516260e+004,-1.74067852381536e+001,-8.78183846263792e-001

3.58010028371187e+004,-1.74067950086003e+001,-8.90441401817717e-001

3.63007662126863e+004,-1.74068050532389e+001,-9.02870005716851e-001

3.68075060249948e+004,-1.74068153797499e+001,-9.15472043137876e-001

3.73213196614721e+004,-1.74068259960284e+001,-9.28249932443587e-001

3.78423058690237e+004,-1.74068369101894e+001,-9.41206125645373e-001

3.83705647730104e+004,-1.74068481305746e+001,-9.54343108863349e-001

3.89061978964912e+004,-1.74068596657581e+001,-9.67663402801758e-001

3.94493081797342e+004,-1.74068715245532e+001,-9.81169563224202e-001

3.99999999999998e+004,-1.74068837160189e+001,-9.94864181437878e-001

4.05583791916010e+004,-1.74068962494667e+001,-1.00874988478501e+000

4.11245530662425e+004,-1.74069091344674e+001,-1.02282933713978e+000

4.16986304336447e+004,-1.74069223808584e+001,-1.03710523941270e+000

4.22807216224550e+004,-1.74069359987513e+001,-1.05158033005894e+000

4.28709385014515e+004,-1.74069499985389e+001,-1.06625738559995e+000

4.34693945010421e+004,-1.74069643909036e+001,-1.08113922114450e+000

4.40762046350642e+004,-1.74069791868248e+001,-1.09622869092121e+000

4.46914855228886e+004,-1.74069943975874e+001,-1.11152868881887e+000

4.53153554118317e+004,-1.74070100347901e+001,-1.12704214892945e+000

4.59479341998812e+004,-1.74070261103541e+001,-1.14277204610434e+000

4.65893434587380e+004,-1.74070426365320e+001,-1.15872139651194e+000

4.72397064571810e+004,-1.74070596259167e+001,-1.17489325820853e+000

4.78991481847569e+004,-1.74070770914508e+001,-1.19129073171203e+000

4.85677953758016e+004,-1.74070950464365e+001,-1.20791696058595e+000

4.92457765337964e+004,-1.74071135045449e+001,-1.22477513203052e+000

4.99332219560642e+004,-1.74071324798267e+001,-1.24186847748163e+000

5.06302637588109e+004,-1.74071519867220e+001,-1.25920027321772e+000

5.13370359025159e+004,-1.74071720400716e+001,-1.27677384097403e+000

5.20536742176771e+004,-1.74071926551273e+001,-1.29459254856604e+000

5.27803164309155e+004,-1.74072138475635e+001,-1.31265981052206e+000

5.35171021914442e+004,-1.74072356334887e+001,-1.33097908871940e+000

5.42641730979066e+004,-1.74072580294572e+001,-1.34955389303682e+000

5.50216727255895e+004,-1.74072810524815e+001,-1.36838778200686e+000

5.57897466540159e+004,-1.74073047200442e+001,-1.38748436348378e+000

5.65685424949235e+004,-1.74073290501115e+001,-1.40684729531638e+000

5.73582099206328e+004,-1.74073540611460e+001,-1.42648028602984e+000

5.81589006928121e+004,-1.74073797721201e+001,-1.44638709551891e+000

5.89707686916437e+004,-1.74074062025296e+001,-1.46657153574734e+000

5.97939699453972e+004,-1.74074333724086e+001,-1.48703747145814e+000

6.06286626604156e+004,-1.74074613023434e+001,-1.50778882089150e+000

6.14750072515201e+004,-1.74074900134876e+001,-1.52882955651441e+000

6.23331663728396e+004,-1.74075195275775e+001,-1.55016370575725e+000

6.32033049490698e+004,-1.74075498669479e+001,-1.57179535176079e+000

6.40855902071694e+004,-1.74075810545476e+001,-1.59372863413411e+000

6.49801917084985e+004,-1.74076131139570e+001,-1.61596774971984e+000

6.58872813814055e+004,-1.74076460694039e+001,-1.63851695337115e+000

6.68070335542691e+004,-1.74076799457819e+001,-1.66138055873769e+000

6.77396249890018e+004,-1.74077147686671e+001,-1.68456293906225e+000

6.86852349150199e+004,-1.74077505643377e+001,-1.70806852798637e+000

6.96440450636895e+004,-1.74077873597917e+001,-1.73190182036810e+000

7.06162397032520e+004,-1.74078251827664e+001,-1.75606737310816e+000

7.16020056742374e+004,-1.74078640617583e+001,-1.78056980598777e+000

7.26015324253724e+004,-1.74079040260431e+001,-1.80541380251694e+000

7.36150120499896e+004,-1.74079451056964e+001,-1.83060411079298e+000

7.46426393229441e+004,-1.74079873316151e+001,-1.85614554436881e+000

7.56846117380472e+004,-1.74080307355387e+001,-1.88204298313594e+000

7.67411295460207e+004,-1.74080753500721e+001,-1.90830137421326e+000

7.78123957929823e+004,-1.74081212087080e+001,-1.93492573285110e+000

7.88986163594682e+004,-1.74081683458506e+001,-1.96192114334390e+000

7.99999999999995e+004,-1.74082167968394e+001,-1.98929275995508e+000

8.11167583832018e+004,-1.74082665979735e+001,-2.01704580785519e+000

8.22491061324848e+004,-1.74083177865372e+001,-2.04518558406718e+000

8.33972608672892e+004,-1.74083704008255e+001,-2.07371745842726e+000

8.45614432449099e+004,-1.74084244801703e+001,-2.10264687455654e+000

8.57418770029029e+004,-1.74084800649677e+001,-2.13197935084301e+000

8.69387890020841e+004,-1.74085371967053e+001,-2.16172048143696e+000

8.81524092701283e+004,-1.74085959179908e+001,-2.19187593725807e+000

8.93829710457770e+004,-1.74086562725808e+001,-2.22245146701389e+000

9.06307108236633e+004,-1.74087183054101e+001,-2.25345289823311e+000

9.18958683997622e+004,-1.74087820626227e+001,-2.28488613830681e+000

9.31786869174758e+004,-1.74088475916022e+001,-2.31675717554581e+000

9.44794129143618e+004,-1.74089149410039e+001,-2.34907208025026e+000

9.57982963695136e+004,-1.74089841607869e+001,-2.38183700578968e+000

9.71355907516031e+004,-1.74090553022477e+001,-2.41505818969763e+000

9.84915530675926e+004,-1.74091284180540e+001,-2.44874195477878e+000

9.98664439121282e+004,-1.74092035622790e+001,-2.48289471022924e+000

1.01260527517622e+005,-1.74092807904377e+001,-2.51752295276870e+000

1.02674071805032e+005,-1.74093601595223e+001,-2.55263326778821e+000

1.04107348435354e+005,-1.74094417280397e+001,-2.58823233050764e+000

1.05560632861831e+005,-1.74095255560494e+001,-2.62432690715055e+000

1.07034204382888e+005,-1.74096117052021e+001,-2.66092385612907e+000

1.08528346195813e+005,-1.74097002387790e+001,-2.69803012924498e+000

1.10043345451179e+005,-1.74097912217327e+001,-2.73565277290241e+000

1.11579493308032e+005,-1.74098847207276e+001,-2.77379892933539e+000

1.13137084989847e+005,-1.74099808041827e+001,-2.81247583784957e+000

1.14716419841265e+005,-1.74100795423143e+001,-2.85169083607708e+000

1.16317801385624e+005,-1.74101810071794e+001,-2.89145136124587e+000

1.17941537383287e+005,-1.74102852727212e+001,-2.93176495146319e+000

1.19587939890794e+005,-1.74103924148141e+001,-2.97263924701328e+000

1.21257325320831e+005,-1.74105025113100e+001,-3.01408199166987e+000

1.22950014503040e+005,-1.74106156420868e+001,-3.05610103402224e+000

1.24666332745679e+005,-1.74107318890954e+001,-3.09870432881706e+000

1.26406609898139e+005,-1.74108513364098e+001,-3.14189993831402e+000

1.28171180414339e+005,-1.74109740702773e+001,-3.18569603365625e+000

1.29960383416997e+005,-1.74111001791692e+001,-3.23010089625679e+000

1.31774562762811e+005,-1.74112297538332e+001,-3.27512291919856e+000

1.33614067108538e+005,-1.74113628873463e+001,-3.32077060865046e+000

1.35479249978003e+005,-1.74114996751690e+001,-3.36705258529826e+000

1.37370469830040e+005,-1.74116402152000e+001,-3.41397758579161e+000

1.39288090127379e+005,-1.74117846078322e+001,-3.46155446420539e+000

1.41232479406504e+005,-1.74119329560097e+001,-3.50979219351757e+000

1.43204011348474e+005,-1.74120853652852e+001,-3.55869986710317e+000

1.45203064850745e+005,-1.74122419438794e+001,-3.60828670024179e+000

1.47230024099979e+005,-1.74124028027401e+001,-3.65856203164504e+000

1.49285278645888e+005,-1.74125680556036e+001,-3.70953532499655e+000

1.51369223476094e+005,-1.74127378190554e+001,-3.76121617051055e+000

1.53482259092041e+005,-1.74129122125939e+001,-3.81361428650559e+000

1.55624791585964e+005,-1.74130913586931e+001,-3.86673952099613e+000

1.57797232718936e+005,-1.74132753828673e+001,-3.92060185329980e+000

1.59999999999999e+005,-1.74134644137370e+001,-3.97521139566244e+000

1.62233516766403e+005,-1.74136585830943e+001,-4.03057839490052e+000

1.64498212264969e+005,-1.74138580259711e+001,-4.08671323405977e+000

1.66794521734578e+005,-1.74140628807067e+001,-4.14362643409310e+000

1.69122886489819e+005,-1.74142732890169e+001,-4.20132865555498e+000

1.71483754005805e+005,-1.74144893960642e+001,-4.25983070031529e+000

1.73877578004168e+005,-1.74147113505282e+001,-4.31914351328956e+000

1.76304818540256e+005,-1.74149393046778e+001,-4.37927818419009e+000

1.78765942091554e+005,-1.74151734144433e+001,-4.44024594929401e+000

1.81261421647326e+005,-1.74154138394897e+001,-4.50205819323257e+000

1.83791736799524e+005,-1.74156607432910e+001,-4.56472645079776e+000

1.86357373834951e+005,-1.74159142932052e+001,-4.62826240877053e+000

1.88958825828723e+005,-1.74161746605499e+001,-4.69267790776841e+000

1.91596592739027e+005,-1.74164420206787e+001,-4.75798494411398e+000

1.94271181503206e+005,-1.74167165530585e+001,-4.82419567172441e+000

1.96983106135185e+005,-1.74169984413475e+001,-4.89132240402268e+000

1.99732887824256e+005,-1.74172878734736e+001,-4.95937761586964e+000

2.02521055035243e+005,-1.74175850417138e+001,-5.02837394552063e+000

2.05348143610063e+005,-1.74178901427745e+001,-5.09832419660225e+000

2.08214696870707e+005,-1.74182033778716e+001,-5.16924134011519e+000

2.11121265723661e+005,-1.74185249528120e+001,-5.24113851645889e+000

2.14068408765776e+005,-1.74188550780756e+001,-5.31402903748344e+000

2.17056692391625e+005,-1.74191939688976e+001,-5.38792638856353e+000

2.20086690902357e+005,-1.74195418453514e+001,-5.46284423070150e+000

2.23158986616063e+005,-1.74198989324325e+001,-5.53879640265461e+000

2.26274169979693e+005,-1.74202654601426e+001,-5.61579692309191e+000

2.29432839682530e+005,-1.74206416635741e+001,-5.69385999277712e+000

2.32635602771247e+005,-1.74210277829960e+001,-5.77299999678258e+000

2.35883074766574e+005,-1.74214240639387e+001,-5.85323150673225e+000

2.39175879781588e+005,-1.74218307572814e+001,-5.93456928307495e+000

2.42514650641661e+005,-1.74222481193385e+001,-6.01702827739090e+000

2.45900029006080e+005,-1.74226764119469e+001,-6.10062363473008e+000

2.49332665491357e+005,-1.74231159025547e+001,-6.18537069598410e+000

2.52813219796278e+005,-1.74235668643094e+001,-6.27128500029482e+000

2.56342360828676e+005,-1.74240295761473e+001,-6.35838228749690e+000

2.59920766833993e+005,-1.74245043228834e+001,-6.44667850059939e+000

2.63549125525621e+005,-1.74249913953025e+001,-6.53618978830465e+000

2.67228134217075e+005,-1.74254910902501e+001,-6.62693250756811e+000

2.70958499956006e+005,-1.74260037107250e+001,-6.71892322619857e+000

2.74740939660078e+005,-1.74265295659722e+001,-6.81217872550090e+000

2.78576180254757e+005,-1.74270689715775e+001,-6.90671600296342e+000

2.82464958813007e+005,-1.74276222495622e+001,-7.00255227498954e+000

2.86408022696948e+005,-1.74281897284797e+001,-7.09970497967743e+000

2.90406129701488e+005,-1.74287717435133e+001,-7.19819177964735e+000

2.94460048199957e+005,-1.74293686365749e+001,-7.29803056491873e+000

2.98570557291775e+005,-1.74299807564062e+001,-7.39923945583944e+000

3.02738446952187e+005,-1.74306084586804e+001,-7.50183680606803e+000

3.06964518184081e+005,-1.74312521061072e+001,-7.60584120560996e+000

3.11249583171928e+005,-1.74319120685386e+001,-7.71127148391141e+000

3.15594465437872e+005,-1.74325887230781e+001,-7.81814671300969e+000

3.19999999999997e+005,-1.74332824541915e+001,-7.92648621074496e+000

3.24467033532806e+005,-1.74339936538214e+001,-8.03630954403220e+000

3.28996424529938e+005,-1.74347227215040e+001,-8.14763653219630e+000

3.33589043469155e+005,-1.74354700644900e+001,-8.26048725037222e+000

3.38245772979638e+005,-1.74362360978684e+001,-8.37488203297092e+000

3.42967508011610e+005,-1.74370212446950e+001,-8.49084147721319e+000

3.47755156008335e+005,-1.74378259361250e+001,-8.60838644673314e+000

3.52609637080511e+005,-1.74386506115504e+001,-8.72753807525157e+000

3.57531884183106e+005,-1.74394957187427e+001,-8.84831777032283e+000

3.62522843294651e+005,-1.74403617140008e+001,-8.97074721715388e+000

3.67583473599047e+005,-1.74412490623060e+001,-9.09484838249841e+000

3.72714747669902e+005,-1.74421582374821e+001,-9.22064351862761e+000

3.77917651657445e+005,-1.74430897223639e+001,-9.34815516737647e+000

3.83193185478053e+005,-1.74440440089728e+001,-9.47740616426850e+000

3.88542363006410e+005,-1.74450215987004e+001,-9.60841964271901e+000

3.93966212270369e+005,-1.74460230025008e+001,-9.74121903831709e+000

3.99465775648511e+005,-1.74470487410933e+001,-9.87582809318663e+000

4.05042110070485e+005,-1.74480993451735e+001,-1.00122708604280e+001

4.10696287220124e+005,-1.74491753556362e+001,-1.01505717086381e+001

4.16429393741414e+005,-1.74502773238093e+001,-1.02907553265106e+001

4.22242531447321e+005,-1.74514058116994e+001,-1.04328467275150e+001

4.28136817531551e+005,-1.74525613922509e+001,-1.05768712546538e+001

4.34113384783250e+005,-1.74537446496176e+001,-1.07228545852961e+001

4.40173381804713e+005,-1.74549561794490e+001,-1.08708227360896e+001

4.46317973232124e+005,-1.74561965891915e+001,-1.10208020679442e+001

4.52548339959385e+005,-1.74574664984054e+001,-1.11728192910899e+001

4.58865679365059e+005,-1.74587665390977e+001,-1.13269014702054e+001

4.65271205542494e+005,-1.74600973560731e+001,-1.14830760296133e+001

4.71766149533147e+005,-1.74614596073022e+001,-1.16413707585421e+001

4.78351759563174e+005,-1.74628539643089e+001,-1.18018138164486e+001

4.85029301283321e+005,-1.74642811125771e+001,-1.19644337384003e+001

4.91800058012158e+005,-1.74657417519778e+001,-1.21292594405110e+001

4.98665330982714e+005,-1.74672365972170e+001,-1.22963202254277e+001

5.05626439592555e+005,-1.74687663783057e+001,-1.24656457878626e+001

5.12684721657352e+005,-1.74703318410523e+001,-1.26372662201655e+001

5.19841533667984e+005,-1.74719337475776e+001,-1.28112120179325e+001

5.27098251051240e+005,-1.74735728768542e+001,-1.29875140856435e+001

5.34456268434150e+005,-1.74752500252702e+001,-1.31662037423223e+001

5.41916999912011e+005,-1.74769660072175e+001,-1.33473127272149e+001

