Freq.,VOut,OutRef

1.00000000000000e+004,-1.99440173264831e+001,-3.15138810264496e-001

1.01395947979003e+004,-1.99440187718972e+001,-3.19537931791075e-001

1.02811382665607e+004,-1.99440202579428e+001,-3.23998460543356e-001

1.04246576084112e+004,-1.99440217857619e+001,-3.28521253641144e-001

1.05701804056138e+004,-1.99440233565287e+001,-3.33107180163316e-001

1.07177346253629e+004,-1.99440249714503e+001,-3.37757121317238e-001

1.08673486252606e+004,-1.99440266317678e+001,-3.42471970606586e-001

1.10190511587661e+004,-1.99440283387570e+001,-3.47252634004888e-001

1.11728713807222e+004,-1.99440300937297e+001,-3.52100030125787e-001

1.13288388529580e+004,-1.99440318980346e+001,-3.57015090402650e-001

1.14869835499703e+004,-1.99440337530583e+001,-3.61998759265640e-001

1.16473358646846e+004,-1.99440356602261e+001,-3.67051994324129e-001

1.18099266142953e+004,-1.99440376210037e+001,-3.72175766547480e-001

1.19747870461893e+004,-1.99440396368977e+001,-3.77371060456117e-001

1.21419488439505e+004,-1.99440417094572e+001,-3.82638874305906e-001

1.23114441334492e+004,-1.99440438402748e+001,-3.87980220282184e-001

1.24833054890161e+004,-1.99440460309877e+001,-3.93396124693786e-001

1.26575659397028e+004,-1.99440482832794e+001,-3.98887628168285e-001

1.28342589756290e+004,-1.99440505988803e+001,-4.04455785854454e-001

1.30134185544193e+004,-1.99440529795699e+001,-4.10101667620034e-001

1.31950791077289e+004,-1.99440554271770e+001,-4.15826358263258e-001

1.33792755478611e+004,-1.99440579435826e+001,-4.21630957714581e-001

1.35660432744767e+004,-1.99440605307199e+001,-4.27516581252363e-001

1.37554181813974e+004,-1.99440631905768e+001,-4.33484359713333e-001

1.39474366635040e+004,-1.99440659251967e+001,-4.39535439712805e-001

1.41421356237309e+004,-1.99440687366808e+001,-4.45670983860754e-001

1.43395524801583e+004,-1.99440716271888e+001,-4.51892170987535e-001

1.45397251732031e+004,-1.99440745989417e+001,-4.58200196368717e-001

1.47426921729110e+004,-1.99440776542223e+001,-4.64596271955303e-001

1.49484924863494e+004,-1.99440807953779e+001,-4.71081626604000e-001

1.51571656651040e+004,-1.99440840248215e+001,-4.77657506313893e-001

1.53687518128801e+004,-1.99440873450341e+001,-4.84325174466621e-001

1.55832915932100e+004,-1.99440907585661e+001,-4.91085912066174e-001

1.58008262372675e+004,-1.99440942680398e+001,-4.97941017984436e-001

1.60213975517924e+004,-1.99440978761510e+001,-5.04891809212906e-001

1.62450479271247e+004,-1.99441015856711e+001,-5.11939621112942e-001

1.64718203453514e+004,-1.99441053994497e+001,-5.19085807668898e-001

1.67017583885674e+004,-1.99441093204159e+001,-5.26331741754320e-001

1.69349062472505e+004,-1.99441133515814e+001,-5.33678815387913e-001

1.71713087287550e+004,-1.99441174960425e+001,-5.41128440004277e-001

1.74110112659224e+004,-1.99441217569822e+001,-5.48682046722960e-001

1.76540599258131e+004,-1.99441261376730e+001,-5.56341086622270e-001

1.79005014185594e+004,-1.99441306414794e+001,-5.64107031018294e-001

1.81503831063432e+004,-1.99441352718600e+001,-5.71981371745026e-001

1.84037530124975e+004,-1.99441400323709e+001,-5.79965621439995e-001

1.86606598307361e+004,-1.99441449266679e+001,-5.88061313835442e-001

1.89211529345119e+004,-1.99441499585092e+001,-5.96270004050524e-001

1.91852823865052e+004,-1.99441551317589e+001,-6.04593268888869e-001

1.94530989482457e+004,-1.99441604503890e+001,-6.13032707141327e-001

1.97246540898671e+004,-1.99441659184837e+001,-6.21589939889864e-001

1.99999999999999e+004,-1.99441715402413e+001,-6.30266610819737e-001

2.02791895958005e+004,-1.99441773199781e+001,-6.39064386533490e-001

2.05622765331213e+004,-1.99441832621314e+001,-6.47984956867923e-001

2.08493152168224e+004,-1.99441893712633e+001,-6.57030035218948e-001

2.11403608112276e+004,-1.99441956520636e+001,-6.66201358869746e-001

2.14354692507258e+004,-1.99442021093540e+001,-6.75500689319632e-001

2.17346972505211e+004,-1.99442087480913e+001,-6.84929812625418e-001

2.20381023175322e+004,-1.99442155733714e+001,-6.94490539737637e-001

2.23457427614443e+004,-1.99442225904331e+001,-7.04184706851425e-001

2.26576777059159e+004,-1.99442298046624e+001,-7.14014175753510e-001

2.29739670999406e+004,-1.99442372215961e+001,-7.23980834179275e-001

2.32946717293690e+004,-1.99442448469264e+001,-7.34086596174574e-001

2.36198532285905e+004,-1.99442526865054e+001,-7.44333402458087e-001

2.39495740923785e+004,-1.99442607463489e+001,-7.54723220795074e-001

2.42838976879009e+004,-1.99442690326418e+001,-7.65258046370285e-001

2.46228882668982e+004,-1.99442775517422e+001,-7.75939902170705e-001

2.49666109780322e+004,-1.99442863101866e+001,-7.86770839370528e-001

2.53151318794055e+004,-1.99442953146948e+001,-7.97752937722463e-001

2.56685179512580e+004,-1.99443045721747e+001,-8.08888305954806e-001

2.60268371088386e+004,-1.99443140897283e+001,-8.20179082172009e-001

2.63901582154578e+004,-1.99443238746564e+001,-8.31627434265725e-001

2.67585510957221e+004,-1.99443339344646e+001,-8.43235560323094e-001

2.71320865489533e+004,-1.99443442768687e+001,-8.55005689049876e-001

2.75108363627948e+004,-1.99443549098007e+001,-8.66940080193003e-001

2.78948733270080e+004,-1.99443658414152e+001,-8.79041024971066e-001

2.82842712474618e+004,-1.99443770800950e+001,-8.91310846510286e-001

2.86791049603164e+004,-1.99443886344579e+001,-9.03751900288002e-001

2.90794503464061e+004,-1.99444005133629e+001,-9.16366574579600e-001

2.94853843458219e+004,-1.99444127259174e+001,-9.29157290913458e-001

2.98969849726987e+004,-1.99444252814840e+001,-9.42126504530886e-001

3.03143313302078e+004,-1.99444381896870e+001,-9.55276704854940e-001

3.07375036257601e+004,-1.99444514604208e+001,-9.68610415960195e-001

3.11665831864199e+004,-1.99444651038564e+001,-9.82130197056186e-001

3.16016524745350e+004,-1.99444791304498e+001,-9.95838642969890e-001

3.20427951035848e+004,-1.99444935509496e+001,-1.00973838464223e+000

3.24900958542493e+004,-1.99445083764054e+001,-1.02383208962327e+000

3.29436406907028e+004,-1.99445236181758e+001,-1.03812246258302e+000

3.34035167771346e+004,-1.99445392879374e+001,-1.05261224582120e+000

3.38698124945009e+004,-1.99445553976935e+001,-1.06730421978784e+000

3.43426174575100e+004,-1.99445719597832e+001,-1.08220120361210e+000

3.48220225318448e+004,-1.99445889868907e+001,-1.09730605563407e+000

3.53081198516260e+004,-1.99446064920549e+001,-1.11262167394864e+000

3.58010028371187e+004,-1.99446244886795e+001,-1.12815099695128e+000

3.63007662126863e+004,-1.99446429905428e+001,-1.14389700389774e+000

3.68075060249948e+004,-1.99446620118084e+001,-1.15986271546399e+000

3.73213196614721e+004,-1.99446815670357e+001,-1.17605119432091e+000

3.78423058690237e+004,-1.99447016711909e+001,-1.19246554571015e+000

3.83705647730104e+004,-1.99447223396586e+001,-1.20910891803330e+000

3.89061978964912e+004,-1.99447435882530e+001,-1.22598450344470e+000

3.94493081797342e+004,-1.99447654332303e+001,-1.24309553845424e+000

3.99999999999998e+004,-1.99447878913002e+001,-1.26044530453896e+000

4.05583791916010e+004,-1.99448109796394e+001,-1.27803712876127e+000

4.11245530662425e+004,-1.99448347159039e+001,-1.29587438439494e+000

4.16986304336447e+004,-1.99448591182426e+001,-1.31396049156197e+000

4.22807216224550e+004,-1.99448842053108e+001,-1.33229891787565e+000

4.28709385014515e+004,-1.99449099962843e+001,-1.35089317909308e+000

4.34693945010421e+004,-1.99449365108737e+001,-1.36974683977649e+000

4.40762046350642e+004,-1.99449637693394e+001,-1.38886351396236e+000

4.46914855228886e+004,-1.99449917925064e+001,-1.40824686584129e+000

4.53153554118317e+004,-1.99450206017807e+001,-1.42790061044472e+000

4.59479341998812e+004,-1.99450502191642e+001,-1.44782851434277e+000

4.65893434587380e+004,-1.99450806672724e+001,-1.46803439634819e+000

4.72397064571810e+004,-1.99451119693504e+001,-1.48852212823418e+000

4.78991481847569e+004,-1.99451441492906e+001,-1.50929563545744e+000

4.85677953758016e+004,-1.99451772316506e+001,-1.53035889789326e+000

4.92457765337964e+004,-1.99452112416714e+001,-1.55171595057871e+000

4.99332219560642e+004,-1.99452462052967e+001,-1.57337088446568e+000

5.06302637588109e+004,-1.99452821491913e+001,-1.59532784718603e+000

5.13370359025159e+004,-1.99453191007618e+001,-1.61759104382394e+000

5.20536742176771e+004,-1.99453570881766e+001,-1.64016473769851e+000

5.27803164309155e+004,-1.99453961403870e+001,-1.66305325115853e+000

5.35171021914442e+004,-1.99454362871484e+001,-1.68626096638650e+000

5.42641730979066e+004,-1.99454775590428e+001,-1.70979232621128e+000

5.50216727255895e+004,-1.99455199875013e+001,-1.73365183493453e+000

5.57897466540159e+004,-1.99455636048268e+001,-1.75784405916604e+000

5.65685424949235e+004,-1.99456084442192e+001,-1.78237362866817e+000

5.73582099206328e+004,-1.99456545397984e+001,-1.80724523721513e+000

5.81589006928121e+004,-1.99457019266307e+001,-1.83246364345855e+000

5.89707686916437e+004,-1.99457506407537e+001,-1.85803367180891e+000

5.97939699453972e+004,-1.99458007192037e+001,-1.88396021332346e+000

6.06286626604156e+004,-1.99458522000423e+001,-1.91024822660909e+000

6.14750072515201e+004,-1.99459051223845e+001,-1.93690273873543e+000

6.23331663728396e+004,-1.99459595264275e+001,-1.96392884615762e+000

6.32033049490698e+004,-1.99460154534802e+001,-1.99133171565469e+000

6.40855902071694e+004,-1.99460729459932e+001,-2.01911658527519e+000

6.49801917084985e+004,-1.99461320475898e+001,-2.04728876529821e+000

6.58872813814055e+004,-1.99461928030981e+001,-2.07585363920477e+000

6.68070335542691e+004,-1.99462552585834e+001,-2.10481666466132e+000

6.77396249890018e+004,-1.99463194613819e+001,-2.13418337451594e+000

6.86852349150199e+004,-1.99463854601349e+001,-2.16395937780604e+000

6.96440450636895e+004,-1.99464533048240e+001,-2.19415036078018e+000

7.06162397032520e+004,-1.99465230468075e+001,-2.22476208793031e+000

7.16020056742374e+004,-1.99465947388576e+001,-2.25580040303757e+000

7.26015324253724e+004,-1.99466684351978e+001,-2.28727123023207e+000

7.36150120499896e+004,-1.99467441915430e+001,-2.31918057506288e+000

7.46426393229441e+004,-1.99468220651387e+001,-2.35153452558311e+000

7.56846117380472e+004,-1.99469021148023e+001,-2.38433925344820e+000

7.67411295460207e+004,-1.99469844009654e+001,-2.41760101502534e+000

7.78123957929823e+004,-1.99470689857169e+001,-2.45132615251810e+000

7.88986163594682e+004,-1.99471559328470e+001,-2.48552109510370e+000

7.99999999999995e+004,-1.99472453078932e+001,-2.52019236008419e+000

8.11167583832018e+004,-1.99473371781864e+001,-2.55534655405022e+000

8.22491061324848e+004,-1.99474316128985e+001,-2.59099037405968e+000

8.33972608672892e+004,-1.99475286830918e+001,-2.62713060882966e+000

8.45614432449099e+004,-1.99476284617689e+001,-2.66377413994199e+000

8.57418770029029e+004,-1.99477310239240e+001,-2.70092794306274e+000

8.69387890020841e+004,-1.99478364465955e+001,-2.73859908917713e+000

8.81524092701283e+004,-1.99479448089204e+001,-2.77679474583611e+000

8.93829710457770e+004,-1.99480561921889e+001,-2.81552217841965e+000

9.06307108236633e+004,-1.99481706799017e+001,-2.85478875141310e+000

9.18958683997622e+004,-1.99482883578277e+001,-2.89460192969783e+000

9.31786869174758e+004,-1.99484093140634e+001,-2.93496927985690e+000

9.44794129143618e+004,-1.99485336390938e+001,-2.97589847149530e+000

9.57982963695136e+004,-1.99486614258552e+001,-3.01739727857453e+000

9.71355907516031e+004,-1.99487927697981e+001,-3.05947358076185e+000

9.84915530675926e+004,-1.99489277689537e+001,-3.10213536479456e+000

9.98664439121282e+004,-1.99490665239998e+001,-3.14539072585997e+000

1.01260527517622e+005,-1.99492091383299e+001,-3.18924786898829e+000

1.02674071805032e+005,-1.99493557181235e+001,-3.23371511046211e+000

1.04107348435354e+005,-1.99495063724173e+001,-3.27880087924056e+000

1.05560632861831e+005,-1.99496612131788e+001,-3.32451371839941e+000

1.07034204382888e+005,-1.99498203553820e+001,-3.37086228658374e+000

1.08528346195813e+005,-1.99499839170835e+001,-3.41785535947944e+000

1.10043345451179e+005,-1.99501520195017e+001,-3.46550183129667e+000

1.11579493308032e+005,-1.99503247870971e+001,-3.51381071627173e+000

1.13137084989847e+005,-1.99505023476544e+001,-3.56279115018156e+000

1.14716419841265e+005,-1.99506848323670e+001,-3.61245239187513e+000

1.16317801385624e+005,-1.99508723759227e+001,-3.66280382482050e+000

1.17941537383287e+005,-1.99510651165916e+001,-3.71385495866674e+000

1.19587939890794e+005,-1.99512631963163e+001,-3.76561543082123e+000

1.21257325320831e+005,-1.99514667608036e+001,-3.81809500804371e+000

1.22950014503040e+005,-1.99516759596180e+001,-3.87130358805415e+000

1.24666332745679e+005,-1.99518909462783e+001,-3.92525120115827e+000

1.26406609898139e+005,-1.99521118783548e+001,-3.97994801188670e+000

1.28171180414339e+005,-1.99523389175700e+001,-4.03540432065162e+000

1.29960383416997e+005,-1.99525722299003e+001,-4.09163056541838e+000

1.31774562762811e+005,-1.99528119856803e+001,-4.14863732339193e+000

1.33614067108538e+005,-1.99530583597098e+001,-4.20643531272113e+000

1.35479249978003e+005,-1.99533115313618e+001,-4.26503539421611e+000

1.37370469830040e+005,-1.99535716846939e+001,-4.32444857308478e+000

1.39288090127379e+005,-1.99538390085612e+001,-4.38468600068161e+000

1.41232479406504e+005,-1.99541136967318e+001,-4.44575897627485e+000

1.43204011348474e+005,-1.99543959480045e+001,-4.50767894882874e+000

1.45203064850745e+005,-1.99546859663290e+001,-4.57045751880083e+000

1.47230024099979e+005,-1.99549839609282e+001,-4.63410643995666e+000

1.49285278645888e+005,-1.99552901464230e+001,-4.69863762119960e+000

1.51369223476094e+005,-1.99556047429593e+001,-4.76406312841629e+000

1.53482259092041e+005,-1.99559279763380e+001,-4.83039518633847e+000

1.55624791585964e+005,-1.99562600781467e+001,-4.89764618042110e+000

1.57797232718936e+005,-1.99566012858940e+001,-4.96582865873635e+000

1.59999999999999e+005,-1.99569518431471e+001,-5.03495533388315e+000

1.62233516766403e+005,-1.99573119996706e+001,-5.10503908491354e+000

1.64498212264969e+005,-1.99576820115685e+001,-5.17609295927557e+000

1.66794521734578e+005,-1.99580621414290e+001,-5.24813017477076e+000

1.69122886489819e+005,-1.99584526584713e+001,-5.32116412153016e+000

1.71483754005805e+005,-1.99588538386952e+001,-5.39520836400527e+000

1.73877578004168e+005,-1.99592659650330e+001,-5.47027664297636e+000

1.76304818540256e+005,-1.99596893275044e+001,-5.54638287757666e+000

1.78765942091554e+005,-1.99601242233739e+001,-5.62354116733369e+000

1.81261421647326e+005,-1.99605709573101e+001,-5.70176579422810e+000

1.83791736799524e+005,-1.99610298415491e+001,-5.78107122476843e+000

1.86357373834951e+005,-1.99615011960587e+001,-5.86147211208363e+000

1.88958825828723e+005,-1.99619853487066e+001,-5.94298329803350e+000

1.91596592739027e+005,-1.99624826354310e+001,-6.02561981533540e+000

1.94271181503206e+005,-1.99629934004130e+001,-6.10939688971053e+000

1.96983106135185e+005,-1.99635179962530e+001,-6.19432994204634e+000

1.99732887824256e+005,-1.99640567841484e+001,-6.28043459057932e+000

2.02521055035243e+005,-1.99646101340755e+001,-6.36772665309477e+000

2.05348143610063e+005,-1.99651784249725e+001,-6.45622214914608e+000

2.08214696870707e+005,-1.99657620449263e+001,-6.54593730229443e+000

2.11121265723661e+005,-1.99663613913617e+001,-6.63688854236608e+000

2.14068408765776e+005,-1.99669768712335e+001,-6.72909250773167e+000

2.17056692391625e+005,-1.99676089012209e+001,-6.82256604760516e+000

2.20086690902357e+005,-1.99682579079252e+001,-6.91732622436403e+000

2.23158986616063e+005,-1.99689243280702e+001,-7.01339031589107e+000

2.26274169979693e+005,-1.99696086087049e+001,-7.11077581793805e+000

2.29432839682530e+005,-1.99703112074102e+001,-7.20950044651287e+000

2.32635602771247e+005,-1.99710325925071e+001,-7.30958214028886e+000

2.35883074766574e+005,-1.99717732432690e+001,-7.41103906303904e+000

2.39175879781588e+005,-1.99725336501365e+001,-7.51388960609459e+000

2.42514650641661e+005,-1.99733143149349e+001,-7.61815239082938e+000

2.45900029006080e+005,-1.99741157510957e+001,-7.72384627116949e+000

2.49332665491357e+005,-1.99749384838801e+001,-7.83099033613143e+000

2.52813219796278e+005,-1.99757830506070e+001,-7.93960391238722e+000

2.56342360828676e+005,-1.99766500008831e+001,-8.04970656685806e+000

2.59920766833993e+005,-1.99775398968374e+001,-8.16131810933922e+000

2.63549125525621e+005,-1.99784533133585e+001,-8.27445859515416e+000

2.67228134217075e+005,-1.99793908383361e+001,-8.38914832784138e+000

2.70958499956006e+005,-1.99803530729056e+001,-8.50540786187395e+000

2.74740939660078e+005,-1.99813406316972e+001,-8.62325800541268e+000

2.78576180254757e+005,-1.99823541430886e+001,-8.74271982309498e+000

2.82464958813007e+005,-1.99833942494626e+001,-8.86381463885934e+000

2.86408022696948e+005,-1.99844616074678e+001,-8.98656403880751e+000

2.90406129701488e+005,-1.99855568882857e+001,-9.11098987410543e+000

2.94460048199957e+005,-1.99866807779008e+001,-9.23711426392366e+000

2.98570557291775e+005,-1.99878339773770e+001,-9.36495959841904e+000

3.02738446952187e+005,-1.99890172031390e+001,-9.49454854175829e+000

3.06964518184081e+005,-1.99902311872592e+001,-9.62590403518528e+000

3.11249583171928e+005,-1.99914766777504e+001,-9.75904930013299e+000

3.15594465437872e+005,-1.99927544388653e+001,-9.89400784138091e+000

3.19999999999997e+005,-1.99940652514020e+001,-1.00308034502595e+001

3.24467033532806e+005,-1.99954099130166e+001,-1.01694602079030e+001

3.28996424529938e+005,-1.99967892385438e+001,-1.03100024885504e+001

3.33589043469155e+005,-1.99982040603242e+001,-1.04524549628975e+001

3.38245772979638e+005,-1.99996552285411e+001,-1.05968426014988e+001

3.42967508011610e+005,-2.00011436115653e+001,-1.07431906782220e+001

3.47755156008335e+005,-2.00026700963091e+001,-1.08915247737542e+001

3.52609637080511e+005,-2.00042355885912e+001,-1.10418707791615e+001

3.57531884183106e+005,-2.00058410135104e+001,-1.11942548995008e+001

3.62522843294651e+005,-2.00074873158318e+001,-1.13487036574876e+001

3.67583473599047e+005,-2.00091754603841e+001,-1.15052438972144e+001

3.72714747669902e+005,-2.00109064324687e+001,-1.16639027879255e+001

3.77917651657445e+005,-2.00126812382831e+001,-1.18247078278429e+001

3.83193185478053e+005,-2.00145009053566e+001,-1.19876868480461e+001

3.88542363006410e+005,-2.00163664830018e+001,-1.21528680164034e+001

3.93966212270369e+005,-2.00182790427806e+001,-1.23202798415543e+001

3.99465775648511e+005,-2.00202396789868e+001,-1.24899511769402e+001

4.05042110070485e+005,-2.00222495091448e+001,-1.26619112248843e+001

4.10696287220124e+005,-2.00243096745274e+001,-1.28361895407157e+001

4.16429393741414e+005,-2.00264213406913e+001,-1.30128160369379e+001

4.22242531447321e+005,-2.00285856980321e+001,-1.31918209874369e+001

4.28136817531551e+005,-2.00308039623606e+001,-1.33732350317261e+001

4.34113384783250e+005,-2.00330773754994e+001,-1.35570891792264e+001

4.40173381804713e+005,-2.00354072059028e+001,-1.37434148135732e+001

4.46317973232124e+005,-2.00377947492992e+001,-1.39322436969509e+001

4.52548339959385e+005,-2.00402413293579e+001,-1.41236079744456e+001

4.58865679365059e+005,-2.00427482983813e+001,-1.43175401784121e+001

4.65271205542494e+005,-2.00453170380224e+001,-1.45140732328501e+001

4.71766149533147e+005,-2.00479489600299e+001,-1.47132404577813e+001

4.78351759563174e+005,-2.00506455070207e+001,-1.49150755736206e+001

4.85029301283321e+005,-2.00534081532813e+001,-1.51196127055353e+001

4.91800058012158e+005,-2.00562384055983e+001,-1.53268863877816e+001

4.98665330982714e+005,-2.00591378041196e+001,-1.55369315680119e+001

5.05626439592555e+005,-2.00621079232465e+001,-1.57497836115406e+001

5.12684721657352e+005,-2.00651503725573e+001,-1.59654783055625e+001

5.19841533667984e+005,-2.00682667977635e+001,-1.61840518633096e+001

5.27098251051240e+005,-2.00714588816992e+001,-1.64055409281359e+001

5.34456268434150e+005,-2.00747283453437e+001,-1.66299825775212e+001

5.41916999912011e+005,-2.00780769488777e+001,-1.68574143269779e+001

