Freq.,VOut,OutRef

1.00000000000000e+004,-1.29631641359710e+001,-1.53275980090902e-001

1.01395947979003e+004,-1.29631642814382e+001,-1.55415621072744e-001

1.02811382665607e+004,-1.29631644309936e+001,-1.57585129821818e-001

1.04246576084112e+004,-1.29631645847521e+001,-1.59784923255354e-001

1.05701804056138e+004,-1.29631647428319e+001,-1.62015424108869e-001

1.07177346253629e+004,-1.29631649053543e+001,-1.64277061018305e-001

1.08673486252606e+004,-1.29631650724443e+001,-1.66570268602330e-001

1.10190511587661e+004,-1.29631652442298e+001,-1.68895487546768e-001

1.11728713807222e+004,-1.29631654208433e+001,-1.71253164685334e-001

1.13288388529580e+004,-1.29631656024199e+001,-1.73643753091371e-001

1.14869835499703e+004,-1.29631657890993e+001,-1.76067712159399e-001

1.16473358646846e+004,-1.29631659810246e+001,-1.78525507697243e-001

1.18099266142953e+004,-1.29631661783435e+001,-1.81017612011742e-001

1.19747870461893e+004,-1.29631663812073e+001,-1.83544504003257e-001

1.21419488439505e+004,-1.29631665897718e+001,-1.86106669256521e-001

1.23114441334492e+004,-1.29631668041971e+001,-1.88704600131302e-001

1.24833054890161e+004,-1.29631670246478e+001,-1.91338795861031e-001

1.26575659397028e+004,-1.29631672512930e+001,-1.94009762645201e-001

1.28342589756290e+004,-1.29631674843069e+001,-1.96718013748673e-001

1.30134185544193e+004,-1.29631677238683e+001,-1.99464069598587e-001

1.31950791077289e+004,-1.29631679701610e+001,-2.02248457886433e-001

1.33792755478611e+004,-1.29631682233742e+001,-2.05071713666537e-001

1.35660432744767e+004,-1.29631684837020e+001,-2.07934379463404e-001

1.37554181813974e+004,-1.29631687513443e+001,-2.10837005368905e-001

1.39474366635040e+004,-1.29631690265067e+001,-2.13780149154274e-001

1.41421356237309e+004,-1.29631693094001e+001,-2.16764376374484e-001

1.43395524801583e+004,-1.29631696002416e+001,-2.19790260476855e-001

1.45397251732031e+004,-1.29631698992544e+001,-2.22858382911710e-001

1.47426921729110e+004,-1.29631702066679e+001,-2.25969333242633e-001

1.49484924863494e+004,-1.29631705227181e+001,-2.29123709261039e-001

1.51571656651040e+004,-1.29631708476474e+001,-2.32322117101538e-001

1.53687518128801e+004,-1.29631711817049e+001,-2.35565171356077e-001

1.55832915932100e+004,-1.29631715251469e+001,-2.38853495193703e-001

1.58008262372675e+004,-1.29631718782370e+001,-2.42187720478394e-001

1.60213975517924e+004,-1.29631722412459e+001,-2.45568487893579e-001

1.62450479271247e+004,-1.29631726144520e+001,-2.48996447060328e-001

1.64718203453514e+004,-1.29631729981416e+001,-2.52472256666716e-001

1.67017583885674e+004,-1.29631733926088e+001,-2.55996584591923e-001

1.69349062472505e+004,-1.29631737981562e+001,-2.59570108032720e-001

1.71713087287550e+004,-1.29631742150946e+001,-2.63193513638624e-001

1.74110112659224e+004,-1.29631746437437e+001,-2.66867497636691e-001

1.76540599258131e+004,-1.29631750844322e+001,-2.70592765971167e-001

1.79005014185594e+004,-1.29631755374979e+001,-2.74370034435599e-001

1.81503831063432e+004,-1.29631760032879e+001,-2.78200028811599e-001

1.84037530124975e+004,-1.29631764821593e+001,-2.82083485006863e-001

1.86606598307361e+004,-1.29631769744792e+001,-2.86021149196185e-001

1.89211529345119e+004,-1.29631774806246e+001,-2.90013777968087e-001

1.91852823865052e+004,-1.29631780009835e+001,-2.94062138464007e-001

1.94530989482457e+004,-1.29631785359546e+001,-2.98167008530308e-001

1.97246540898671e+004,-1.29631790859476e+001,-3.02329176865925e-001

1.99999999999999e+004,-1.29631796513838e+001,-3.06549443172977e-001

2.02791895958005e+004,-1.29631802326965e+001,-3.10828618309430e-001

2.05622765331213e+004,-1.29631808303305e+001,-3.15167524449182e-001

2.08493152168224e+004,-1.29631814447439e+001,-3.19566995231330e-001

2.11403608112276e+004,-1.29631820764067e+001,-3.24027875929769e-001

2.14354692507258e+004,-1.29631827258027e+001,-3.28551023606407e-001

2.17346972505211e+004,-1.29631833934291e+001,-3.33137307281982e-001

2.20381023175322e+004,-1.29631840797967e+001,-3.37787608098706e-001

2.23457427614443e+004,-1.29631847854310e+001,-3.42502819490943e-001

2.26576777059159e+004,-1.29631855108717e+001,-3.47283847356279e-001

2.29739670999406e+004,-1.29631862566741e+001,-3.52131610228186e-001

2.32946717293690e+004,-1.29631870234085e+001,-3.57047039452972e-001

2.36198532285905e+004,-1.29631878116615e+001,-3.62031079368342e-001

2.39495740923785e+004,-1.29631886220360e+001,-3.67084687482568e-001

2.42838976879009e+004,-1.29631894551517e+001,-3.72208834660155e-001

2.46228882668982e+004,-1.29631903116454e+001,-3.77404505307916e-001

2.49666109780322e+004,-1.29631911921720e+001,-3.82672697559847e-001

2.53151318794055e+004,-1.29631920974044e+001,-3.88014423473879e-001

2.56685179512580e+004,-1.29631930280344e+001,-3.93430709220531e-001

2.60268371088386e+004,-1.29631939847732e+001,-3.98922595282084e-001

2.63901582154578e+004,-1.29631949683515e+001,-4.04491136652335e-001

2.67585510957221e+004,-1.29631959795206e+001,-4.10137403036153e-001

2.71320865489533e+004,-1.29631970190529e+001,-4.15862479056366e-001

2.75108363627948e+004,-1.29631980877419e+001,-4.21667464460388e-001

2.78948733270080e+004,-1.29631991864034e+001,-4.27553474331407e-001

2.82842712474618e+004,-1.29632003158760e+001,-4.33521639299659e-001

2.86791049603164e+004,-1.29632014770216e+001,-4.39573105762011e-001

2.90794503464061e+004,-1.29632026707260e+001,-4.45709036098750e-001

2.94853843458219e+004,-1.29632038978996e+001,-4.51930608897329e-001

2.98969849726987e+004,-1.29632051594783e+001,-4.58239019176201e-001

3.03143313302078e+004,-1.29632064564240e+001,-4.64635478615199e-001

3.07375036257601e+004,-1.29632077897252e+001,-4.71121215785285e-001

3.11665831864199e+004,-1.29632091603978e+001,-4.77697476386574e-001

3.16016524745350e+004,-1.29632105694863e+001,-4.84365523481669e-001

3.20427951035848e+004,-1.29632120180638e+001,-4.91126637741210e-001

3.24900958542493e+004,-1.29632135072333e+001,-4.97982117687602e-001

3.29436406907028e+004,-1.29632150381285e+001,-5.04933279941432e-001

3.34035167771346e+004,-1.29632166119143e+001,-5.11981459475289e-001

3.38698124945009e+004,-1.29632182297883e+001,-5.19128009865530e-001

3.43426174575100e+004,-1.29632198929810e+001,-5.26374303555597e-001

3.48220225318448e+004,-1.29632216027569e+001,-5.33721732113736e-001

3.53081198516260e+004,-1.29632233604159e+001,-5.41171706500018e-001

3.58010028371187e+004,-1.29632251672934e+001,-5.48725657336852e-001

3.63007662126863e+004,-1.29632270247622e+001,-5.56385035179681e-001

3.68075060249948e+004,-1.29632289342327e+001,-5.64151310796002e-001

3.73213196614721e+004,-1.29632308971544e+001,-5.72025975444726e-001

3.78423058690237e+004,-1.29632329150170e+001,-5.80010541160156e-001

3.83705647730104e+004,-1.29632349893512e+001,-5.88106541041490e-001

3.89061978964912e+004,-1.29632371217299e+001,-5.96315529544278e-001

3.94493081797342e+004,-1.29632393137694e+001,-6.04639082776808e-001

3.99999999999998e+004,-1.29632415671308e+001,-6.13078798800394e-001

4.05583791916010e+004,-1.29632438835206e+001,-6.21636297933756e-001

4.11245530662425e+004,-1.29632462646925e+001,-6.30313223062753e-001

4.16986304336447e+004,-1.29632487124485e+001,-6.39111239950530e-001

4.22807216224550e+004,-1.29632512286400e+001,-6.48032037557295e-001

4.28709385014515e+004,-1.29632538151695e+001,-6.57077328360429e-001

4.34693945010421e+004,-1.29632564739917e+001,-6.66248848680419e-001

4.40762046350642e+004,-1.29632592071149e+001,-6.75548359011184e-001

4.46914855228886e+004,-1.29632620166023e+001,-6.84977644355818e-001

4.53153554118317e+004,-1.29632649045742e+001,-6.94538514563443e-001

4.59479341998812e+004,-1.29632678732084e+001,-7.04232804676000e-001

4.65893434587380e+004,-1.29632709247428e+001,-7.14062375274366e-001

4.72397064571810e+004,-1.29632740614762e+001,-7.24029112834174e-001

4.78991481847569e+004,-1.29632772857704e+001,-7.34134930081024e-001

4.85677953758016e+004,-1.29632806000515e+001,-7.44381766357449e-001

4.92457765337964e+004,-1.29632840068121e+001,-7.54771587986838e-001

4.99332219560642e+004,-1.29632875086125e+001,-7.65306388648525e-001

5.06302637588109e+004,-1.29632911080830e+001,-7.75988189755433e-001

5.13370359025159e+004,-1.29632948079251e+001,-7.86819040838498e-001

5.20536742176771e+004,-1.29632986109142e+001,-7.97801019931403e-001

5.27803164309155e+004,-1.29633025199008e+001,-8.08936233967745e-001

5.35171021914442e+004,-1.29633065378128e+001,-8.20226819179414e-001

5.42641730979066e+004,-1.29633106676576e+001,-8.31674941497830e-001

5.50216727255895e+004,-1.29633149125239e+001,-8.43282796968296e-001

5.57897466540159e+004,-1.29633192755841e+001,-8.55052612160448e-001

5.65685424949235e+004,-1.29633237600962e+001,-8.66986644593349e-001

5.73582099206328e+004,-1.29633283694061e+001,-8.79087183159264e-001

5.81589006928121e+004,-1.29633331069502e+001,-8.91356548556346e-001

5.89707686916437e+004,-1.29633379762572e+001,-9.03797093727393e-001

5.97939699453972e+004,-1.29633429809506e+001,-9.16411204303478e-001

6.06286626604156e+004,-1.29633481247513e+001,-9.29201299053645e-001

6.14750072515201e+004,-1.29633534114804e+001,-9.42169830340176e-001

6.23331663728396e+004,-1.29633588450607e+001,-9.55319284581997e-001

6.32033049490698e+004,-1.29633644295205e+001,-9.68652182721669e-001

6.40855902071694e+004,-1.29633701689953e+001,-9.82171080699849e-001

6.49801917084985e+004,-1.29633760677312e+001,-9.95878569936037e-001

6.58872813814055e+004,-1.29633821300871e+001,-1.00977727781731e+000

6.68070335542691e+004,-1.29633883605381e+001,-1.02386986818856e+000

6.77396249890018e+004,-1.29633947636779e+001,-1.03815904185587e+000

6.86852349150199e+004,-1.29634013442219e+001,-1.05264753709122e+000

6.96440450636895e+004,-1.29634081070105e+001,-1.06733813014694e+000

7.06162397032520e+004,-1.29634150570116e+001,-1.08223363577645e+000

7.16020056742374e+004,-1.29634221993244e+001,-1.09733690775947e+000

7.26015324253724e+004,-1.29634295391819e+001,-1.11265083943862e+000

7.36150120499896e+004,-1.29634370819547e+001,-1.12817836425855e+000

7.46426393229441e+004,-1.29634448331544e+001,-1.14392245631519e+000

7.56846117380472e+004,-1.29634527984361e+001,-1.15988613091210e+000

7.67411295460207e+004,-1.29634609836032e+001,-1.17607244512077e+000

7.78123957929823e+004,-1.29634693946097e+001,-1.19248449835336e+000

7.88986163594682e+004,-1.29634780375645e+001,-1.20912543293881e+000

7.99999999999995e+004,-1.29634869187349e+001,-1.22599843470893e+000

8.11167583832018e+004,-1.29634960445501e+001,-1.24310673359017e+000

8.22491061324848e+004,-1.29635054216053e+001,-1.26045360420593e+000

8.33972608672892e+004,-1.29635150566652e+001,-1.27804236648230e+000

8.45614432449099e+004,-1.29635249566681e+001,-1.29587638626756e+000

8.57418770029029e+004,-1.29635351287300e+001,-1.31395907595333e+000

8.69387890020841e+004,-1.29635455801484e+001,-1.33229389510997e+000

8.81524092701283e+004,-1.29635563184066e+001,-1.35088435112353e+000

8.93829710457770e+004,-1.29635673511773e+001,-1.36973399984940e+000

9.06307108236633e+004,-1.29635786863277e+001,-1.38884644626431e+000

9.18958683997622e+004,-1.29635903319232e+001,-1.40822534513608e+000

9.31786869174758e+004,-1.29636022962318e+001,-1.42787440169568e+000

9.44794129143618e+004,-1.29636145877284e+001,-1.44779737232114e+000

9.57982963695136e+004,-1.29636272150997e+001,-1.46799806522833e+000

9.71355907516031e+004,-1.29636401872480e+001,-1.48848034117250e+000

9.84915530675926e+004,-1.29636535132964e+001,-1.50924811415720e+000

9.98664439121282e+004,-1.29636672025928e+001,-1.53030535215286e+000

1.01260527517622e+005,-1.29636812647152e+001,-1.55165607782397e+000

1.02674071805032e+005,-1.29636957094756e+001,-1.57330436926726e+000

1.04107348435354e+005,-1.29637105469254e+001,-1.59525436075718e+000

1.05560632861831e+005,-1.29637257873597e+001,-1.61751024350146e+000

1.07034204382888e+005,-1.29637414413222e+001,-1.64007626640705e+000

1.08528346195813e+005,-1.29637575196101e+001,-1.66295673685537e+000

1.10043345451179e+005,-1.29637740332789e+001,-1.68615602148561e+000

1.11579493308032e+005,-1.29637909936472e+001,-1.70967854699146e+000

1.13137084989847e+005,-1.29638084123015e+001,-1.73352880092470e+000

1.14716419841265e+005,-1.29638263011010e+001,-1.75771133251048e+000

1.16317801385624e+005,-1.29638446721828e+001,-1.78223075347229e+000

1.17941537383287e+005,-1.29638635379664e+001,-1.80709173886702e+000

1.19587939890794e+005,-1.29638829111586e+001,-1.83229902793150e+000

1.21257325320831e+005,-1.29639028047585e+001,-1.85785742493951e+000

1.22950014503040e+005,-1.29639232320622e+001,-1.88377180006765e+000

1.24666332745679e+005,-1.29639442066674e+001,-1.91004709027435e+000

1.26406609898139e+005,-1.29639657424784e+001,-1.93668830018949e+000

1.28171180414339e+005,-1.29639878537103e+001,-1.96370050301373e+000

1.29960383416997e+005,-1.29640105548942e+001,-1.99108884142961e+000

1.31774562762811e+005,-1.29640338608813e+001,-2.01885852852535e+000

1.33614067108538e+005,-1.29640577868472e+001,-2.04701484872949e+000

1.35479249978003e+005,-1.29640823482967e+001,-2.07556315875499e+000

1.37370469830040e+005,-1.29641075610675e+001,-2.10450888855895e+000

1.39288090127379e+005,-1.29641334413348e+001,-2.13385754231130e+000

1.41232479406504e+005,-1.29641600056146e+001,-2.16361469937749e+000

1.43204011348474e+005,-1.29641872707681e+001,-2.19378601531090e+000

1.45203064850745e+005,-1.29642152540051e+001,-2.22437722286130e+000

1.47230024099979e+005,-1.29642439728873e+001,-2.25539413299303e+000

1.49285278645888e+005,-1.29642734453316e+001,-2.28684263591684e+000

1.51369223476094e+005,-1.29643036896131e+001,-2.31872870213477e+000

1.53482259092041e+005,-1.29643347243683e+001,-2.35105838349771e+000

1.55624791585964e+005,-1.29643665685965e+001,-2.38383781427802e+000

1.57797232718936e+005,-1.29643992416636e+001,-2.41707321225203e+000

1.59999999999999e+005,-1.29644327633024e+001,-2.45077087980081e+000

1.62233516766403e+005,-1.29644671536153e+001,-2.48493720502038e+000

1.64498212264969e+005,-1.29645024330753e+001,-2.51957866285039e+000

1.66794521734578e+005,-1.29645386225268e+001,-2.55470181621241e+000

1.69122886489819e+005,-1.29645757431856e+001,-2.59031331716866e+000

1.71483754005805e+005,-1.29646138166401e+001,-2.62641990808863e+000

1.73877578004168e+005,-1.29646528648498e+001,-2.66302842283714e+000

1.76304818540256e+005,-1.29646929101451e+001,-2.70014578797439e+000

1.78765942091554e+005,-1.29647339752255e+001,-2.73777902397172e+000

1.81261421647326e+005,-1.29647760831581e+001,-2.77593524644519e+000

1.83791736799524e+005,-1.29648192573747e+001,-2.81462166740218e+000

1.86357373834951e+005,-1.29648635216691e+001,-2.85384559650818e+000

1.88958825828723e+005,-1.29649089001930e+001,-2.89361444236850e+000

1.91596592739027e+005,-1.29649554174520e+001,-2.93393571382629e+000

1.94271181503206e+005,-1.29650030983003e+001,-2.97481702128043e+000

1.96983106135185e+005,-1.29650519679350e+001,-3.01626607801931e+000

1.99732887824256e+005,-1.29651020518893e+001,-3.05829070157439e+000

2.02521055035243e+005,-1.29651533760253e+001,-3.10089881509143e+000

2.05348143610063e+005,-1.29652059665257e+001,-3.14409844872142e+000

2.08214696870707e+005,-1.29652598498850e+001,-3.18789774103088e+000

2.11121265723661e+005,-1.29653150528988e+001,-3.23230494043204e+000

2.14068408765776e+005,-1.29653716026533e+001,-3.27732840663460e+000

2.17056692391625e+005,-1.29654295265132e+001,-3.32297661211700e+000

2.20086690902357e+005,-1.29654888521089e+001,-3.36925814361989e+000

2.23158986616063e+005,-1.29655496073217e+001,-3.41618170366230e+000

2.26274169979693e+005,-1.29656118202694e+001,-3.46375611207951e+000

2.29432839682530e+005,-1.29656755192896e+001,-3.51199030758471e+000

2.32635602771247e+005,-1.29657407329220e+001,-3.56089334935501e+000

2.35883074766574e+005,-1.29658074898900e+001,-3.61047441864046e+000

2.39175879781588e+005,-1.29658758190800e+001,-3.66074282040081e+000

2.42514650641661e+005,-1.29659457495211e+001,-3.71170798496486e+000

2.45900029006080e+005,-1.29660173103613e+001,-3.76337946971988e+000

2.49332665491357e+005,-1.29660905308443e+001,-3.81576696082637e+000

2.52813219796278e+005,-1.29661654402836e+001,-3.86888027496077e+000

2.56342360828676e+005,-1.29662420680360e+001,-3.92272936108916e+000

2.59920766833993e+005,-1.29663204434728e+001,-3.97732430226898e+000

2.63549125525621e+005,-1.29664005959505e+001,-4.03267531748231e+000

2.67228134217075e+005,-1.29664825547791e+001,-4.08879276350018e+000

2.70958499956006e+005,-1.29665663491894e+001,-4.14568713678115e+000

2.74740939660078e+005,-1.29666520082989e+001,-4.20336907540036e+000

2.78576180254757e+005,-1.29667395610754e+001,-4.26184936101714e+000

2.82464958813007e+005,-1.29668290362999e+001,-4.32113892087483e+000

2.86408022696948e+005,-1.29669204625274e+001,-4.38124882983850e+000

2.90406129701488e+005,-1.29670138680461e+001,-4.44219031247173e+000

2.94460048199957e+005,-1.29671092808357e+001,-4.50397474514924e+000

2.98570557291775e+005,-1.29672067285231e+001,-4.56661365821300e+000

3.02738446952187e+005,-1.29673062383376e+001,-4.63011873816701e+000

3.06964518184081e+005,-1.29674078370638e+001,-4.69450182991553e+000

3.11249583171928e+005,-1.29675115509935e+001,-4.75977493904462e+000

3.15594465437872e+005,-1.29676174058760e+001,-4.82595023414884e+000

3.19999999999997e+005,-1.29677254268669e+001,-4.89304004920362e+000

3.24467033532806e+005,-1.29678356384757e+001,-4.96105688598553e+000

3.28996424529938e+005,-1.29679480645119e+001,-5.03001341654097e+000

3.33589043469155e+005,-1.29680627280301e+001,-5.09992248570495e+000

3.38245772979638e+005,-1.29681796512738e+001,-5.17079711367060e+000

3.42967508011610e+005,-1.29682988556182e+001,-5.24265049861243e+000

3.47755156008335e+005,-1.29684203615119e+001,-5.31549601936289e+000

3.52609637080511e+005,-1.29685441884181e+001,-5.38934723814403e+000

3.57531884183106e+005,-1.29686703547541e+001,-5.46421790335600e+000

3.62522843294651e+005,-1.29687988778314e+001,-5.54012195242392e+000

3.67583473599047e+005,-1.29689297737946e+001,-5.61707351470301e+000

3.72714747669902e+005,-1.29690630575596e+001,-5.69508691444503e+000

3.77917651657445e+005,-1.29691987427524e+001,-5.77417667382607e+000

3.83193185478053e+005,-1.29693368416472e+001,-5.85435751603733e+000

3.88542363006410e+005,-1.29694773651049e+001,-5.93564436844038e+000

3.93966212270369e+005,-1.29696203225120e+001,-6.01805236578705e+000

3.99465775648511e+005,-1.29697657217191e+001,-6.10159685350641e+000

4.05042110070485e+005,-1.29699135689819e+001,-6.18629339105920e+000

4.10696287220124e+005,-1.29700638689009e+001,-6.27215775536023e+000

4.16429393741414e+005,-1.29702166243639e+001,-6.35920594427069e+000

4.22242531447321e+005,-1.29703718364890e+001,-6.44745418016083e+000

4.28136817531551e+005,-1.29705295045694e+001,-6.53691891354330e+000

4.34113384783250e+005,-1.29706896260197e+001,-6.62761682677880e+000

4.40173381804713e+005,-1.29708521963251e+001,-6.71956483785412e+000

4.46317973232124e+005,-1.29710172089917e+001,-6.81278010423356e+000

4.52548339959385e+005,-1.29711846555001e+001,-6.90728002678323e+000

4.58865679365059e+005,-1.29713545252620e+001,-7.00308225377006e+000

4.65271205542494e+005,-1.29715268055791e+001,-7.10020468493432e+000

4.71766149533147e+005,-1.29717014816057e+001,-7.19866547563791e+000

4.78351759563174e+005,-1.29718785363156e+001,-7.29848304108541e+000

4.85029301283321e+005,-1.29720579504713e+001,-7.39967606062061e+000

4.91800058012158e+005,-1.29722397025988e+001,-7.50226348209817e+000

4.98665330982714e+005,-1.29724237689660e+001,-7.60626452632728e+000

5.05626439592555e+005,-1.29726101235658e+001,-7.71169869159200e+000

5.12684721657352e+005,-1.29727987381041e+001,-7.81858575824185e+000

5.19841533667984e+005,-1.29729895819929e+001,-7.92694579335792e+000

5.27098251051240e+005,-1.29731826223488e+001,-8.03679915548968e+000

5.34456268434150e+005,-1.29733778239966e+001,-8.14816649946348e+000

5.41916999912011e+005,-1.29735751494793e+001,-8.26106878126139e+000

