Freq.,VOut,OutRef

1.00000000000000e+004,-2.24331127465204e+001,-4.30478888670461e-001

1.01395947979003e+004,-2.24331155102798e+001,-4.36488057537122e-001

1.02811382665607e+004,-2.24331183517320e+001,-4.42581107348420e-001

1.04246576084112e+004,-2.24331212730608e+001,-4.48759208872030e-001

1.05701804056138e+004,-2.24331242765116e+001,-4.55023549211593e-001

1.07177346253629e+004,-2.24331273643925e+001,-4.61375332035688e-001

1.08673486252606e+004,-2.24331305390768e+001,-4.67815777806452e-001

1.10190511587661e+004,-2.24331338030043e+001,-4.74346124015591e-001

1.11728713807222e+004,-2.24331371586835e+001,-4.80967625421243e-001

1.13288388529580e+004,-2.24331406086934e+001,-4.87681554289203e-001

1.14869835499703e+004,-2.24331441556853e+001,-4.94489200634615e-001

1.16473358646846e+004,-2.24331478023852e+001,-5.01391872473096e-001

1.18099266142953e+004,-2.24331515515955e+001,-5.08390896068491e-001

1.19747870461893e+004,-2.24331554061975e+001,-5.15487616188539e-001

1.21419488439505e+004,-2.24331593691535e+001,-5.22683396362666e-001

1.23114441334492e+004,-2.24331634435088e+001,-5.29979619143405e-001

1.24833054890161e+004,-2.24331676323946e+001,-5.37377686370338e-001

1.26575659397028e+004,-2.24331719390299e+001,-5.44879019440943e-001

1.28342589756290e+004,-2.24331763667242e+001,-5.52485059581902e-001

1.30134185544193e+004,-2.24331809188798e+001,-5.60197268124918e-001

1.31950791077289e+004,-2.24331855989950e+001,-5.68017126787813e-001

1.33792755478611e+004,-2.24331904106658e+001,-5.75946137958482e-001

1.35660432744767e+004,-2.24331953575900e+001,-5.83985824980789e-001

1.37554181813974e+004,-2.24332004435685e+001,-5.92137732450450e-001

1.39474366635040e+004,-2.24332056725096e+001,-6.00403426506608e-001

1.41421356237309e+004,-2.24332110484311e+001,-6.08784495134882e-001

1.43395524801583e+004,-2.24332165754638e+001,-6.17282548470547e-001

1.45397251732031e+004,-2.24332222578544e+001,-6.25899219107833e-001

1.47426921729110e+004,-2.24332280999690e+001,-6.34636162410773e-001

1.49484924863494e+004,-2.24332341062964e+001,-6.43495056832000e-001

1.51571656651040e+004,-2.24332402814515e+001,-6.52477604233636e-001

1.53687518128801e+004,-2.24332466301788e+001,-6.61585530213011e-001

1.55832915932100e+004,-2.24332531573561e+001,-6.70820584433178e-001

1.58008262372675e+004,-2.24332598679981e+001,-6.80184540958830e-001

1.60213975517924e+004,-2.24332667672605e+001,-6.89679198593844e-001

1.62450479271247e+004,-2.24332738604439e+001,-6.99306381227229e-001

1.64718203453514e+004,-2.24332811529975e+001,-7.09067938182552e-001

1.67017583885674e+004,-2.24332886505238e+001,-7.18965744569798e-001

1.69349062472505e+004,-2.24332963587825e+001,-7.29001701646427e-001

1.71713087287550e+004,-2.24333042836954e+001,-7.39177737179764e-001

1.74110112659224e+004,-2.24333124313500e+001,-7.49495805816740e-001

1.76540599258131e+004,-2.24333208080054e+001,-7.59957889455785e-001

1.79005014185594e+004,-2.24333294200961e+001,-7.70565997629225e-001

1.81503831063432e+004,-2.24333382742375e+001,-7.81322167884145e-001

1.84037530124975e+004,-2.24333473772306e+001,-7.92228466174219e-001

1.86606598307361e+004,-2.24333567360674e+001,-8.03286987253761e-001

1.89211529345119e+004,-2.24333663579366e+001,-8.14499855077673e-001

1.91852823865052e+004,-2.24333762502281e+001,-8.25869223209288e-001

1.94530989482457e+004,-2.24333864205398e+001,-8.37397275229145e-001

1.97246540898671e+004,-2.24333968766829e+001,-8.49086225154316e-001

1.99999999999999e+004,-2.24334076266877e+001,-8.60938317860126e-001

2.02791895958005e+004,-2.24334186788100e+001,-8.72955829509991e-001

2.05622765331213e+004,-2.24334300415375e+001,-8.85141067988564e-001

2.08493152168224e+004,-2.24334417235961e+001,-8.97496373344115e-001

2.11403608112276e+004,-2.24334537339565e+001,-9.10024118234138e-001

2.14354692507258e+004,-2.24334660818417e+001,-9.22726708377137e-001

2.17346972505211e+004,-2.24334787767330e+001,-9.35606583014931e-001

2.20381023175322e+004,-2.24334918283782e+001,-9.48666215373991e-001

2.23457427614443e+004,-2.24335052467986e+001,-9.61908113140110e-001

2.26576777059159e+004,-2.24335190422966e+001,-9.75334818935908e-001

2.29739670999406e+004,-2.24335332254640e+001,-9.88948910804775e-001

2.32946717293690e+004,-2.24335478071897e+001,-1.00275300270246e+000

2.36198532285905e+004,-2.24335627986680e+001,-1.01674974499610e+000

2.39495740923785e+004,-2.24335782114078e+001,-1.03094182496791e+000

2.42838976879009e+004,-2.24335940572404e+001,-1.04533196732912e+000

2.46228882668982e+004,-2.24336103483293e+001,-1.05992293473578e+000

2.49666109780322e+004,-2.24336270971792e+001,-1.07471752831769e+000

2.53151318794055e+004,-2.24336443166457e+001,-1.08971858820886e+000

2.56685179512580e+004,-2.24336620199448e+001,-1.10492899409021e+000

2.60268371088386e+004,-2.24336802206636e+001,-1.12035166573594e+000

2.63901582154578e+004,-2.24336989327700e+001,-1.13598956356928e+000

2.67585510957221e+004,-2.24337181706237e+001,-1.15184568922574e+000

2.71320865489533e+004,-2.24337379489872e+001,-1.16792308612201e+000

2.75108363627948e+004,-2.24337582830368e+001,-1.18422484003630e+000

2.78948733270080e+004,-2.24337791883747e+001,-1.20075407969246e+000

2.82842712474618e+004,-2.24338006810403e+001,-1.21751397735514e+000

2.86791049603164e+004,-2.24338227775228e+001,-1.23450774943190e+000

2.90794503464061e+004,-2.24338454947737e+001,-1.25173865708357e+000

2.94853843458219e+004,-2.24338688502196e+001,-1.26921000684141e+000

2.98969849726987e+004,-2.24338928617757e+001,-1.28692515123596e+000

3.03143313302078e+004,-2.24339175478591e+001,-1.30488748943133e+000

3.07375036257601e+004,-2.24339429274034e+001,-1.32310046786978e+000

3.11665831864199e+004,-2.24339690198726e+001,-1.34156758092288e+000

3.16016524745350e+004,-2.24339958452759e+001,-1.36029237155532e+000

3.20427951035848e+004,-2.24340234241836e+001,-1.37927843199373e+000

3.24900958542493e+004,-2.24340517777419e+001,-1.39852940440602e+000

3.29436406907028e+004,-2.24340809276894e+001,-1.41804898159135e+000

3.34035167771346e+004,-2.24341108963738e+001,-1.43784090767570e+000

3.38698124945009e+004,-2.24341417067685e+001,-1.45790897882238e+000

3.43426174575100e+004,-2.24341733824903e+001,-1.47825704394410e+000

3.48220225318448e+004,-2.24342059478174e+001,-1.49888900543387e+000

3.53081198516260e+004,-2.24342394277076e+001,-1.51980881989770e+000

3.58010028371187e+004,-2.24342738478175e+001,-1.54102049890135e+000

3.63007662126863e+004,-2.24343092345217e+001,-1.56252810972772e+000

3.68075060249948e+004,-2.24343456149332e+001,-1.58433577613914e+000

3.73213196614721e+004,-2.24343830169235e+001,-1.60644767915742e+000

3.78423058690237e+004,-2.24344214691442e+001,-1.62886805784646e+000

3.83705647730104e+004,-2.24344610010483e+001,-1.65160121011215e+000

3.89061978964912e+004,-2.24345016429128e+001,-1.67465149350693e+000

3.94493081797342e+004,-2.24345434258616e+001,-1.69802332604952e+000

3.99999999999998e+004,-2.24345863818887e+001,-1.72172118705384e+000

4.05583791916010e+004,-2.24346305438829e+001,-1.74574961796713e+000

4.11245530662425e+004,-2.24346759456526e+001,-1.77011322322235e+000

4.16986304336447e+004,-2.24347226219511e+001,-1.79481667109891e+000

4.22807216224550e+004,-2.24347706085028e+001,-1.81986469459689e+000

4.28709385014515e+004,-2.24348199420307e+001,-1.84526209232164e+000

4.34693945010421e+004,-2.24348706602835e+001,-1.87101372937889e+000

4.40762046350642e+004,-2.24349228020647e+001,-1.89712453828406e+000

4.46914855228886e+004,-2.24349764072612e+001,-1.92359951988168e+000

4.53153554118317e+004,-2.24350315168739e+001,-1.95044374427671e+000

4.59479341998812e+004,-2.24350881730482e+001,-1.97766235177904e+000

4.65893434587380e+004,-2.24351464191063e+001,-2.00526055385861e+000

4.72397064571810e+004,-2.24352062995788e+001,-2.03324363411511e+000

4.78991481847569e+004,-2.24352678602394e+001,-2.06161694925752e+000

4.85677953758016e+004,-2.24353311481383e+001,-2.09038593009841e+000

4.92457765337964e+004,-2.24353962116380e+001,-2.11955608256015e+000

4.99332219560642e+004,-2.24354631004497e+001,-2.14913298869354e+000

5.06302637588109e+004,-2.24355318656702e+001,-2.17912230771042e+000

5.13370359025159e+004,-2.24356025598204e+001,-2.20952977702913e+000

5.20536742176771e+004,-2.24356752368849e+001,-2.24036121333210e+000

5.27803164309155e+004,-2.24357499523518e+001,-2.27162251363878e+000

5.35171021914442e+004,-2.24358267632548e+001,-2.30331965639026e+000

5.42641730979066e+004,-2.24359057282155e+001,-2.33545870254963e+000

5.50216727255895e+004,-2.24359869074871e+001,-2.36804579671334e+000

5.57897466540159e+004,-2.24360703629997e+001,-2.40108716823970e+000

5.65685424949235e+004,-2.24361561584061e+001,-2.43458913238868e+000

5.73582099206328e+004,-2.24362443591295e+001,-2.46855809147686e+000

5.81589006928121e+004,-2.24363350324120e+001,-2.50300053604850e+000

5.89707686916437e+004,-2.24364282473647e+001,-2.53792304605699e+000

5.97939699453972e+004,-2.24365240750190e+001,-2.57333229206552e+000

6.06286626604156e+004,-2.24366225883791e+001,-2.60923503645894e+000

6.14750072515201e+004,-2.24367238624768e+001,-2.64563813467193e+000

6.23331663728396e+004,-2.24368279744261e+001,-2.68254853643215e+000

6.32033049490698e+004,-2.24369350034812e+001,-2.71997328701774e+000

6.40855902071694e+004,-2.24370450310943e+001,-2.75791952853123e+000

6.49801917084985e+004,-2.24371581409762e+001,-2.79639450118708e+000

6.58872813814055e+004,-2.24372744191582e+001,-2.83540554461567e+000

6.68070335542691e+004,-2.24373939540548e+001,-2.87496009918339e+000

6.77396249890018e+004,-2.24375168365293e+001,-2.91506570732682e+000

6.86852349150199e+004,-2.24376431599605e+001,-2.95573001490325e+000

6.96440450636895e+004,-2.24377730203110e+001,-2.99696077255878e+000

7.06162397032520e+004,-2.24379065161979e+001,-3.03876583710880e+000

7.16020056742374e+004,-2.24380437489646e+001,-3.08115317293830e+000

7.26015324253724e+004,-2.24381848227553e+001,-3.12413085341539e+000

7.36150120499896e+004,-2.24383298445905e+001,-3.16770706232315e+000

7.46426393229441e+004,-2.24384789244457e+001,-3.21189009530627e+000

7.56846117380472e+004,-2.24386321753309e+001,-3.25668836133546e+000

7.67411295460207e+004,-2.24387897133729e+001,-3.30211038418707e+000

7.78123957929823e+004,-2.24389516578998e+001,-3.34816480394042e+000

7.88986163594682e+004,-2.24391181315271e+001,-3.39486037849115e+000

7.99999999999995e+004,-2.24392892602468e+001,-3.44220598508102e+000

8.11167583832018e+004,-2.24394651735180e+001,-3.49021062184577e+000

8.22491061324848e+004,-2.24396460043605e+001,-3.53888340937846e+000

8.33972608672892e+004,-2.24398318894504e+001,-3.58823359231049e+000

8.45614432449099e+004,-2.24400229692185e+001,-3.63827054090899e+000

8.57418770029029e+004,-2.24402193879508e+001,-3.68900375269214e+000

8.69387890020841e+004,-2.24404212938918e+001,-3.74044285406067e+000

8.81524092701283e+004,-2.24406288393505e+001,-3.79259760194704e+000

8.93829710457770e+004,-2.24408421808087e+001,-3.84547788548115e+000

9.06307108236633e+004,-2.24410614790329e+001,-3.89909372767363e+000

9.18958683997622e+004,-2.24412868991877e+001,-3.95345528711666e+000

9.31786869174758e+004,-2.24415186109535e+001,-4.00857285970028e+000

9.44794129143618e+004,-2.24417567886460e+001,-4.06445688034803e+000

9.57982963695136e+004,-2.24420016113391e+001,-4.12111792476830e+000

9.71355907516031e+004,-2.24422532629915e+001,-4.17856671122297e+000

9.84915530675926e+004,-2.24425119325749e+001,-4.23681410231359e+000

9.98664439121282e+004,-2.24427778142070e+001,-4.29587110678485e+000

1.01260527517622e+005,-2.24430511072869e+001,-4.35574888134371e+000

1.02674071805032e+005,-2.24433320166340e+001,-4.41645873249658e+000

1.04107348435354e+005,-2.24436207526301e+001,-4.47801211840417e+000

1.05560632861831e+005,-2.24439175313656e+001,-4.54042065075074e+000

1.07034204382888e+005,-2.24442225747884e+001,-4.60369609663292e+000

1.08528346195813e+005,-2.24445361108569e+001,-4.66785038046281e+000

1.10043345451179e+005,-2.24448583736970e+001,-4.73289558588932e+000

1.11579493308032e+005,-2.24451896037617e+001,-4.79884395773520e+000

1.13137084989847e+005,-2.24455300479960e+001,-4.86570790395017e+000

1.14716419841265e+005,-2.24458799600047e+001,-4.93349999758090e+000

1.16317801385624e+005,-2.24462396002241e+001,-5.00223297875681e+000

1.17941537383287e+005,-2.24466092360991e+001,-5.07191975669077e+000

1.19587939890794e+005,-2.24469891422621e+001,-5.14257341169795e+000

1.21257325320831e+005,-2.24473796007185e+001,-5.21420719722701e+000

1.22950014503040e+005,-2.24477809010350e+001,-5.28683454190915e+000

1.24666332745679e+005,-2.24481933405325e+001,-5.36046905162123e+000

1.26406609898139e+005,-2.24486172244838e+001,-5.43512451156410e+000

1.28171180414339e+005,-2.24490528663159e+001,-5.51081488835492e+000

1.29960383416997e+005,-2.24495005878159e+001,-5.58755433213480e+000

1.31774562762811e+005,-2.24499607193427e+001,-5.66535717869070e+000

1.33614067108538e+005,-2.24504336000430e+001,-5.74423795158986e+000

1.35479249978003e+005,-2.24509195780719e+001,-5.82421136432965e+000

1.37370469830040e+005,-2.24514190108185e+001,-5.90529232249951e+000

1.39288090127379e+005,-2.24519322651370e+001,-5.98749592595606e+000

1.41232479406504e+005,-2.24524597175821e+001,-6.07083747101143e+000

1.43204011348474e+005,-2.24530017546498e+001,-6.15533245263333e+000

1.45203064850745e+005,-2.24535587730235e+001,-6.24099656665785e+000

1.47230024099979e+005,-2.24541311798252e+001,-6.32784571201269e+000

1.49285278645888e+005,-2.24547193928725e+001,-6.41589599295313e+000

1.51369223476094e+005,-2.24553238409403e+001,-6.50516372130745e+000

1.53482259092041e+005,-2.24559449640284e+001,-6.59566541873427e+000

1.55624791585964e+005,-2.24565832136350e+001,-6.68741781898825e+000

1.57797232718936e+005,-2.24572390530350e+001,-6.78043787019693e+000

1.59999999999999e+005,-2.24579129575650e+001,-6.87474273714614e+000

1.62233516766403e+005,-2.24586054149131e+001,-6.97034980357368e+000

1.64498212264969e+005,-2.24593169254157e+001,-7.06727667447244e+000

1.66794521734578e+005,-2.24600480023589e+001,-7.16554117840029e+000

1.69122886489819e+005,-2.24607991722871e+001,-7.26516136979753e+000

1.71483754005805e+005,-2.24615709753169e+001,-7.36615553131208e+000

1.73877578004168e+005,-2.24623639654576e+001,-7.46854217612946e+000

1.76304818540256e+005,-2.24631787109374e+001,-7.57234005031013e+000

1.78765942091554e+005,-2.24640157945365e+001,-7.67756813513120e+000

1.81261421647326e+005,-2.24648758139259e+001,-7.78424564943376e+000

1.83791736799524e+005,-2.24657593820131e+001,-7.89239205197366e+000

1.86357373834951e+005,-2.24666671272939e+001,-8.00202704377690e+000

1.88958825828723e+005,-2.24675996942111e+001,-8.11317057049772e+000

1.91596592739027e+005,-2.24685577435191e+001,-8.22584282478022e+000

1.94271181503206e+005,-2.24695419526563e+001,-8.34006424862091e+000

1.96983106135185e+005,-2.24705530161225e+001,-8.45585553573428e+000

1.99732887824256e+005,-2.24715916458652e+001,-8.57323763391896e+000

2.02521055035243e+005,-2.24726585716706e+001,-8.69223174742431e+000

2.05348143610063e+005,-2.24737545415631e+001,-8.81285933931772e+000

2.08214696870707e+005,-2.24748803222108e+001,-8.93514213385059e+000

2.11121265723661e+005,-2.24760366993386e+001,-9.05910211882468e+000

2.14068408765776e+005,-2.24772244781476e+001,-9.18476154795592e+000

2.17056692391625e+005,-2.24784444837427e+001,-9.31214294323635e+000

2.20086690902357e+005,-2.24796975615665e+001,-9.44126909729468e+000

2.23158986616063e+005,-2.24809845778411e+001,-9.57216307575235e+000

2.26274169979693e+005,-2.24823064200161e+001,-9.70484821957817e+000

2.29432839682530e+005,-2.24836639972261e+001,-9.83934814743632e+000

2.32635602771247e+005,-2.24850582407532e+001,-9.97568675803318e+000

2.35883074766574e+005,-2.24864901044992e+001,-1.01138882324567e+001

2.39175879781588e+005,-2.24879605654638e+001,-1.02539770365115e+001

2.42514650641661e+005,-2.24894706242316e+001,-1.03959779230492e+001

2.45900029006080e+005,-2.24910213054666e+001,-1.05399159342909e+001

2.49332665491357e+005,-2.24926136584143e+001,-1.06858164041440e+001

2.52813219796278e+005,-2.24942487574123e+001,-1.08337049605119e+001

2.56342360828676e+005,-2.24959277024089e+001,-1.09836075275965e+001

2.59920766833993e+005,-2.24976516194894e+001,-1.11355503281920e+001

2.63549125525621e+005,-2.24994216614119e+001,-1.12895598859714e+001

2.67228134217075e+005,-2.25012390081506e+001,-1.14456630277637e+001

2.70958499956006e+005,-2.25031048674483e+001,-1.16038868858217e+001

2.74740939660078e+005,-2.25050204753773e+001,-1.17642589000812e+001

2.78576180254757e+005,-2.25069870969101e+001,-1.19268068204085e+001

2.82464958813007e+005,-2.25090060264982e+001,-1.20915587088389e+001

2.86408022696948e+005,-2.25110785886613e+001,-1.22585429418030e+001

2.90406129701488e+005,-2.25132061385856e+001,-1.24277882123412e+001

2.94460048199957e+005,-2.25153900627318e+001,-1.25993235323074e+001

2.98570557291775e+005,-2.25176317794535e+001,-1.27731782345571e+001

3.02738446952187e+005,-2.25199327396257e+001,-1.29493819751245e+001

3.06964518184081e+005,-2.25222944272844e+001,-1.31279647353829e+001

3.11249583171928e+005,-2.25247183602762e+001,-1.33089568241910e+001

3.15594465437872e+005,-2.25272060909200e+001,-1.34923888800225e+001

3.19999999999997e+005,-2.25297592066801e+001,-1.36782918730771e+001

3.24467033532806e+005,-2.25323793308508e+001,-1.38666971073753e+001

3.28996424529938e+005,-2.25350681232536e+001,-1.40576362228296e+001

3.33589043469155e+005,-2.25378272809476e+001,-1.42511411972975e+001

3.38245772979638e+005,-2.25406585389518e+001,-1.44472443486088e+001

3.42967508011610e+005,-2.25435636709823e+001,-1.46459783365688e+001

3.47755156008335e+005,-2.25465444902027e+001,-1.48473761649338e+001

3.52609637080511e+005,-2.25496028499892e+001,-1.50514711833574e+001

3.57531884183106e+005,-2.25527406447109e+001,-1.52582970893041e+001

3.62522843294651e+005,-2.25559598105256e+001,-1.54678879299281e+001

3.67583473599047e+005,-2.25592623261912e+001,-1.56802781039139e+001

3.72714747669902e+005,-2.25626502138942e+001,-1.58955023632753e+001

3.77917651657445e+005,-2.25661255400957e+001,-1.61135958151085e+001

3.83193185478053e+005,-2.25696904163938e+001,-1.63345939232966e+001

3.88542363006410e+005,-2.25733470004062e+001,-1.65585325101584e+001

3.93966212270369e+005,-2.25770974966699e+001,-1.67854477580394e+001

3.99465775648511e+005,-2.25809441575621e+001,-1.70153762108374e+001

4.05042110070485e+005,-2.25848892842397e+001,-1.72483547754576e+001

4.10696287220124e+005,-2.25889352276006e+001,-1.74844207231916e+001

4.16429393741414e+005,-2.25930843892660e+001,-1.77236116910114e+001

4.22242531447321e+005,-2.25973392225839e+001,-1.79659656827738e+001

4.28136817531551e+005,-2.26017022336564e+001,-1.82115210703240e+001

4.34113384783250e+005,-2.26061759823881e+001,-1.84603165944930e+001

4.40173381804713e+005,-2.26107630835597e+001,-1.87123913659771e+001

4.46317973232124e+005,-2.26154662079245e+001,-1.89677848660916e+001

4.52548339959385e+005,-2.26202880833289e+001,-1.92265369473875e+001

4.58865679365059e+005,-2.26252314958586e+001,-1.94886878341196e+001

4.65271205542494e+005,-2.26302992910088e+001,-1.97542781225559e+001

4.71766149533147e+005,-2.26354943748800e+001,-2.00233487811150e+001

4.78351759563174e+005,-2.26408197153988e+001,-2.02959411503179e+001

4.85029301283321e+005,-2.26462783435648e+001,-2.05720969425434e+001

4.91800058012158e+005,-2.26518733547219e+001,-2.08518582415684e+001

4.98665330982714e+005,-2.26576079098555e+001,-2.11352675018833e+001

5.05626439592555e+005,-2.26634852369143e+001,-2.14223675477624e+001

5.12684721657352e+005,-2.26695086321570e+001,-2.17132015720773e+001

5.19841533667984e+005,-2.26756814615231e+001,-2.20078131348335e+001

5.27098251051240e+005,-2.26820071620264e+001,-2.23062461614149e+001

5.34456268434150e+005,-2.26884892431720e+001,-2.26085449405181e+001

5.41916999912011e+005,-2.26951312883950e+001,-2.29147541217578e+001

