Freq.,VOut,OutRef

1.00000000000000e+004,-2.01930529975691e+001,-2.35466026404131e-001

1.01395947979003e+004,-2.01930541041438e+001,-2.38752956318708e-001

1.02811382665607e+004,-2.01930552418233e+001,-2.42085767799705e-001

1.04246576084112e+004,-2.01930564114815e+001,-2.45465101236273e-001

1.05701804056138e+004,-2.01930576140173e+001,-2.48891605948540e-001

1.07177346253629e+004,-2.01930588503546e+001,-2.52365940319845e-001

1.08673486252606e+004,-2.01930601214432e+001,-2.55888771918308e-001

1.10190511587661e+004,-2.01930614282600e+001,-2.59460777625683e-001

1.11728713807222e+004,-2.01930627718088e+001,-2.63082643769537e-001

1.13288388529580e+004,-2.01930641531220e+001,-2.66755066251697e-001

1.14869835499703e+004,-2.01930655732607e+001,-2.70478750684313e-001

1.16473358646846e+004,-2.01930670333161e+001,-2.74254412523124e-001

1.18099266142953e+004,-2.01930685344099e+001,-2.78082777205960e-001

1.19747870461893e+004,-2.01930700776951e+001,-2.81964580291769e-001

1.21419488439505e+004,-2.01930716643576e+001,-2.85900567600804e-001

1.23114441334492e+004,-2.01930732956161e+001,-2.89891495358651e-001

1.24833054890161e+004,-2.01930749727237e+001,-2.93938130340610e-001

1.26575659397028e+004,-2.01930766969688e+001,-2.98041250018061e-001

1.28342589756290e+004,-2.01930784696760e+001,-3.02201642708273e-001

1.30134185544193e+004,-2.01930802922069e+001,-3.06420107727022e-001

1.31950791077289e+004,-2.01930821659615e+001,-3.10697455537683e-001

1.33792755478611e+004,-2.01930840923789e+001,-3.15034507911987e-001

1.35660432744767e+004,-2.01930860729390e+001,-3.19432098081595e-001

1.37554181813974e+004,-2.01930881091629e+001,-3.23891070902364e-001

1.39474366635040e+004,-2.01930902026147e+001,-3.28412283013480e-001

1.41421356237309e+004,-2.01930923549019e+001,-3.32996603004809e-001

1.43395524801583e+004,-2.01930945676778e+001,-3.37644911578366e-001

1.45397251732031e+004,-2.01930968426417e+001,-3.42358101721528e-001

1.47426921729110e+004,-2.01930991815406e+001,-3.47137078875459e-001

1.49484924863494e+004,-2.01931015861709e+001,-3.51982761109099e-001

1.51571656651040e+004,-2.01931040583790e+001,-3.56896079296170e-001

1.53687518128801e+004,-2.01931066000634e+001,-3.61877977291219e-001

1.55832915932100e+004,-2.01931092131758e+001,-3.66929412112341e-001

1.58008262372675e+004,-2.01931118997226e+001,-3.72051354122722e-001

1.60213975517924e+004,-2.01931146617668e+001,-3.77244787217720e-001

1.62450479271247e+004,-2.01931175014289e+001,-3.82510709013183e-001

1.64718203453514e+004,-2.01931204208892e+001,-3.87850131033708e-001

1.67017583885674e+004,-2.01931234223892e+001,-3.93264078910250e-001

1.69349062472505e+004,-2.01931265082330e+001,-3.98753592573583e-001

1.71713087287550e+004,-2.01931296807898e+001,-4.04319726453559e-001

1.74110112659224e+004,-2.01931329424949e+001,-4.09963549681588e-001

1.76540599258131e+004,-2.01931362958520e+001,-4.15686146295178e-001

1.79005014185594e+004,-2.01931397434353e+001,-4.21488615442513e-001

1.81503831063432e+004,-2.01931432878908e+001,-4.27372071597647e-001

1.84037530124975e+004,-2.01931469319394e+001,-4.33337644767931e-001

1.86606598307361e+004,-2.01931506783774e+001,-4.39386480714941e-001

1.89211529345119e+004,-2.01931545300802e+001,-4.45519741170155e-001

1.91852823865052e+004,-2.01931584900037e+001,-4.51738604057651e-001

1.94530989482457e+004,-2.01931625611867e+001,-4.58044263718904e-001

1.97246540898671e+004,-2.01931667467532e+001,-4.64437931143055e-001

1.99999999999999e+004,-2.01931710499145e+001,-4.70920834196015e-001

2.02791895958005e+004,-2.01931754739727e+001,-4.77494217853489e-001

2.05622765331213e+004,-2.01931800223218e+001,-4.84159344442255e-001

2.08493152168224e+004,-2.01931846984511e+001,-4.90917493879898e-001

2.11403608112276e+004,-2.01931895059479e+001,-4.97769963916761e-001

2.14354692507258e+004,-2.01931944485001e+001,-5.04718070385675e-001

2.17346972505211e+004,-2.01931995298984e+001,-5.11763147454278e-001

2.20381023175322e+004,-2.01932047540405e+001,-5.18906547875116e-001

2.23457427614443e+004,-2.01932101249330e+001,-5.26149643247005e-001

2.26576777059159e+004,-2.01932156466945e+001,-5.33493824277392e-001

2.29739670999406e+004,-2.01932213235596e+001,-5.40940501042440e-001

2.32946717293690e+004,-2.01932271598809e+001,-5.48491103262162e-001

2.36198532285905e+004,-2.01932331601334e+001,-5.56147080566041e-001

2.39495740923785e+004,-2.01932393289172e+001,-5.63909902775770e-001

2.42838976879009e+004,-2.01932456709615e+001,-5.71781060179271e-001

2.46228882668982e+004,-2.01932521911275e+001,-5.79762063818189e-001

2.49666109780322e+004,-2.01932588944130e+001,-5.87854445773981e-001

2.53151318794055e+004,-2.01932657859554e+001,-5.96059759458904e-001

2.56685179512580e+004,-2.01932728710361e+001,-6.04379579912828e-001

2.60268371088386e+004,-2.01932801550842e+001,-6.12815504101684e-001

2.63901582154578e+004,-2.01932876436810e+001,-6.21369151220545e-001

2.67585510957221e+004,-2.01932953425638e+001,-6.30042163002405e-001

2.71320865489533e+004,-2.01933032576303e+001,-6.38836204030178e-001

2.75108363627948e+004,-2.01933113949436e+001,-6.47752962051352e-001

2.78948733270080e+004,-2.01933197607361e+001,-6.56794148298969e-001

2.82842712474618e+004,-2.01933283614145e+001,-6.65961497817611e-001

2.86791049603164e+004,-2.01933372035650e+001,-6.75256769790116e-001

2.90794503464061e+004,-2.01933462939576e+001,-6.84681747873512e-001

2.94853843458219e+004,-2.01933556395519e+001,-6.94238240535168e-001

2.98969849726987e+004,-2.01933652475017e+001,-7.03928081397273e-001

3.03143313302078e+004,-2.01933751251609e+001,-7.13753129582777e-001

3.07375036257601e+004,-2.01933852800891e+001,-7.23715270067452e-001

3.11665831864199e+004,-2.01933957200568e+001,-7.33816414036774e-001

3.16016524745350e+004,-2.01934064530518e+001,-7.44058499248880e-001

3.20427951035848e+004,-2.01934174872848e+001,-7.54443490398173e-001

3.24900958542493e+004,-2.01934288311961e+001,-7.64973379488418e-001

3.29436406907028e+004,-2.01934404934610e+001,-7.75650186210485e-001

3.34035167771346e+004,-2.01934524829979e+001,-7.86475958318863e-001

3.38698124945009e+004,-2.01934648089733e+001,-7.97452772024003e-001

3.43426174575100e+004,-2.01934774808098e+001,-8.08582732379410e-001

3.48220225318448e+004,-2.01934905081929e+001,-8.19867973680786e-001

3.53081198516260e+004,-2.01935039010781e+001,-8.31310659868279e-001

3.58010028371187e+004,-2.01935176696988e+001,-8.42912984931897e-001

3.63007662126863e+004,-2.01935318245731e+001,-8.54677173327623e-001

3.68075060249948e+004,-2.01935463765128e+001,-8.66605480392522e-001

3.73213196614721e+004,-2.01935613366308e+001,-8.78700192771509e-001

3.78423058690237e+004,-2.01935767163496e+001,-8.90963628844754e-001

3.83705647730104e+004,-2.01935925274096e+001,-9.03398139165681e-001

3.89061978964912e+004,-2.01936087818785e+001,-9.16006106898029e-001

3.94493081797342e+004,-2.01936254921595e+001,-9.28789948267654e-001

3.99999999999998e+004,-2.01936426710014e+001,-9.41752113010536e-001

4.05583791916010e+004,-2.01936603315071e+001,-9.54895084835230e-001

4.11245530662425e+004,-2.01936784871445e+001,-9.68221381884394e-001

4.16986304336447e+004,-2.01936971517555e+001,-9.81733557209892e-001

4.22807216224550e+004,-2.01937163395671e+001,-9.95434199244369e-001

4.28709385014515e+004,-2.01937360652013e+001,-1.00932593228982e+000

4.34693945010421e+004,-2.01937563436865e+001,-1.02341141700292e+000

4.40762046350642e+004,-2.01937771904680e+001,-1.03769335089421e+000

4.46914855228886e+004,-2.01937986214204e+001,-1.05217446882805e+000

4.53153554118317e+004,-2.01938206528583e+001,-1.06685754353323e+000

4.59479341998812e+004,-2.01938433015491e+001,-1.08174538611638e+000

4.65893434587380e+004,-2.01938665847250e+001,-1.09684084658707e+000

4.72397064571810e+004,-2.01938905200958e+001,-1.11214681438383e+000

4.78991481847569e+004,-2.01939151258619e+001,-1.12766621891190e+000

4.85677953758016e+004,-2.01939404207279e+001,-1.14340203008410e+000

4.92457765337964e+004,-2.01939664239160e+001,-1.15935725887177e+000

4.99332219560642e+004,-2.01939931551804e+001,-1.17553495786020e+000

5.06302637588109e+004,-2.01940206348216e+001,-1.19193822181242e+000

5.13370359025159e+004,-2.01940488837014e+001,-1.20857018824063e+000

5.20536742176771e+004,-2.01940779232579e+001,-1.22543403798337e+000

5.27803164309155e+004,-2.01941077755213e+001,-1.24253299579083e+000

5.35171021914442e+004,-2.01941384631300e+001,-1.25987033091852e+000

5.42641730979066e+004,-2.01941700093471e+001,-1.27744935772549e+000

5.50216727255895e+004,-2.01942024380770e+001,-1.29527343628440e+000

5.57897466540159e+004,-2.01942357738829e+001,-1.31334597299388e+000

5.65685424949235e+004,-2.01942700420050e+001,-1.33167042120364e+000

5.73582099206328e+004,-2.01943052683779e+001,-1.35025028184452e+000

5.81589006928121e+004,-2.01943414796499e+001,-1.36908910406603e+000

5.89707686916437e+004,-2.01943787032024e+001,-1.38819048588301e+000

5.97939699453972e+004,-2.01944169671685e+001,-1.40755807483118e+000

6.06286626604156e+004,-2.01944563004545e+001,-1.42719556862674e+000

6.14750072515201e+004,-2.01944967327599e+001,-1.44710671583877e+000

6.23331663728396e+004,-2.01945382945987e+001,-1.46729531656665e+000

6.32033049490698e+004,-2.01945810173209e+001,-1.48776522312726e+000

6.40855902071694e+004,-2.01946249331357e+001,-1.50852034074865e+000

6.49801917084985e+004,-2.01946700751333e+001,-1.52956462827542e+000

6.58872813814055e+004,-2.01947164773088e+001,-1.55090209887819e+000

6.68070335542691e+004,-2.01947641745863e+001,-1.57253682077534e+000

6.77396249890018e+004,-2.01948132028436e+001,-1.59447291796034e+000

6.86852349150199e+004,-2.01948635989372e+001,-1.61671457093993e+000

6.96440450636895e+004,-2.01949154007281e+001,-1.63926601747940e+000

7.06162397032520e+004,-2.01949686471086e+001,-1.66213155335787e+000

7.16020056742374e+004,-2.01950233780292e+001,-1.68531553313126e+000

7.26015324253724e+004,-2.01950796345264e+001,-1.70882237090466e+000

7.36150120499896e+004,-2.01951374587513e+001,-1.73265654111250e+000

7.46426393229441e+004,-2.01951968939988e+001,-1.75682257931066e+000

7.56846117380472e+004,-2.01952579847372e+001,-1.78132508297386e+000

7.67411295460207e+004,-2.01953207766392e+001,-1.80616871230346e+000

7.78123957929823e+004,-2.01953853166128e+001,-1.83135819104629e+000

7.88986163594682e+004,-2.01954516528334e+001,-1.85689830731996e+000

7.99999999999995e+004,-2.01955198347769e+001,-1.88279391444805e+000

8.11167583832018e+004,-2.01955899132532e+001,-1.90904993180582e+000

8.22491061324848e+004,-2.01956619404404e+001,-1.93567134567332e+000

8.33972608672892e+004,-2.01957359699197e+001,-1.96266321009971e+000

8.45614432449099e+004,-2.01958120567121e+001,-1.99003064777480e+000

8.57418770029029e+004,-2.01958902573148e+001,-2.01777885091235e+000

8.69387890020841e+004,-2.01959706297383e+001,-2.04591308214129e+000

8.81524092701283e+004,-2.01960532335459e+001,-2.07443867540597e+000

8.93829710457770e+004,-2.01961381298923e+001,-2.10336103687766e+000

9.06307108236633e+004,-2.01962253815640e+001,-2.13268564587453e+000

9.18958683997622e+004,-2.01963150530205e+001,-2.16241805579017e+000

9.31786869174758e+004,-2.01964072104363e+001,-2.19256389503421e+000

9.44794129143618e+004,-2.01965019217434e+001,-2.22312886798060e+000

9.57982963695136e+004,-2.01965992566760e+001,-2.25411875592494e+000

9.71355907516031e+004,-2.01966992868144e+001,-2.28553941805440e+000

9.84915530675926e+004,-2.01968020856314e+001,-2.31739679242365e+000

9.98664439121282e+004,-2.01969077285382e+001,-2.34969689694338e+000

1.01260527517622e+005,-2.01970162929332e+001,-2.38244583037691e+000

1.02674071805032e+005,-2.01971278582494e+001,-2.41564977334704e+000

1.04107348435354e+005,-2.01972425060050e+001,-2.44931498935181e+000

1.05560632861831e+005,-2.01973603198535e+001,-2.48344782579141e+000

1.07034204382888e+005,-2.01974813856356e+001,-2.51805471500330e+000

1.08528346195813e+005,-2.01976057914315e+001,-2.55314217530850e+000

1.10043345451179e+005,-2.01977336276150e+001,-2.58871681206593e+000

1.11579493308032e+005,-2.01978649869080e+001,-2.62478531873730e+000

1.13137084989847e+005,-2.01979999644362e+001,-2.66135447796261e+000

1.14716419841265e+005,-2.01981386577860e+001,-2.69843116264299e+000

1.16317801385624e+005,-2.01982811670620e+001,-2.73602233703544e+000

1.17941537383287e+005,-2.01984275949465e+001,-2.77413505785650e+000

1.19587939890794e+005,-2.01985780467588e+001,-2.81277647539431e+000

1.21257325320831e+005,-2.01987326305165e+001,-2.85195383463293e+000

1.22950014503040e+005,-2.01988914569972e+001,-2.89167447638363e+000

1.24666332745679e+005,-2.01990546398022e+001,-2.93194583842733e+000

1.26406609898139e+005,-2.01992222954197e+001,-2.97277545666651e+000

1.28171180414339e+005,-2.01993945432908e+001,-3.01417096628572e+000

1.29960383416997e+005,-2.01995715058752e+001,-3.05614010292347e+000

1.31774562762811e+005,-2.01997533087184e+001,-3.09869070385163e+000

1.33614067108538e+005,-2.01999400805201e+001,-3.14183070916593e+000

1.35479249978003e+005,-2.02001319532037e+001,-3.18556816298512e+000

1.37370469830040e+005,-2.02003290619859e+001,-3.22991121466056e+000

1.39288090127379e+005,-2.02005315454482e+001,-3.27486811999493e+000

1.41232479406504e+005,-2.02007395456095e+001,-3.32044724246941e+000

1.43204011348474e+005,-2.02009532079986e+001,-3.36665705448341e+000

1.45203064850745e+005,-2.02011726817287e+001,-3.41350613860007e+000

1.47230024099979e+005,-2.02013981195722e+001,-3.46100318880485e+000

1.49285278645888e+005,-2.02016296780367e+001,-3.50915701177202e+000

1.51369223476094e+005,-2.02018675174416e+001,-3.55797652814034e+000

1.53482259092041e+005,-2.02021118019959e+001,-3.60747077380071e+000

1.55624791585964e+005,-2.02023626998764e+001,-3.65764890119132e+000

1.57797232718936e+005,-2.02026203833066e+001,-3.70852018060482e+000

1.59999999999999e+005,-2.02028850286375e+001,-3.76009400150313e+000

1.62233516766403e+005,-2.02031568164270e+001,-3.81237987384529e+000

1.64498212264969e+005,-2.02034359315222e+001,-3.86538742942224e+000

1.66794521734578e+005,-2.02037225631408e+001,-3.91912642320537e+000

1.69122886489819e+005,-2.02040169049536e+001,-3.97360673470317e+000

1.71483754005805e+005,-2.02043191551676e+001,-4.02883836933014e+000

1.73877578004168e+005,-2.02046295166097e+001,-4.08483145978514e+000

1.76304818540256e+005,-2.02049481968100e+001,-4.14159626744276e+000

1.78765942091554e+005,-2.02052754080873e+001,-4.19914318375400e+000

1.81261421647326e+005,-2.02056113676324e+001,-4.25748273166164e+000

1.83791736799524e+005,-2.02059562975942e+001,-4.31662556702375e+000

1.86357373834951e+005,-2.02063104251642e+001,-4.37658248005374e+000

1.88958825828723e+005,-2.02066739826619e+001,-4.43736439676969e+000

1.91596592739027e+005,-2.02070472076208e+001,-4.49898238045913e+000

1.94271181503206e+005,-2.02074303428730e+001,-4.56144763315674e+000

1.96983106135185e+005,-2.02078236366354e+001,-4.62477149713561e+000

1.99732887824256e+005,-2.02082273425945e+001,-4.68896545641480e+000

2.02521055035243e+005,-2.02086417199920e+001,-4.75404113828026e+000

2.05348143610063e+005,-2.02090670337096e+001,-4.82001031482310e+000

2.08214696870707e+005,-2.02095035543535e+001,-4.88688490449448e+000

2.11121265723661e+005,-2.02099515583392e+001,-4.95467697367658e+000

2.14068408765776e+005,-2.02104113279748e+001,-5.02339873827330e+000

2.17056692391625e+005,-2.02108831515449e+001,-5.09306256531923e+000

2.20086690902357e+005,-2.02113673233933e+001,-5.16368097460873e+000

2.23158986616063e+005,-2.02118641440051e+001,-5.23526664034603e+000

2.26274169979693e+005,-2.02123739200885e+001,-5.30783239281744e+000

2.29432839682530e+005,-2.02128969646556e+001,-5.38139122008632e+000

2.32635602771247e+005,-2.02134335971024e+001,-5.45595626971288e+000

2.35883074766574e+005,-2.02139841432884e+001,-5.53154085049950e+000

2.39175879781588e+005,-2.02145489356144e+001,-5.60815843426283e+000

2.42514650641661e+005,-2.02151283131007e+001,-5.68582265763378e+000

2.45900029006080e+005,-2.02157226214630e+001,-5.76454732388887e+000

2.49332665491357e+005,-2.02163322131887e+001,-5.84434640481135e+000

2.52813219796278e+005,-2.02169574476110e+001,-5.92523404258637e+000

2.56342360828676e+005,-2.02175986909832e+001,-6.00722455173058e+000

2.59920766833993e+005,-2.02182563165509e+001,-6.09033242105872e+000

2.63549125525621e+005,-2.02189307046241e+001,-6.17457231568840e+000

2.67228134217075e+005,-2.02196222426483e+001,-6.25995907908545e+000

2.70958499956006e+005,-2.02203313252744e+001,-6.34650773515194e+000

2.74740939660078e+005,-2.02210583544281e+001,-6.43423349035932e+000

2.78576180254757e+005,-2.02218037393783e+001,-6.52315173592720e+000

2.82464958813007e+005,-2.02225678968057e+001,-6.61327805005249e+000

2.86408022696948e+005,-2.02233512508695e+001,-6.70462820019028e+000

2.90406129701488e+005,-2.02241542332754e+001,-6.79721814538704e+000

2.94460048199957e+005,-2.02249772833422e+001,-6.89106403867222e+000

2.98570557291775e+005,-2.02258208480687e+001,-6.98618222950757e+000

3.02738446952187e+005,-2.02266853822014e+001,-7.08258926629822e+000

3.06964518184081e+005,-2.02275713483019e+001,-7.18030189896835e+000

3.11249583171928e+005,-2.02284792168152e+001,-7.27933708160328e+000

3.15594465437872e+005,-2.02294094661396e+001,-7.37971197516117e+000

3.19999999999997e+005,-2.02303625826969e+001,-7.48144395025717e+000

3.24467033532806e+005,-2.02313390610054e+001,-7.58455059002209e+000

3.28996424529938e+005,-2.02323394037545e+001,-7.68904969303921e+000

3.33589043469155e+005,-2.02333641218812e+001,-7.79495927636068e+000

3.38245772979638e+005,-2.02344137346513e+001,-7.90229757860739e+000

3.42967508011610e+005,-2.02354887697418e+001,-8.01108306315485e+000

3.47755156008335e+005,-2.02365897633295e+001,-8.12133442140568e+000

3.52609637080511e+005,-2.02377172601830e+001,-8.23307057615387e+000

3.57531884183106e+005,-2.02388718137600e+001,-8.34631068504178e+000

3.62522843294651e+005,-2.02400539863108e+001,-8.46107414411161e+000

3.67583473599047e+005,-2.02412643489884e+001,-8.57738059145444e+000

3.72714747669902e+005,-2.02425034819658e+001,-8.69524991095847e+000

3.77917651657445e+005,-2.02437719745614e+001,-8.81470223615784e+000

3.83193185478053e+005,-2.02450704253732e+001,-8.93575795418422e+000

3.88542363006410e+005,-2.02463994424233e+001,-9.05843770982162e+000

3.93966212270369e+005,-2.02477596433126e+001,-9.18276240966631e+000

3.99465775648511e+005,-2.02491516553871e+001,-9.30875322639249e+000

4.05042110070485e+005,-2.02505761159174e+001,-9.43643160312319e+000

4.10696287220124e+005,-2.02520336722912e+001,-9.56581925790861e+000

4.16429393741414e+005,-2.02535249822208e+001,-9.69693818830938e+000

4.22242531447321e+005,-2.02550507139663e+001,-9.82981067608568e+000

4.28136817531551e+005,-2.02566115465756e+001,-9.96445929199151e+000

4.34113384783250e+005,-2.02582081701425e+001,-1.01009069006711e+001

4.40173381804713e+005,-2.02598412860835e+001,-1.02391766656574e+001

4.46317973232124e+005,-2.02615116074360e+001,-1.03792920544688e+001

4.52548339959385e+005,-2.02632198591765e+001,-1.05212768438037e+001

4.58865679365059e+005,-2.02649667785630e+001,-1.06651551248260e+001

4.65271205542494e+005,-2.02667531154999e+001,-1.08109513085418e+001

4.71766149533147e+005,-2.02685796329292e+001,-1.09586901312591e+001

4.78351759563174e+005,-2.02704471072476e+001,-1.11083966601295e+001

4.85029301283321e+005,-2.02723563287506e+001,-1.12600962987626e+001

4.91800058012158e+005,-2.02743081021060e+001,-1.14138147929100e+001

4.98665330982714e+005,-2.02763032468570e+001,-1.15695782362107e+001

5.05626439592555e+005,-2.02783425979561e+001,-1.17274130759918e+001

5.12684721657352e+005,-2.02804270063314e+001,-1.18873461191146e+001

5.19841533667984e+005,-2.02825573394855e+001,-1.20494045378620e+001

5.27098251051240e+005,-2.02847344821291e+001,-1.22136158758521e+001

5.34456268434150e+005,-2.02869593368496e+001,-1.23800080539748e+001

5.41916999912011e+005,-2.02892328248149e+001,-1.25486093763368e+001

