Freq.,VOut,OutRef

1.00000000000000e+004,-2.27655073848296e+001,-3.33480154399307e-001

1.01395947979003e+004,-2.27655091487318e+001,-3.38135306543236e-001

1.02811382665607e+004,-2.27655109622194e+001,-3.42855439755548e-001

1.04246576084112e+004,-2.27655128266860e+001,-3.47641461034799e-001

1.05701804056138e+004,-2.27655147435648e+001,-3.52494290035352e-001

1.07177346253629e+004,-2.27655167143287e+001,-3.57414859246975e-001

1.08673486252606e+004,-2.27655187404925e+001,-3.62404114170472e-001

1.10190511587661e+004,-2.27655208236134e+001,-3.67463013500467e-001

1.11728713807222e+004,-2.27655229652922e+001,-3.72592529309272e-001

1.13288388529580e+004,-2.27655251671748e+001,-3.77793647233633e-001

1.14869835499703e+004,-2.27655274309535e+001,-3.83067366663701e-001

1.16473358646846e+004,-2.27655297583679e+001,-3.88414700935191e-001

1.18099266142953e+004,-2.27655321512066e+001,-3.93836677521688e-001

1.19747870461893e+004,-2.27655346113087e+001,-3.99334338234860e-001

1.21419488439505e+004,-2.27655371405644e+001,-4.04908739422885e-001

1.23114441334492e+004,-2.27655397409175e+001,-4.10560952172267e-001

1.24833054890161e+004,-2.27655424143663e+001,-4.16292062515008e-001

1.26575659397028e+004,-2.27655451629652e+001,-4.22103171634582e-001

1.28342589756290e+004,-2.27655479888263e+001,-4.27995396080216e-001

1.30134185544193e+004,-2.27655508941211e+001,-4.33969867979079e-001

1.31950791077289e+004,-2.27655538810821e+001,-4.40027735252399e-001

1.33792755478611e+004,-2.27655569520046e+001,-4.46170161838091e-001

1.35660432744767e+004,-2.27655601092481e+001,-4.52398327913473e-001

1.37554181813974e+004,-2.27655633552390e+001,-4.58713430118088e-001

1.39474366635040e+004,-2.27655666924711e+001,-4.65116681789338e-001

1.41421356237309e+004,-2.27655701235087e+001,-4.71609313189157e-001

1.43395524801583e+004,-2.27655736509882e+001,-4.78192571743875e-001

1.45397251732031e+004,-2.27655772776197e+001,-4.84867722281143e-001

1.47426921729110e+004,-2.27655810061900e+001,-4.91636047272194e-001

1.49484924863494e+004,-2.27655848395637e+001,-4.98498847079825e-001

1.51571656651040e+004,-2.27655887806859e+001,-5.05457440206966e-001

1.53687518128801e+004,-2.27655928325849e+001,-5.12513163545797e-001

1.55832915932100e+004,-2.27655969983733e+001,-5.19667372640083e-001

1.58008262372675e+004,-2.27656012812518e+001,-5.26921441939984e-001

1.60213975517924e+004,-2.27656056845107e+001,-5.34276765066565e-001

1.62450479271247e+004,-2.27656102115330e+001,-5.41734755079743e-001

1.64718203453514e+004,-2.27656148657960e+001,-5.49296844749911e-001

1.67017583885674e+004,-2.27656196508756e+001,-5.56964486827806e-001

1.69349062472505e+004,-2.27656245704475e+001,-5.64739154328601e-001

1.71713087287550e+004,-2.27656296282909e+001,-5.72622340810063e-001

1.74110112659224e+004,-2.27656348282910e+001,-5.80615560659551e-001

1.76540599258131e+004,-2.27656401744423e+001,-5.88720349383833e-001

1.79005014185594e+004,-2.27656456708511e+001,-5.96938263904941e-001

1.81503831063432e+004,-2.27656513217394e+001,-6.05270882854616e-001

1.84037530124975e+004,-2.27656571314477e+001,-6.13719806879111e-001

1.86606598307361e+004,-2.27656631044382e+001,-6.22286658945079e-001

1.89211529345119e+004,-2.27656692452984e+001,-6.30973084649764e-001

1.91852823865052e+004,-2.27656755587448e+001,-6.39780752535201e-001

1.94530989482457e+004,-2.27656820496262e+001,-6.48711354409484e-001

1.97246540898671e+004,-2.27656887229276e+001,-6.57766605667604e-001

1.99999999999999e+004,-2.27656955837738e+001,-6.66948245621536e-001

2.02791895958005e+004,-2.27657026374337e+001,-6.76258037832575e-001

2.05622765331213e+004,-2.27657098893238e+001,-6.85697770448084e-001

2.08493152168224e+004,-2.27657173450130e+001,-6.95269256542648e-001

2.11403608112276e+004,-2.27657250102263e+001,-7.04974334466920e-001

2.14354692507258e+004,-2.27657328908494e+001,-7.14814868196519e-001

2.17346972505211e+004,-2.27657409929333e+001,-7.24792747689204e-001

2.20381023175322e+004,-2.27657493226988e+001,-7.34909889246159e-001

2.23457427614443e+004,-2.27657578865412e+001,-7.45168235878023e-001

2.26576777059159e+004,-2.27657666910353e+001,-7.55569757675503e-001

2.29739670999406e+004,-2.27657757429406e+001,-7.66116452185849e-001

2.32946717293690e+004,-2.27657850492060e+001,-7.76810344794353e-001

2.36198532285905e+004,-2.27657946169756e+001,-7.87653489111008e-001

2.39495740923785e+004,-2.27658044535936e+001,-7.98647967363030e-001

2.42838976879009e+004,-2.27658145666107e+001,-8.09795890790072e-001

2.46228882668982e+004,-2.27658249637892e+001,-8.21099400048653e-001

2.49666109780322e+004,-2.27658356531092e+001,-8.32560665621637e-001

2.53151318794055e+004,-2.27658466427745e+001,-8.44181888229419e-001

2.56685179512580e+004,-2.27658579412194e+001,-8.55965299250941e-001

2.60268371088386e+004,-2.27658695571143e+001,-8.67913161149224e-001

2.63901582154578e+004,-2.27658814993730e+001,-8.80027767902051e-001

2.67585510957221e+004,-2.27658937771593e+001,-8.92311445439710e-001

2.71320865489533e+004,-2.27659063998939e+001,-9.04766552086393e-001

2.75108363627948e+004,-2.27659193772618e+001,-9.17395479011764e-001

2.78948733270080e+004,-2.27659327192192e+001,-9.30200650683632e-001

2.82842712474618e+004,-2.27659464360017e+001,-9.43184525332027e-001

2.86791049603164e+004,-2.27659605381321e+001,-9.56349595413515e-001

2.90794503464061e+004,-2.27659750364274e+001,-9.69698388089728e-001

2.94853843458219e+004,-2.27659899420087e+001,-9.83233465703388e-001

2.98969849726987e+004,-2.27660052663080e+001,-9.96957426269572e-001

3.03143313302078e+004,-2.27660210210783e+001,-1.01087290396635e+000

3.07375036257601e+004,-2.27660372184014e+001,-1.02498256963766e+000

3.11665831864199e+004,-2.27660538706980e+001,-1.03928913129811e+000

3.16016524745350e+004,-2.27660709907366e+001,-1.05379533465021e+000

3.20427951035848e+004,-2.27660885916436e+001,-1.06850396360185e+000

3.24900958542493e+004,-2.27661066869127e+001,-1.08341784079889e+000

3.29436406907028e+004,-2.27661252904159e+001,-1.09853982815628e+000

3.34035167771346e+004,-2.27661444164136e+001,-1.11387282740435e+000

3.38698124945009e+004,-2.27661640795654e+001,-1.12941978063583e+000

3.43426174575100e+004,-2.27661842949414e+001,-1.14518367086546e+000

3.48220225318448e+004,-2.27662050780337e+001,-1.16116752259390e+000

3.53081198516260e+004,-2.27662264447679e+001,-1.17737440238067e+000

3.58010028371187e+004,-2.27662484115156e+001,-1.19380741942382e+000

3.63007662126863e+004,-2.27662709951062e+001,-1.21046972614942e+000

3.68075060249948e+004,-2.27662942128404e+001,-1.22736451880604e+000

3.73213196614721e+004,-2.27663180825027e+001,-1.24449503806951e+000

3.78423058690237e+004,-2.27663426223751e+001,-1.26186456965570e+000

3.83705647730104e+004,-2.27663678512511e+001,-1.27947644493960e+000

3.89061978964912e+004,-2.27663937884497e+001,-1.29733404158518e+000

3.94493081797342e+004,-2.27664204538302e+001,-1.31544078418116e+000

3.99999999999998e+004,-2.27664478678070e+001,-1.33380014488822e+000

4.05583791916010e+004,-2.27664760513653e+001,-1.35241564409228e+000

4.11245530662425e+004,-2.27665050260768e+001,-1.37129085106688e+000

4.16986304336447e+004,-2.27665348141159e+001,-1.39042938464681e+000

4.22807216224550e+004,-2.27665654382767e+001,-1.40983491390647e+000

4.28709385014515e+004,-2.27665969219900e+001,-1.42951115885144e+000

4.34693945010421e+004,-2.27666292893411e+001,-1.44946189111649e+000

4.40762046350642e+004,-2.27666625650878e+001,-1.46969093467424e+000

4.46914855228886e+004,-2.27666967746792e+001,-1.49020216655233e+000

4.53153554118317e+004,-2.27667319442747e+001,-1.51099951756015e+000

4.59479341998812e+004,-2.27667681007641e+001,-1.53208697302603e+000

4.65893434587380e+004,-2.27668052717871e+001,-1.55346857354275e+000

4.72397064571810e+004,-2.27668434857549e+001,-1.57514841572419e+000

4.78991481847569e+004,-2.27668827718708e+001,-1.59713065297128e+000

4.85677953758016e+004,-2.27669231601526e+001,-1.61941949624811e+000

4.92457765337964e+004,-2.27669646814550e+001,-1.64201921486674e+000

4.99332219560642e+004,-2.27670073674927e+001,-1.66493413728607e+000

5.06302637588109e+004,-2.27670512508642e+001,-1.68816865191565e+000

5.13370359025159e+004,-2.27670963650760e+001,-1.71172720793574e+000

5.20536742176771e+004,-2.27671427445681e+001,-1.73561431612333e+000

5.27803164309155e+004,-2.27671904247392e+001,-1.75983454969134e+000

5.35171021914442e+004,-2.27672394419737e+001,-1.78439254513764e+000

5.42641730979066e+004,-2.27672898336684e+001,-1.80929300310588e+000

5.50216727255895e+004,-2.27673416382606e+001,-1.83454068925681e+000

5.57897466540159e+004,-2.27673948952566e+001,-1.86014043515037e+000

5.65685424949235e+004,-2.27674496452615e+001,-1.88609713913988e+000

5.73582099206328e+004,-2.27675059300088e+001,-1.91241576727742e+000

5.81589006928121e+004,-2.27675637923919e+001,-1.93910135423034e+000

5.89707686916437e+004,-2.27676232764957e+001,-1.96615900421024e+000

5.97939699453972e+004,-2.27676844276294e+001,-1.99359389191229e+000

6.06286626604156e+004,-2.27677472923600e+001,-2.02141126346794e+000

6.14750072515201e+004,-2.27678119185469e+001,-2.04961643740893e+000

6.23331663728396e+004,-2.27678783553769e+001,-2.07821480564341e+000

6.32033049490698e+004,-2.27679466534013e+001,-2.10721183444417e+000

6.40855902071694e+004,-2.27680168645722e+001,-2.13661306544917e+000

6.49801917084985e+004,-2.27680890422817e+001,-2.16642411667604e+000

6.58872813814055e+004,-2.27681632414005e+001,-2.19665068354588e+000

6.68070335542691e+004,-2.27682395183187e+001,-2.22729853992325e+000

6.77396249890018e+004,-2.27683179309871e+001,-2.25837353916663e+000

6.86852349150199e+004,-2.27683985389596e+001,-2.28988161519261e+000

6.96440450636895e+004,-2.27684814034367e+001,-2.32182878355380e+000

7.06162397032520e+004,-2.27685665873107e+001,-2.35422114252792e+000

7.16020056742374e+004,-2.27686541552112e+001,-2.38706487422236e+000

7.26015324253724e+004,-2.27687441735524e+001,-2.42036624569076e+000

7.36150120499896e+004,-2.27688367105815e+001,-2.45413161006303e+000

7.46426393229441e+004,-2.27689318364286e+001,-2.48836740768948e+000

7.56846117380472e+004,-2.27690296231568e+001,-2.52308016729871e+000

7.67411295460207e+004,-2.27691301448154e+001,-2.55827650716862e+000

7.78123957929823e+004,-2.27692334774930e+001,-2.59396313631165e+000

7.88986163594682e+004,-2.27693396993725e+001,-2.63014685567398e+000

7.99999999999995e+004,-2.27694488907878e+001,-2.66683455934845e+000

8.11167583832018e+004,-2.27695611342811e+001,-2.70403323580325e+000

8.22491061324848e+004,-2.27696765146630e+001,-2.74174996912178e+000

8.33972608672892e+004,-2.27697951190726e+001,-2.77999194026016e+000

8.45614432449099e+004,-2.27699170370404e+001,-2.81876642831727e+000

8.57418770029029e+004,-2.27700423605522e+001,-2.85808081181950e+000

8.69387890020841e+004,-2.27701711841147e+001,-2.89794257002039e+000

8.81524092701283e+004,-2.27703036048228e+001,-2.93835928421547e+000

8.93829710457770e+004,-2.27704397224284e+001,-2.97933863907118e+000

9.06307108236633e+004,-2.27705796394116e+001,-3.02088842396829e+000

9.18958683997622e+004,-2.27707234610526e+001,-3.06301653436154e+000

9.31786869174758e+004,-2.27708712955066e+001,-3.10573097315340e+000

9.44794129143618e+004,-2.27710232538794e+001,-3.14903985208255e+000

9.57982963695136e+004,-2.27711794503061e+001,-3.19295139312863e+000

9.71355907516031e+004,-2.27713400020305e+001,-3.23747392993090e+000

9.84915530675926e+004,-2.27715050294874e+001,-3.28261590922337e+000

9.98664439121282e+004,-2.27716746563866e+001,-3.32838589228457e+000

1.01260527517622e+005,-2.27718490097987e+001,-3.37479255640220e+000

1.02674071805032e+005,-2.27720282202436e+001,-3.42184469635434e+000

1.04107348435354e+005,-2.27722124217804e+001,-3.46955122590578e+000

1.05560632861831e+005,-2.27724017521002e+001,-3.51792117931833e+000

1.07034204382888e+005,-2.27725963526205e+001,-3.56696371287955e+000

1.08528346195813e+005,-2.27727963685828e+001,-3.61668810644374e+000

1.10043345451179e+005,-2.27730019491510e+001,-3.66710376499127e+000

1.11579493308032e+005,-2.27732132475139e+001,-3.71822022020190e+000

1.13137084989847e+005,-2.27734304209886e+001,-3.77004713204472e+000

1.14716419841265e+005,-2.27736536311278e+001,-3.82259429038174e+000

1.16317801385624e+005,-2.27738830438281e+001,-3.87587161659033e+000

1.17941537383287e+005,-2.27741188294418e+001,-3.92988916519844e+000

1.19587939890794e+005,-2.27743611628916e+001,-3.98465712553665e+000

1.21257325320831e+005,-2.27746102237868e+001,-4.04018582340561e+000

1.22950014503040e+005,-2.27748661965429e+001,-4.09648572276018e+000

1.24666332745679e+005,-2.27751292705044e+001,-4.15356742740652e+000

1.26406609898139e+005,-2.27753996400691e+001,-4.21144168271781e+000

1.28171180414339e+005,-2.27756775048164e+001,-4.27011937736374e+000

1.29960383416997e+005,-2.27759630696383e+001,-4.32961154505557e+000

1.31774562762811e+005,-2.27762565448723e+001,-4.38992936630762e+000

1.33614067108538e+005,-2.27765581464389e+001,-4.45108417021333e+000

1.35479249978003e+005,-2.27768680959809e+001,-4.51308743623703e+000

1.37370469830040e+005,-2.27771866210060e+001,-4.57595079602121e+000

1.39288090127379e+005,-2.27775139550332e+001,-4.63968603520922e+000

1.41232479406504e+005,-2.27778503377414e+001,-4.70430509528267e+000

1.43204011348474e+005,-2.27781960151216e+001,-4.76982007541451e+000

1.45203064850745e+005,-2.27785512396329e+001,-4.83624323433771e+000

1.47230024099979e+005,-2.27789162703611e+001,-4.90358699222744e+000

1.49285278645888e+005,-2.27792913731807e+001,-4.97186393260037e+000

1.51369223476094e+005,-2.27796768209207e+001,-5.04108680422760e+000

1.53482259092041e+005,-2.27800728935340e+001,-5.11126852306220e+000

1.55624791585964e+005,-2.27804798782691e+001,-5.18242217418349e+000

1.57797232718936e+005,-2.27808980698470e+001,-5.25456101375329e+000

1.59999999999999e+005,-2.27813277706406e+001,-5.32769847098980e+000

1.62233516766403e+005,-2.27817692908580e+001,-5.40184815015366e+000

1.64498212264969e+005,-2.27822229487293e+001,-5.47702383255012e+000

1.66794521734578e+005,-2.27826890706981e+001,-5.55323947854511e+000

1.69122886489819e+005,-2.27831679916150e+001,-5.63050922959574e+000

1.71483754005805e+005,-2.27836600549367e+001,-5.70884741029581e+000

1.73877578004168e+005,-2.27841656129277e+001,-5.78826853043446e+000

1.76304818540256e+005,-2.27846850268670e+001,-5.86878728706965e+000

1.78765942091554e+005,-2.27852186672574e+001,-5.95041856661756e+000

1.81261421647326e+005,-2.27857669140401e+001,-6.03317744695291e+000

1.83791736799524e+005,-2.27863301568127e+001,-6.11707919952575e+000

1.86357373834951e+005,-2.27869087950512e+001,-6.20213929149245e+000

1.88958825828723e+005,-2.27875032383363e+001,-6.28837338785974e+000

1.91596592739027e+005,-2.27881139065844e+001,-6.37579735364338e+000

1.94271181503206e+005,-2.27887412302816e+001,-6.46442725604120e+000

1.96983106135185e+005,-2.27893856507230e+001,-6.55427936662031e+000

1.99732887824256e+005,-2.27900476202563e+001,-6.64537016351798e+000

2.02521055035243e+005,-2.27907276025291e+001,-6.73771633365743e+000

2.05348143610063e+005,-2.27914260727410e+001,-6.83133477497798e+000

2.08214696870707e+005,-2.27921435179003e+001,-6.92624259867885e+000

2.11121265723661e+005,-2.27928804370851e+001,-7.02245713147855e+000

2.14068408765776e+005,-2.27936373417091e+001,-7.11999591788777e+000

2.17056692391625e+005,-2.27944147557915e+001,-7.21887672249868e+000

2.20086690902357e+005,-2.27952132162324e+001,-7.31911753228724e+000

2.23158986616063e+005,-2.27960332730924e+001,-7.42073655893235e+000

2.26274169979693e+005,-2.27968754898773e+001,-7.52375224114923e+000

2.29432839682530e+005,-2.27977404438277e+001,-7.62818324703902e+000

2.32635602771247e+005,-2.27986287262131e+001,-7.73404847645403e+000

2.35883074766574e+005,-2.27995409426321e+001,-7.84136706337914e+000

2.39175879781588e+005,-2.28004777133167e+001,-7.95015837832905e+000

2.42514650641661e+005,-2.28014396734421e+001,-8.06044203076373e+000

2.45900029006080e+005,-2.28024274734424e+001,-8.17223787151940e+000

2.49332665491357e+005,-2.28034417793315e+001,-8.28556599525738e+000

2.52813219796278e+005,-2.28044832730288e+001,-8.40044674293184e+000

2.56342360828676e+005,-2.28055526526918e+001,-8.51690070427429e+000

2.59920766833993e+005,-2.28066506330535e+001,-8.63494872029795e+000

2.63549125525621e+005,-2.28077779457669e+001,-8.75461188582038e+000

2.67228134217075e+005,-2.28089353397542e+001,-8.87591155200674e+000

2.70958499956006e+005,-2.28101235815634e+001,-8.99886932893206e+000

2.74740939660078e+005,-2.28113434557313e+001,-9.12350708816535e+000

2.78576180254757e+005,-2.28125957651523e+001,-9.24984696537329e+000

2.82464958813007e+005,-2.28138813314553e+001,-9.37791136294740e+000

2.86408022696948e+005,-2.28152009953864e+001,-9.50772295265172e+000

2.90406129701488e+005,-2.28165556172004e+001,-9.63930467829381e+000

2.94460048199957e+005,-2.28179460770586e+001,-9.77267975841912e+000

2.98570557291775e+005,-2.28193732754349e+001,-9.90787168902846e+000

3.02738446952187e+005,-2.28208381335309e+001,-1.00449042463193e+001

3.06964518184081e+005,-2.28223415936977e+001,-1.01838014894527e+001

3.11249583171928e+005,-2.28238846198685e+001,-1.03245877633434e+001

3.15594465437872e+005,-2.28254681979991e+001,-1.04672877014766e+001

3.19999999999997e+005,-2.28270933365182e+001,-1.06119262287486e+001

3.24467033532806e+005,-2.28287610667879e+001,-1.07585285643346e+001

3.28996424529938e+005,-2.28304724435747e+001,-1.09071202245810e+001

3.33589043469155e+005,-2.28322285455308e+001,-1.10577270259234e+001

3.38245772979638e+005,-2.28340304756871e+001,-1.12103750878310e+001

3.42967508011610e+005,-2.28358793619581e+001,-1.13650908357760e+001

3.47755156008335e+005,-2.28377763576590e+001,-1.15219010042269e+001

3.52609637080511e+005,-2.28397226420356e+001,-1.16808326396685e+001

3.57531884183106e+005,-2.28417194208079e+001,-1.18419131036431e+001

3.62522843294651e+005,-2.28437679267278e+001,-1.20051700758166e+001

3.67583473599047e+005,-2.28458694201513e+001,-1.21706315570652e+001

3.72714747669902e+005,-2.28480251896260e+001,-1.23383258725829e+001

3.77917651657445e+005,-2.28502365524955e+001,-1.25082816750080e+001

3.83193185478053e+005,-2.28525048555192e+001,-1.26805279475667e+001

3.88542363006410e+005,-2.28548314755111e+001,-1.28550940072310e+001

3.93966212270369e+005,-2.28572178199952e+001,-1.30320095078900e+001

3.99465775648511e+005,-2.28596653278817e+001,-1.32113044435300e+001

4.05042110070485e+005,-2.28621754701614e+001,-1.33930091514222e+001

4.10696287220124e+005,-2.28647497506216e+001,-1.35771543153125e+001

4.16429393741414e+005,-2.28673897065834e+001,-1.37637709686117e+001

4.22242531447321e+005,-2.28700969096607e+001,-1.39528904975790e+001

4.28136817531551e+005,-2.28728729665426e+001,-1.41445446444974e+001

4.34113384783250e+005,-2.28757195198000e+001,-1.43387655108332e+001

4.40173381804713e+005,-2.28786382487160e+001,-1.45355855603750e+001

4.46317973232124e+005,-2.28816308701429e+001,-1.47350376223457e+001

4.52548339959385e+005,-2.28846991393850e+001,-1.49371548944816e+001

4.58865679365059e+005,-2.28878448511084e+001,-1.51419709460697e+001

4.65271205542494e+005,-2.28910698402793e+001,-1.53495197209379e+001

4.71766149533147e+005,-2.28943759831304e+001,-1.55598355403871e+001

4.78351759563174e+005,-2.28977651981572e+001,-1.57729531060590e+001

4.85029301283321e+005,-2.29012394471444e+001,-1.59889075027273e+001

4.91800058012158e+005,-2.29048007362228e+001,-1.62077342010054e+001

4.98665330982714e+005,-2.29084511169576e+001,-1.64294690599566e+001

5.05626439592555e+005,-2.29121926874688e+001,-1.66541483295998e+001

5.12684721657352e+005,-2.29160275935842e+001,-1.68818086532934e+001

5.19841533667984e+005,-2.29199580300245e+001,-1.71124870699914e+001

5.27098251051240e+005,-2.29239862416226e+001,-1.73462210163530e+001

5.34456268434150e+005,-2.29281145245752e+001,-1.75830483286964e+001

5.41916999912011e+005,-2.29323452277285e+001,-1.78230072447798e+001

