Freq.,VOut,OutRef

1.00000000000000e+004,-1.64764816219734e+001,-1.14456407658628e-001

1.01395947979003e+004,-1.64764818949459e+001,-1.16054142821212e-001

1.02811382665607e+004,-1.64764821755909e+001,-1.17674180824068e-001

1.04246576084112e+004,-1.64764824641238e+001,-1.19316832974851e-001

1.05701804056138e+004,-1.64764827607666e+001,-1.20982414921735e-001

1.07177346253629e+004,-1.64764830657471e+001,-1.22671246720196e-001

1.08673486252606e+004,-1.64764833792994e+001,-1.24383652892367e-001

1.10190511587661e+004,-1.64764837016646e+001,-1.26119962488592e-001

1.11728713807222e+004,-1.64764840330899e+001,-1.27880509152161e-001

1.13288388529580e+004,-1.64764843738305e+001,-1.29665631178664e-001

1.14869835499703e+004,-1.64764847241475e+001,-1.31475671589683e-001

1.16473358646846e+004,-1.64764850843104e+001,-1.33310978189109e-001

1.18099266142953e+004,-1.64764854545958e+001,-1.35171903636105e-001

1.19747870461893e+004,-1.64764858352879e+001,-1.37058805510950e-001

1.21419488439505e+004,-1.64764862266792e+001,-1.38972046384053e-001

1.23114441334492e+004,-1.64764866290703e+001,-1.40911993883641e-001

1.24833054890161e+004,-1.64764870427702e+001,-1.42879020768725e-001

1.26575659397028e+004,-1.64764874680965e+001,-1.44873504999536e-001

1.28342589756290e+004,-1.64764879053762e+001,-1.46895829809273e-001

1.30134185544193e+004,-1.64764883549446e+001,-1.48946383781235e-001

1.31950791077289e+004,-1.64764888171474e+001,-1.51025560915893e-001

1.33792755478611e+004,-1.64764892923391e+001,-1.53133760716111e-001

1.35660432744767e+004,-1.64764897808849e+001,-1.55271388255907e-001

1.37554181813974e+004,-1.64764902831599e+001,-1.57438854261003e-001

1.39474366635040e+004,-1.64764907995493e+001,-1.59636575191114e-001

1.41421356237309e+004,-1.64764913304501e+001,-1.61864973311988e-001

1.43395524801583e+004,-1.64764918762698e+001,-1.64124476782669e-001

1.45397251732031e+004,-1.64764924374272e+001,-1.66415519736820e-001

1.47426921729110e+004,-1.64764930143533e+001,-1.68738542363103e-001

1.49484924863494e+004,-1.64764936074908e+001,-1.71093990993241e-001

1.51571656651040e+004,-1.64764942172952e+001,-1.73482318183518e-001

1.53687518128801e+004,-1.64764948442344e+001,-1.75903982805914e-001

1.55832915932100e+004,-1.64764954887897e+001,-1.78359450132807e-001

1.58008262372675e+004,-1.64764961514559e+001,-1.80849191926441e-001

1.60213975517924e+004,-1.64764968327414e+001,-1.83373686531860e-001

1.62450479271247e+004,-1.64764975331693e+001,-1.85933418965601e-001

1.64718203453514e+004,-1.64764982532769e+001,-1.88528881011493e-001

1.67017583885674e+004,-1.64764989936170e+001,-1.91160571311229e-001

1.69349062472505e+004,-1.64764997547573e+001,-1.93828995464931e-001

1.71713087287550e+004,-1.64765005372822e+001,-1.96534666121286e-001

1.74110112659224e+004,-1.64765013417920e+001,-1.99278103082932e-001

1.76540599258131e+004,-1.64765021689039e+001,-2.02059833401245e-001

1.79005014185594e+004,-1.64765030192526e+001,-2.04880391478333e-001

1.81503831063432e+004,-1.64765038934901e+001,-2.07740319171697e-001

1.84037530124975e+004,-1.64765047922872e+001,-2.10640165894565e-001

1.86606598307361e+004,-1.64765057163333e+001,-2.13580488722655e-001

1.89211529345119e+004,-1.64765066663371e+001,-2.16561852501815e-001

1.91852823865052e+004,-1.64765076430271e+001,-2.19584829954544e-001

1.94530989482457e+004,-1.64765086471525e+001,-2.22650001789365e-001

1.97246540898671e+004,-1.64765096794833e+001,-2.25757956814607e-001

1.99999999999999e+004,-1.64765107408108e+001,-2.28909292049089e-001

2.02791895958005e+004,-1.64765118319488e+001,-2.32104612836814e-001

2.05622765331213e+004,-1.64765129537341e+001,-2.35344532960590e-001

2.08493152168224e+004,-1.64765141070264e+001,-2.38629674764170e-001

2.11403608112276e+004,-1.64765152927098e+001,-2.41960669267641e-001

2.14354692507258e+004,-1.64765165116932e+001,-2.45338156288548e-001

2.17346972505211e+004,-1.64765177649106e+001,-2.48762784566638e-001

2.20381023175322e+004,-1.64765190533227e+001,-2.52235211884186e-001

2.23457427614443e+004,-1.64765203779166e+001,-2.55756105194450e-001

2.26576777059159e+004,-1.64765217397073e+001,-2.59326140748988e-001

2.29739670999406e+004,-1.64765231397380e+001,-2.62946004226254e-001

2.32946717293690e+004,-1.64765245790812e+001,-2.66616390862592e-001

2.36198532285905e+004,-1.64765260588395e+001,-2.70338005584788e-001

2.39495740923785e+004,-1.64765275801462e+001,-2.74111563145777e-001

2.42838976879009e+004,-1.64765291441664e+001,-2.77937788261176e-001

2.46228882668982e+004,-1.64765307520977e+001,-2.81817415745601e-001

2.49666109780322e+004,-1.64765324051713e+001,-2.85751190656203e-001

2.53151318794055e+004,-1.64765341046526e+001,-2.89739868432163e-001

2.56685179512580e+004,-1.64765358518427e+001,-2.93784215040084e-001

2.60268371088386e+004,-1.64765376480787e+001,-2.97885007121180e-001

2.63901582154578e+004,-1.64765394947353e+001,-3.02043032137252e-001

2.67585510957221e+004,-1.64765413932256e+001,-3.06259088522270e-001

2.71320865489533e+004,-1.64765433450020e+001,-3.10533985834936e-001

2.75108363627948e+004,-1.64765453515579e+001,-3.14868544911156e-001

2.78948733270080e+004,-1.64765474144277e+001,-3.19263598024194e-001

2.82842712474618e+004,-1.64765495351892e+001,-3.23719989039985e-001

2.86791049603164e+004,-1.64765517154642e+001,-3.28238573577736e-001

2.90794503464061e+004,-1.64765539569194e+001,-3.32820219176953e-001

2.94853843458219e+004,-1.64765562612683e+001,-3.37465805457878e-001

2.98969849726987e+004,-1.64765586302721e+001,-3.42176224292211e-001

3.03143313302078e+004,-1.64765610657413e+001,-3.46952379970452e-001

3.07375036257601e+004,-1.64765635695368e+001,-3.51795189376683e-001

3.11665831864199e+004,-1.64765661435709e+001,-3.56705582162720e-001

3.16016524745350e+004,-1.64765687898100e+001,-3.61684500921217e-001

3.20427951035848e+004,-1.64765715102748e+001,-3.66732901369769e-001

3.24900958542493e+004,-1.64765743070422e+001,-3.71851752530203e-001

3.29436406907028e+004,-1.64765771822474e+001,-3.77042036912494e-001

3.34035167771346e+004,-1.64765801380846e+001,-3.82304750702538e-001

3.38698124945009e+004,-1.64765831768093e+001,-3.87640903951273e-001

3.43426174575100e+004,-1.64765863007396e+001,-3.93051520765746e-001

3.48220225318448e+004,-1.64765895122584e+001,-3.98537639502925e-001

3.53081198516260e+004,-1.64765928138145e+001,-4.04100312970068e-001

3.58010028371187e+004,-1.64765962079250e+001,-4.09740608619476e-001

3.63007662126863e+004,-1.64765996971768e+001,-4.15459608755381e-001

3.68075060249948e+004,-1.64766032842289e+001,-4.21258410736018e-001

3.73213196614721e+004,-1.64766069718141e+001,-4.27138127183056e-001

3.78423058690237e+004,-1.64766107627406e+001,-4.33099886193523e-001

3.83705647730104e+004,-1.64766146598954e+001,-4.39144831549409e-001

3.89061978964912e+004,-1.64766186662449e+001,-4.45274122938186e-001

3.94493081797342e+004,-1.64766227848380e+001,-4.51488936171076e-001

3.99999999999998e+004,-1.64766270188082e+001,-4.57790463403592e-001

4.05583791916010e+004,-1.64766313713757e+001,-4.64179913363251e-001

4.11245530662425e+004,-1.64766358458501e+001,-4.70658511576521e-001

4.16986304336447e+004,-1.64766404456324e+001,-4.77227500600990e-001

4.22807216224550e+004,-1.64766451742179e+001,-4.83888140259378e-001

4.28709385014515e+004,-1.64766500351985e+001,-4.90641707877092e-001

4.34693945010421e+004,-1.64766550322655e+001,-4.97489498524444e-001

4.40762046350642e+004,-1.64766601692123e+001,-5.04432825258116e-001

4.46914855228886e+004,-1.64766654499369e+001,-5.11473019371284e-001

4.53153554118317e+004,-1.64766708784452e+001,-5.18611430642336e-001

4.59479341998812e+004,-1.64766764588533e+001,-5.25849427589718e-001

4.65893434587380e+004,-1.64766821953912e+001,-5.33188397729094e-001

4.72397064571810e+004,-1.64766880924053e+001,-5.40629747833744e-001

4.78991481847569e+004,-1.64766941543619e+001,-5.48174904199399e-001

4.85677953758016e+004,-1.64767003858501e+001,-5.55825312911676e-001

4.92457765337964e+004,-1.64767067915857e+001,-5.63582440116471e-001

4.99332219560642e+004,-1.64767133764138e+001,-5.71447772296335e-001

5.06302637588109e+004,-1.64767201453128e+001,-5.79422816548363e-001

5.13370359025159e+004,-1.64767271033981e+001,-5.87509100865776e-001

5.20536742176771e+004,-1.64767342559252e+001,-5.95708174424336e-001

5.27803164309155e+004,-1.64767416082941e+001,-6.04021607871195e-001

5.35171021914442e+004,-1.64767491660526e+001,-6.12450993619055e-001

5.42641730979066e+004,-1.64767569349007e+001,-6.20997946143960e-001

5.50216727255895e+004,-1.64767649206942e+001,-6.29664102284127e-001

5.57897466540159e+004,-1.64767731294493e+001,-6.38451121547974e-001

5.65685424949235e+004,-1.64767815673468e+001,-6.47360686419343e-001

5.73582099206328e+004,-1.64767902407359e+001,-6.56394502675564e-001

5.81589006928121e+004,-1.64767991561394e+001,-6.65554299699504e-001

5.89707686916437e+004,-1.64768083202579e+001,-6.74841830802835e-001

5.97939699453972e+004,-1.64768177399744e+001,-6.84258873552819e-001

6.06286626604156e+004,-1.64768274223596e+001,-6.93807230099377e-001

6.14750072515201e+004,-1.64768373746761e+001,-7.03488727510169e-001

6.23331663728396e+004,-1.64768476043842e+001,-7.13305218107820e-001

6.32033049490698e+004,-1.64768581191464e+001,-7.23258579812816e-001

6.40855902071694e+004,-1.64768689268330e+001,-7.33350716491016e-001

6.49801917084985e+004,-1.64768800355279e+001,-7.43583558302258e-001

6.58872813814055e+004,-1.64768914535331e+001,-7.53959062058982e-001

6.68070335542691e+004,-1.64769031893757e+001,-7.64479211584164e-001

6.77396249890018e+004,-1.64769152518125e+001,-7.75146018076863e-001

6.86852349150199e+004,-1.64769276498366e+001,-7.85961520482282e-001

6.96440450636895e+004,-1.64769403926835e+001,-7.96927785863140e-001

7.06162397032520e+004,-1.64769534898372e+001,-8.08046909781358e-001

7.16020056742374e+004,-1.64769669510363e+001,-8.19321016679208e-001

7.26015324253724e+004,-1.64769807862809e+001,-8.30752260268348e-001

7.36150120499896e+004,-1.64769950058392e+001,-8.42342823923077e-001

7.46426393229441e+004,-1.64770096202541e+001,-8.54094921077257e-001

7.56846117380472e+004,-1.64770246403503e+001,-8.66010795628118e-001

7.67411295460207e+004,-1.64770400772414e+001,-8.78092722343263e-001

7.78123957929823e+004,-1.64770559423372e+001,-8.90343007273072e-001

7.88986163594682e+004,-1.64770722473510e+001,-9.02763988171079e-001

7.99999999999995e+004,-1.64770890043074e+001,-9.15358034912251e-001

8.11167583832018e+004,-1.64771062255498e+001,-9.28127549926432e-001

8.22491061324848e+004,-1.64771239237485e+001,-9.41074968627441e-001

8.33972608672892e+004,-1.64771421119087e+001,-9.54202759853851e-001

8.45614432449099e+004,-1.64771608033789e+001,-9.67513426312145e-001

8.57418770029029e+004,-1.64771800118589e+001,-9.81009505026398e-001

8.69387890020841e+004,-1.64771997514089e+001,-9.94693567791136e-001

8.81524092701283e+004,-1.64772200364580e+001,-1.00856822163448e+000

8.93829710457770e+004,-1.64772408818131e+001,-1.02263610928090e+000

9.06307108236633e+004,-1.64772623026679e+001,-1.03689990962303e+000

9.18958683997622e+004,-1.64772843146126e+001,-1.05136233819916e+000

9.31786869174758e+004,-1.64773069336430e+001,-1.06602614767349e+000

9.44794129143618e+004,-1.64773301761701e+001,-1.08089412832670e+000

9.57982963695136e+004,-1.64773540590302e+001,-1.09596910854692e+000

9.71355907516031e+004,-1.64773785994946e+001,-1.11125395533038e+000

9.84915530675926e+004,-1.64774038152799e+001,-1.12675157478637e+000

9.98664439121282e+004,-1.64774297245582e+001,-1.14246491264850e+000

1.01260527517622e+005,-1.64774563459680e+001,-1.15839695479055e+000

1.02674071805032e+005,-1.64774836986245e+001,-1.17455072774978e+000

1.04107348435354e+005,-1.64775118021301e+001,-1.19092929925723e+000

1.05560632861831e+005,-1.64775406765868e+001,-1.20753577876890e+000

1.07034204382888e+005,-1.64775703426058e+001,-1.22437331801031e+000

1.08528346195813e+005,-1.64776008213199e+001,-1.24144511152131e+000

1.10043345451179e+005,-1.64776321343947e+001,-1.25875439720979e+000

1.11579493308032e+005,-1.64776643040401e+001,-1.27630445691169e+000

1.13137084989847e+005,-1.64776973530229e+001,-1.29409861695504e+000

1.14716419841265e+005,-1.64777313046778e+001,-1.31214024873302e+000

1.16317801385624e+005,-1.64777661829206e+001,-1.33043276928231e+000

1.17941537383287e+005,-1.64778020122595e+001,-1.34897964186705e+000

1.19587939890794e+005,-1.64778388178087e+001,-1.36778437657061e+000

1.21257325320831e+005,-1.64778766252999e+001,-1.38685053089224e+000

1.22950014503040e+005,-1.64779154610959e+001,-1.40618171035230e+000

1.24666332745679e+005,-1.64779553522030e+001,-1.42578156910248e+000

1.26406609898139e+005,-1.64779963262841e+001,-1.44565381054345e+000

1.28171180414339e+005,-1.64780384116717e+001,-1.46580218794869e+000

1.29960383416997e+005,-1.64780816373813e+001,-1.48623050509577e+000

1.31774562762811e+005,-1.64781260331246e+001,-1.50694261690378e+000

1.33614067108538e+005,-1.64781716293230e+001,-1.52794243007787e+000

1.35479249978003e+005,-1.64782184571205e+001,-1.54923390376203e+000

1.37370469830040e+005,-1.64782665483980e+001,-1.57082105019624e+000

1.39288090127379e+005,-1.64783159357862e+001,-1.59270793538247e+000

1.41232479406504e+005,-1.64783666526796e+001,-1.61489867975913e+000

1.43204011348474e+005,-1.64784187332500e+001,-1.63739745887882e+000

1.45203064850745e+005,-1.64784722124599e+001,-1.66020850409771e+000

1.47230024099979e+005,-1.64785271260764e+001,-1.68333610327054e+000

1.49285278645888e+005,-1.64785835106848e+001,-1.70678460145095e+000

1.51369223476094e+005,-1.64786414037017e+001,-1.73055840160411e+000

1.53482259092041e+005,-1.64787008433894e+001,-1.75466196532220e+000

1.55624791585964e+005,-1.64787618688680e+001,-1.77909981355225e+000

1.57797232718936e+005,-1.64788245201301e+001,-1.80387652732743e+000

1.59999999999999e+005,-1.64788888380528e+001,-1.82899674850954e+000

1.62233516766403e+005,-1.64789548644118e+001,-1.85446518053847e+000

1.64498212264969e+005,-1.64790226418933e+001,-1.88028658919072e+000

1.66794521734578e+005,-1.64790922141074e+001,-1.90646580334477e+000

1.69122886489819e+005,-1.64791636256003e+001,-1.93300771575613e+000

1.71483754005805e+005,-1.64792369218664e+001,-1.95991728384262e+000

1.73877578004168e+005,-1.64793121493605e+001,-1.98719953047445e+000

1.76304818540256e+005,-1.64793893555096e+001,-2.01485954477841e+000

1.78765942091554e+005,-1.64794685887237e+001,-2.04290248294679e+000

1.81261421647326e+005,-1.64795498984074e+001,-2.07133356905951e+000

1.83791736799524e+005,-1.64796333349699e+001,-2.10015809591382e+000

1.86357373834951e+005,-1.64797189498357e+001,-2.12938142586401e+000

1.88958825828723e+005,-1.64798067954541e+001,-2.15900899167211e+000

1.91596592739027e+005,-1.64798969253081e+001,-2.18904629736983e+000

1.94271181503206e+005,-1.64799893939239e+001,-2.21949891912834e+000

1.96983106135185e+005,-1.64800842568782e+001,-2.25037250614254e+000

1.99732887824256e+005,-1.64801815708061e+001,-2.28167278152427e+000

2.02521055035243e+005,-1.64802813934083e+001,-2.31340554320836e+000

2.05348143610063e+005,-1.64803837834567e+001,-2.34557666487022e+000

2.08214696870707e+005,-1.64804888008007e+001,-2.37819209685681e+000

2.11121265723661e+005,-1.64805965063712e+001,-2.41125786712898e+000

2.14068408765776e+005,-1.64807069621852e+001,-2.44478008221829e+000

2.17056692391625e+005,-1.64808202313488e+001,-2.47876492819751e+000

2.20086690902357e+005,-1.64809363780592e+001,-2.51321867166402e+000

2.23158986616063e+005,-1.64810554676068e+001,-2.54814766074016e+000

2.26274169979693e+005,-1.64811775663750e+001,-2.58355832608594e+000

2.29432839682530e+005,-1.64813027418402e+001,-2.61945718193068e+000

2.32635602771247e+005,-1.64814310625698e+001,-2.65585082711868e+000

2.35883074766574e+005,-1.64815625982203e+001,-2.69274594617264e+000

2.39175879781588e+005,-1.64816974195331e+001,-2.73014931037518e+000

2.42514650641661e+005,-1.64818355983301e+001,-2.76806777886824e+000

2.45900029006080e+005,-1.64819772075076e+001,-2.80650829977110e+000

2.49332665491357e+005,-1.64821223210297e+001,-2.84547791131922e+000

2.52813219796278e+005,-1.64822710139195e+001,-2.88498374302306e+000

2.56342360828676e+005,-1.64824233622502e+001,-2.92503301684796e+000

2.59920766833993e+005,-1.64825794431341e+001,-2.96563304841712e+000

2.63549125525621e+005,-1.64827393347106e+001,-3.00679124823669e+000

2.67228134217075e+005,-1.64829031161336e+001,-3.04851512294625e+000

2.70958499956006e+005,-1.64830708675566e+001,-3.09081227659233e+000

2.74740939660078e+005,-1.64832426701170e+001,-3.13369041193033e+000

2.78576180254757e+005,-1.64834186059196e+001,-3.17715733175090e+000

2.82464958813007e+005,-1.64835987580178e+001,-3.22122094023705e+000

2.86408022696948e+005,-1.64837832103946e+001,-3.26588924434777e+000

2.90406129701488e+005,-1.64839720479422e+001,-3.31117035523379e+000

2.94460048199957e+005,-1.64841653564394e+001,-3.35707248968429e+000

2.98570557291775e+005,-1.64843632225295e+001,-3.40360397160569e+000

3.02738446952187e+005,-1.64845657336958e+001,-3.45077323353530e+000

3.06964518184081e+005,-1.64847729782365e+001,-3.49858881818871e+000

3.11249583171928e+005,-1.64849850452391e+001,-3.54705938004462e+000

3.15594465437872e+005,-1.64852020245527e+001,-3.59619368696700e+000

3.19999999999997e+005,-1.64854240067610e+001,-3.64600062186552e+000

3.24467033532806e+005,-1.64856510831535e+001,-3.69648918439696e+000

3.28996424529938e+005,-1.64858833456962e+001,-3.74766849270781e+000

3.33589043469155e+005,-1.64861208870024e+001,-3.79954778521974e+000

3.38245772979638e+005,-1.64863638003025e+001,-3.85213642245898e+000

3.42967508011610e+005,-1.64866121794137e+001,-3.90544388893210e+000

3.47755156008335e+005,-1.64868661187104e+001,-3.95947979504738e+000

3.52609637080511e+005,-1.64871257130931e+001,-4.01425387908500e+000

3.57531884183106e+005,-1.64873910579594e+001,-4.06977600921706e+000

3.62522843294651e+005,-1.64876622491743e+001,-4.12605618557751e+000

3.67583473599047e+005,-1.64879393830413e+001,-4.18310454238398e+000

3.72714747669902e+005,-1.64882225562751e+001,-4.24093135011376e+000

3.77917651657445e+005,-1.64885118659747e+001,-4.29954701773255e+000

3.83193185478053e+005,-1.64888074095984e+001,-4.35896209498038e+000

3.88542363006410e+005,-1.64891092849401e+001,-4.41918727471190e+000

3.93966212270369e+005,-1.64894175901078e+001,-4.48023339529594e+000

3.99465775648511e+005,-1.64897324235045e+001,-4.54211144307224e+000

4.05042110070485e+005,-1.64900538838112e+001,-4.60483255486777e+000

4.10696287220124e+005,-1.64903820699732e+001,-4.66840802057276e+000

4.16429393741414e+005,-1.64907170811893e+001,-4.73284928577739e+000

4.22242531447321e+005,-1.64910590169048e+001,-4.79816795446918e+000

4.28136817531551e+005,-1.64914079768084e+001,-4.86437579179204e+000

4.34113384783250e+005,-1.64917640608330e+001,-4.93148472686801e+000

4.40173381804713e+005,-1.64921273691618e+001,-4.99950685567874e+000

4.46317973232124e+005,-1.64924980022386e+001,-5.06845444401121e+000

4.52548339959385e+005,-1.64928760607845e+001,-5.13833993046434e+000

4.58865679365059e+005,-1.64932616458193e+001,-5.20917592951665e+000

4.65271205542494e+005,-1.64936548586900e+001,-5.28097523465724e+000

4.71766149533147e+005,-1.64940558011056e+001,-5.35375082157440e+000

4.78351759563174e+005,-1.64944645751786e+001,-5.42751585140710e+000

4.85029301283321e+005,-1.64948812834744e+001,-5.50228367405426e+000

4.91800058012158e+005,-1.64953060290681e+001,-5.57806783154171e+000

4.98665330982714e+005,-1.64957389156095e+001,-5.65488206144744e+000

5.05626439592555e+005,-1.64961800473972e+001,-5.73274030038010e+000

5.12684721657352e+005,-1.64966295294608e+001,-5.81165668751452e+000

5.19841533667984e+005,-1.64970874676527e+001,-5.89164556817619e+000

5.27098251051240e+005,-1.64975539687501e+001,-5.97272149747921e+000

5.34456268434150e+005,-1.64980291405662e+001,-6.05489924400945e+000

5.41916999912011e+005,-1.64985130920721e+001,-6.13819379355619e+000

