Freq.,VOut,OutRef

1.00000000000000e+004,-1.20884441264300e+001,-7.21138180500708e-002

1.01395947979003e+004,-1.20884445436438e+001,-7.31204537013237e-002

1.02811382665607e+004,-1.20884449725831e+001,-7.41411399453439e-002

1.04246576084112e+004,-1.20884454135775e+001,-7.51760728564503e-002

1.05701804056138e+004,-1.20884458669653e+001,-7.62254512452861e-002

1.07177346253629e+004,-1.20884463330950e+001,-7.72894766908962e-002

1.08673486252606e+004,-1.20884468123245e+001,-7.83683535865308e-002

1.10190511587661e+004,-1.20884473050218e+001,-7.94622891744401e-002

1.11728713807222e+004,-1.20884478115651e+001,-8.05714935877763e-002

1.13288388529580e+004,-1.20884483323434e+001,-8.16961798878451e-002

1.14869835499703e+004,-1.20884488677568e+001,-8.28365641071367e-002

1.16473358646846e+004,-1.20884494182161e+001,-8.39928652922956e-002

1.18099266142953e+004,-1.20884499841442e+001,-8.51653055403098e-002

1.19747870461893e+004,-1.20884505659754e+001,-8.63541100474696e-002

1.21419488439505e+004,-1.20884511641562e+001,-8.75595071502458e-002

1.23114441334492e+004,-1.20884517791462e+001,-8.87817283634542e-002

1.24833054890161e+004,-1.20884524114172e+001,-9.00210084352189e-002

1.26575659397028e+004,-1.20884530614548e+001,-9.12775853807555e-002

1.28342589756290e+004,-1.20884537297578e+001,-9.25517005369067e-002

1.30134185544193e+004,-1.20884544168392e+001,-9.38435986018686e-002

1.31950791077289e+004,-1.20884551232265e+001,-9.51535276856442e-002

1.33792755478611e+004,-1.20884558494618e+001,-9.64817393545044e-002

1.35660432744767e+004,-1.20884565961021e+001,-9.78284886855491e-002

1.37554181813974e+004,-1.20884573637208e+001,-9.91940343032335e-002

1.39474366635040e+004,-1.20884581529069e+001,-1.00578638441100e-001

1.41421356237309e+004,-1.20884589642658e+001,-1.01982566986363e-001

1.43395524801583e+004,-1.20884597984202e+001,-1.03406089529472e-001

1.45397251732031e+004,-1.20884606560101e+001,-1.04849479417814e-001

1.47426921729110e+004,-1.20884615376935e+001,-1.06313013806807e-001

1.49484924863494e+004,-1.20884624441467e+001,-1.07796973714446e-001

1.51571656651040e+004,-1.20884633760652e+001,-1.09301644071463e-001

1.53687518128801e+004,-1.20884643341635e+001,-1.10827313781603e-001

1.55832915932100e+004,-1.20884653191770e+001,-1.12374275766138e-001

1.58008262372675e+004,-1.20884663318610e+001,-1.13942827031767e-001

1.60213975517924e+004,-1.20884673729921e+001,-1.15533268721300e-001

1.62450479271247e+004,-1.20884684433687e+001,-1.17145906168906e-001

1.64718203453514e+004,-1.20884695438118e+001,-1.18781048962028e-001

1.67017583885674e+004,-1.20884706751650e+001,-1.20439010999857e-001

1.69349062472505e+004,-1.20884718382959e+001,-1.22120110550941e-001

1.71713087287550e+004,-1.20884730340959e+001,-1.23824670317297e-001

1.74110112659224e+004,-1.20884742634823e+001,-1.25553017488134e-001

1.76540599258131e+004,-1.20884755273970e+001,-1.27305483814450e-001

1.79005014185594e+004,-1.20884768268089e+001,-1.29082405659585e-001

1.81503831063432e+004,-1.20884781627139e+001,-1.30884124071648e-001

1.84037530124975e+004,-1.20884795361359e+001,-1.32710984843362e-001

1.86606598307361e+004,-1.20884809481271e+001,-1.34563338581266e-001

1.89211529345119e+004,-1.20884823997696e+001,-1.36441540769019e-001

1.91852823865052e+004,-1.20884838921754e+001,-1.38345951837739e-001

1.94530989482457e+004,-1.20884854264881e+001,-1.40276937229489e-001

1.97246540898671e+004,-1.20884870038826e+001,-1.42234867476522e-001

1.99999999999999e+004,-1.20884886255671e+001,-1.44220118259566e-001

2.02791895958005e+004,-1.20884902927838e+001,-1.46233070486127e-001

2.05622765331213e+004,-1.20884920068091e+001,-1.48274110361690e-001

2.08493152168224e+004,-1.20884937689556e+001,-1.50343629460297e-001

2.11403608112276e+004,-1.20884955805724e+001,-1.52442024801621e-001

2.14354692507258e+004,-1.20884974430461e+001,-1.54569698925979e-001

2.17346972505211e+004,-1.20884993578022e+001,-1.56727059967770e-001

2.20381023175322e+004,-1.20885013263063e+001,-1.58914521733064e-001

2.23457427614443e+004,-1.20885033500646e+001,-1.61132503781057e-001

2.26576777059159e+004,-1.20885054306255e+001,-1.63381431500187e-001

2.29739670999406e+004,-1.20885075695805e+001,-1.65661736189229e-001

2.32946717293690e+004,-1.20885097685661e+001,-1.67973855136864e-001

2.36198532285905e+004,-1.20885120292635e+001,-1.70318231709499e-001

2.39495740923785e+004,-1.20885143534018e+001,-1.72695315427572e-001

2.42838976879009e+004,-1.20885167427580e+001,-1.75105562054738e-001

2.46228882668982e+004,-1.20885191991584e+001,-1.77549433684297e-001

2.49666109780322e+004,-1.20885217244805e+001,-1.80027398822091e-001

2.53151318794055e+004,-1.20885243206542e+001,-1.82539932477427e-001

2.56685179512580e+004,-1.20885269896634e+001,-1.85087516251941e-001

2.60268371088386e+004,-1.20885297335469e+001,-1.87670638428926e-001

2.63901582154578e+004,-1.20885325544003e+001,-1.90289794068343e-001

2.67585510957221e+004,-1.20885354543780e+001,-1.92945485093632e-001

2.71320865489533e+004,-1.20885384356942e+001,-1.95638220389666e-001

2.75108363627948e+004,-1.20885415006247e+001,-1.98368515899245e-001

2.78948733270080e+004,-1.20885446515088e+001,-2.01136894716110e-001

2.82842712474618e+004,-1.20885478907506e+001,-2.03943887185019e-001

2.86791049603164e+004,-1.20885512208217e+001,-2.06790030998355e-001

2.90794503464061e+004,-1.20885546442619e+001,-2.09675871299725e-001

2.94853843458219e+004,-1.20885581636819e+001,-2.12601960784294e-001

2.98969849726987e+004,-1.20885617817648e+001,-2.15568859800213e-001

3.03143313302078e+004,-1.20885655012684e+001,-2.18577136454789e-001

3.07375036257601e+004,-1.20885693250272e+001,-2.21627366718362e-001

3.11665831864199e+004,-1.20885732559542e+001,-2.24720134533459e-001

3.16016524745350e+004,-1.20885772970435e+001,-2.27856031921697e-001

3.20427951035848e+004,-1.20885814513724e+001,-2.31035659092520e-001

3.24900958542493e+004,-1.20885857221030e+001,-2.34259624558403e-001

3.29436406907028e+004,-1.20885901124856e+001,-2.37528545242550e-001

3.34035167771346e+004,-1.20885946258608e+001,-2.40843046594557e-001

3.38698124945009e+004,-1.20885992656611e+001,-2.44203762709419e-001

3.43426174575100e+004,-1.20886040354148e+001,-2.47611336437097e-001

3.48220225318448e+004,-1.20886089387473e+001,-2.51066419509408e-001

3.53081198516260e+004,-1.20886139793847e+001,-2.54569672652524e-001

3.58010028371187e+004,-1.20886191611561e+001,-2.58121765713286e-001

3.63007662126863e+004,-1.20886244879966e+001,-2.61723377778988e-001

3.68075060249948e+004,-1.20886299639498e+001,-2.65375197305654e-001

3.73213196614721e+004,-1.20886355931712e+001,-2.69077922238729e-001

3.78423058690237e+004,-1.20886413799311e+001,-2.72832260145650e-001

3.83705647730104e+004,-1.20886473286173e+001,-2.76638928342133e-001

3.89061978964912e+004,-1.20886534437394e+001,-2.80498654021913e-001

3.94493081797342e+004,-1.20886597299303e+001,-2.84412174394204e-001

3.99999999999998e+004,-1.20886661919514e+001,-2.88380236811649e-001

4.05583791916010e+004,-1.20886728346949e+001,-2.92403598908601e-001

4.11245530662425e+004,-1.20886796631875e+001,-2.96483028739078e-001

4.16986304336447e+004,-1.20886866825944e+001,-3.00619304913789e-001

4.22807216224550e+004,-1.20886938982229e+001,-3.04813216741703e-001

4.28709385014515e+004,-1.20887013155255e+001,-3.09065564373544e-001

4.34693945010421e+004,-1.20887089401052e+001,-3.13377158941766e-001

4.40762046350642e+004,-1.20887167777179e+001,-3.17748822711498e-001

4.46914855228886e+004,-1.20887248342781e+001,-3.22181389222027e-001

4.53153554118317e+004,-1.20887331158615e+001,-3.26675703441963e-001

4.59479341998812e+004,-1.20887416287110e+001,-3.31232621913260e-001

4.65893434587380e+004,-1.20887503792395e+001,-3.35853012911155e-001

4.72397064571810e+004,-1.20887593740355e+001,-3.40537756592376e-001

4.78991481847569e+004,-1.20887686198676e+001,-3.45287745153246e-001

4.85677953758016e+004,-1.20887781236888e+001,-3.50103882989631e-001

4.92457765337964e+004,-1.20887878926418e+001,-3.54987086852790e-001

4.99332219560642e+004,-1.20887979340641e+001,-3.59938286013314e-001

5.06302637588109e+004,-1.20888082554923e+001,-3.64958422424758e-001

5.13370359025159e+004,-1.20888188646685e+001,-3.70048450886086e-001

5.20536742176771e+004,-1.20888297695449e+001,-3.75209339209783e-001

5.27803164309155e+004,-1.20888409782895e+001,-3.80442068391832e-001

5.35171021914442e+004,-1.20888524992916e+001,-3.85747632781354e-001

5.42641730979066e+004,-1.20888643411680e+001,-3.91127040250193e-001

5.50216727255895e+004,-1.20888765127683e+001,-3.96581312372931e-001

5.57897466540159e+004,-1.20888890231816e+001,-4.02111484595791e-001

5.65685424949235e+004,-1.20889018817417e+001,-4.07718606421581e-001

5.73582099206328e+004,-1.20889150980349e+001,-4.13403741581961e-001

5.81589006928121e+004,-1.20889286819048e+001,-4.19167968226977e-001

5.89707686916437e+004,-1.20889426434603e+001,-4.25012379101146e-001

5.97939699453972e+004,-1.20889569930813e+001,-4.30938081733743e-001

6.06286626604156e+004,-1.20889717414268e+001,-4.36946198621491e-001

6.14750072515201e+004,-1.20889868994408e+001,-4.43037867422506e-001

6.23331663728396e+004,-1.20890024783601e+001,-4.49214241142061e-001

6.32033049490698e+004,-1.20890184897217e+001,-4.55476488329431e-001

6.40855902071694e+004,-1.20890349453705e+001,-4.61825793268029e-001

6.49801917084985e+004,-1.20890518574665e+001,-4.68263356175783e-001

6.58872813814055e+004,-1.20890692384932e+001,-4.74790393398640e-001

6.68070335542691e+004,-1.20890871012655e+001,-4.81408137615037e-001

6.77396249890018e+004,-1.20891054589374e+001,-4.88117838035252e-001

6.86852349150199e+004,-1.20891243250118e+001,-4.94920760602426e-001

6.96440450636895e+004,-1.20891437133474e+001,-5.01818188201729e-001

7.06162397032520e+004,-1.20891636381684e+001,-5.08811420865862e-001

7.16020056742374e+004,-1.20891841140734e+001,-5.15901775982037e-001

7.26015324253724e+004,-1.20892051560440e+001,-5.23090588504440e-001

7.36150120499896e+004,-1.20892267794546e+001,-5.30379211165296e-001

7.46426393229441e+004,-1.20892490000817e+001,-5.37769014687631e-001

7.56846117380472e+004,-1.20892718341132e+001,-5.45261388002781e-001

7.67411295460207e+004,-1.20892952981587e+001,-5.52857738465961e-001

7.78123957929823e+004,-1.20893194092593e+001,-5.60559492073653e-001

7.88986163594682e+004,-1.20893441848976e+001,-5.68368093686958e-001

7.99999999999995e+004,-1.20893696430081e+001,-5.76285007250858e-001

8.11167583832018e+004,-1.20893958019882e+001,-5.84311716017221e-001

8.22491061324848e+004,-1.20894226807083e+001,-5.92449722770631e-001

8.33972608672892e+004,-1.20894502985227e+001,-6.00700550054942e-001

8.45614432449099e+004,-1.20894786752815e+001,-6.09065740398063e-001

8.57418770029029e+004,-1.20895078313404e+001,-6.17546856545333e-001

8.69387890020841e+004,-1.20895377875737e+001,-6.26145481684651e-001

8.81524092701283e+004,-1.20895685653848e+001,-6.34863219681413e-001

8.93829710457770e+004,-1.20896001867179e+001,-6.43701695311416e-001

9.06307108236633e+004,-1.20896326740708e+001,-6.52662554492111e-001

9.18958683997622e+004,-1.20896660505062e+001,-6.61747464519422e-001

9.31786869174758e+004,-1.20897003396639e+001,-6.70958114304949e-001

9.44794129143618e+004,-1.20897355657738e+001,-6.80296214609990e-001

9.57982963695136e+004,-1.20897717536678e+001,-6.89763498287294e-001

9.71355907516031e+004,-1.20898089287925e+001,-6.99361720517447e-001

9.84915530675926e+004,-1.20898471172222e+001,-7.09092659051062e-001

9.98664439121282e+004,-1.20898863456719e+001,-7.18958114446633e-001

1.01260527517622e+005,-1.20899266415100e+001,-7.28959910314840e-001

1.02674071805032e+005,-1.20899680327715e+001,-7.39099893559414e-001

1.04107348435354e+005,-1.20900105481711e+001,-7.49379934619288e-001

1.05560632861831e+005,-1.20900542171169e+001,-7.59801927714214e-001

1.07034204382888e+005,-1.20900990697233e+001,-7.70367791085217e-001

1.08528346195813e+005,-1.20901451368246e+001,-7.81079467241341e-001

1.10043345451179e+005,-1.20901924499885e+001,-7.91938923202658e-001

1.11579493308032e+005,-1.20902410415295e+001,-8.02948150746453e-001

1.13137084989847e+005,-1.20902909445225e+001,-8.14109166648987e-001

1.14716419841265e+005,-1.20903421928160e+001,-8.25424012935329e-001

1.16317801385624e+005,-1.20903948210462e+001,-8.36894757118115e-001

1.17941537383287e+005,-1.20904488646498e+001,-8.48523492448642e-001

1.19587939890794e+005,-1.20905043598775e+001,-8.60312338156998e-001

1.21257325320831e+005,-1.20905613438077e+001,-8.72263439697763e-001

1.22950014503040e+005,-1.20906198543591e+001,-8.84378968994652e-001

1.24666332745679e+005,-1.20906799303039e+001,-8.96661124685011e-001

1.26406609898139e+005,-1.20907416112811e+001,-9.09112132360482e-001

1.28171180414339e+005,-1.20908049378086e+001,-9.21734244811032e-001

1.29960383416997e+005,-1.20908699512958e+001,-9.34529742268789e-001

1.31774562762811e+005,-1.20909366940561e+001,-9.47500932645284e-001

1.33614067108538e+005,-1.20910052093185e+001,-9.60650151775384e-001

1.35479249978003e+005,-1.20910755412392e+001,-9.73979763655516e-001

1.37370469830040e+005,-1.20911477349129e+001,-9.87492160682426e-001

1.39288090127379e+005,-1.20912218363837e+001,-1.00118976389130e+000

1.41232479406504e+005,-1.20912978926555e+001,-1.01507502319133e+000

1.43204011348474e+005,-1.20913759517015e+001,-1.02915041760248e+000

1.45203064850745e+005,-1.20914560624738e+001,-1.04341845548935e+000

1.47230024099979e+005,-1.20915382749125e+001,-1.05788167479356e+000

1.49285278645888e+005,-1.20916226399531e+001,-1.07254264326701e+000

1.51369223476094e+005,-1.20917092095344e+001,-1.08740395870232e+000

1.53482259092041e+005,-1.20917980366052e+001,-1.10246824916015e+000

1.55624791585964e+005,-1.20918891751298e+001,-1.11773817320006e+000

1.57797232718936e+005,-1.20919826800934e+001,-1.13321642010580e+000

1.59999999999999e+005,-1.20920786075061e+001,-1.14890571011018e+000

1.62233516766403e+005,-1.20921770144055e+001,-1.16480879462116e+000

1.64498212264969e+005,-1.20922779588595e+001,-1.18092845644240e+000

1.66794521734578e+005,-1.20923814999661e+001,-1.19726750999797e+000

1.69122886489819e+005,-1.20924876978543e+001,-1.21382880155005e+000

1.71483754005805e+005,-1.20925966136811e+001,-1.23061520942123e+000

1.73877578004168e+005,-1.20927083096295e+001,-1.24762964421240e+000

1.76304818540256e+005,-1.20928228489033e+001,-1.26487504902025e+000

1.78765942091554e+005,-1.20929402957215e+001,-1.28235439965628e+000

1.81261421647326e+005,-1.20930607153103e+001,-1.30007070486247e+000

1.83791736799524e+005,-1.20931841738938e+001,-1.31802700652942e+000

1.86357373834951e+005,-1.20933107386827e+001,-1.33622637991252e+000

1.88958825828723e+005,-1.20934404778611e+001,-1.35467193384958e+000

1.91596592739027e+005,-1.20935734605711e+001,-1.37336681097990e+000

1.94271181503206e+005,-1.20937097568960e+001,-1.39231418796017e+000

1.96983106135185e+005,-1.20938494378402e+001,-1.41151727568766e+000

1.99732887824256e+005,-1.20939925753074e+001,-1.43097931952059e+000

2.02521055035243e+005,-1.20941392420766e+001,-1.45070359950146e+000

2.05348143610063e+005,-1.20942895117745e+001,-1.47069343058574e+000

2.08214696870707e+005,-1.20944434588466e+001,-1.49095216286902e+000

2.11121265723661e+005,-1.20946011585245e+001,-1.51148318182295e+000

2.14068408765776e+005,-1.20947626867904e+001,-1.53228990853098e+000

2.17056692391625e+005,-1.20949281203394e+001,-1.55337579993252e+000

2.20086690902357e+005,-1.20950975365374e+001,-1.57474434907078e+000

2.23158986616063e+005,-1.20952710133768e+001,-1.59639908534918e+000

2.26274169979693e+005,-1.20954486294286e+001,-1.61834357479132e+000

2.29432839682530e+005,-1.20956304637903e+001,-1.64058142031493e+000

2.32635602771247e+005,-1.20958165960313e+001,-1.66311626200942e+000

2.35883074766574e+005,-1.20960071061339e+001,-1.68595177742707e+000

2.39175879781588e+005,-1.20962020744304e+001,-1.70909168188508e+000

2.42514650641661e+005,-1.20964015815367e+001,-1.73253972877885e+000

2.45900029006080e+005,-1.20966057082818e+001,-1.75629970991000e+000

2.49332665491357e+005,-1.20968145356325e+001,-1.78037545582938e+000

2.52813219796278e+005,-1.20970281446152e+001,-1.80477083619620e+000

2.56342360828676e+005,-1.20972466162316e+001,-1.82948976015461e+000

2.59920766833993e+005,-1.20974700313716e+001,-1.85453617673107e+000

2.63549125525621e+005,-1.20976984707207e+001,-1.87991407525002e+000

2.67228134217075e+005,-1.20979320146635e+001,-1.90562748577494e+000

2.70958499956006e+005,-1.20981707431819e+001,-1.93168047957082e+000

2.74740939660078e+005,-1.20984147357491e+001,-1.95807716959601e+000

2.78576180254757e+005,-1.20986640712186e+001,-1.98482171101906e+000

2.82464958813007e+005,-1.20989188277090e+001,-2.01191830176698e+000

2.86408022696948e+005,-1.20991790824831e+001,-2.03937118310444e+000

2.90406129701488e+005,-1.20994449118229e+001,-2.06718464024823e+000

2.94460048199957e+005,-1.20997163908995e+001,-2.09536300301736e+000

2.98570557291775e+005,-1.20999935936389e+001,-2.12391064651952e+000

3.02738446952187e+005,-1.21002765925818e+001,-2.15283199188273e+000

3.06964518184081e+005,-1.21005654587402e+001,-2.18213150702391e+000

3.11249583171928e+005,-1.21008602614481e+001,-2.21181370746837e+000

3.15594465437872e+005,-1.21011610682089e+001,-2.24188315721307e+000

3.19999999999997e+005,-1.21014679445376e+001,-2.27234446964156e+000

3.24467033532806e+005,-1.21017809537991e+001,-2.30320230849163e+000

3.28996424529938e+005,-1.21021001570423e+001,-2.33446138887808e+000

3.33589043469155e+005,-1.21024256128305e+001,-2.36612647837200e+000

3.38245772979638e+005,-1.21027573770680e+001,-2.39820239814107e+000

3.42967508011610e+005,-1.21030955028231e+001,-2.43069402415283e+000

3.47755156008335e+005,-1.21034400401482e+001,-2.46360628844229e+000

3.52609637080511e+005,-1.21037910358970e+001,-2.49694418044736e+000

3.57531884183106e+005,-1.21041485335387e+001,-2.53071274841419e+000

3.62522843294651e+005,-1.21045125729704e+001,-2.56491710087494e+000

3.67583473599047e+005,-1.21048831903276e+001,-2.59956240820089e+000

3.72714747669902e+005,-1.21052604177927e+001,-2.63465390423034e+000

3.77917651657445e+005,-1.21056442834033e+001,-2.67019688797853e+000

3.83193185478053e+005,-1.21060348108590e+001,-2.70619672542617e+000

3.88542363006410e+005,-1.21064320193287e+001,-2.74265885139170e+000

3.93966212270369e+005,-1.21068359232582e+001,-2.77958877148844e+000

3.99465775648511e+005,-1.21072465321786e+001,-2.81699206416729e+000

4.05042110070485e+005,-1.21076638505158e+001,-2.85487438284856e+000

4.10696287220124e+005,-1.21080878774029e+001,-2.89324145814105e+000

4.16429393741414e+005,-1.21085186064949e+001,-2.93209910015136e+000

4.22242531447321e+005,-1.21089560257861e+001,-2.97145320088555e+000

4.28136817531551e+005,-1.21094001174328e+001,-3.01130973673924e+000

4.34113384783250e+005,-1.21098508575792e+001,-3.05167477108244e+000

4.40173381804713e+005,-1.21103082161893e+001,-3.09255445693299e+000

4.46317973232124e+005,-1.21107721568851e+001,-3.13395503972412e+000

4.52548339959385e+005,-1.21112426367911e+001,-3.17588286015999e+000

4.58865679365059e+005,-1.21117196063860e+001,-3.21834435716407e+000

4.65271205542494e+005,-1.21122030093631e+001,-3.26134607091438e+000

4.71766149533147e+005,-1.21126927824991e+001,-3.30489464596614e+000

4.78351759563174e+005,-1.21131888555331e+001,-3.34899683446040e+000

4.85029301283321e+005,-1.21136911510552e+001,-3.39365949941603e+000

4.91800058012158e+005,-1.21141995844064e+001,-3.43888961810178e+000

4.98665330982714e+005,-1.21147140635901e+001,-3.48469428548633e+000

5.05626439592555e+005,-1.21152344891964e+001,-3.53108071776253e+000

5.12684721657352e+005,-1.21157607543387e+001,-3.57805625594355e+000

5.19841533667984e+005,-1.21162927446043e+001,-3.62562836952533e+000

5.27098251051240e+005,-1.21168303380191e+001,-3.67380466021093e+000

5.34456268434150e+005,-1.21173734050270e+001,-3.72259286569514e+000

5.41916999912011e+005,-1.21179218084848e+001,-3.77200086349947e+000

