Freq.,VOut,OutRef

1.00000000000000e+004,-2.29014819964016e+001,-4.26211070486131e-001

1.01395947979003e+004,-2.29014847562703e+001,-4.32160663493595e-001

1.02811382665607e+004,-2.29014875937225e+001,-4.38193305825629e-001

1.04246576084112e+004,-2.29014905109389e+001,-4.44310156642577e-001

1.05701804056138e+004,-2.29014935101618e+001,-4.50512391277884e-001

1.07177346253629e+004,-2.29014965936959e+001,-4.56801201466323e-001

1.08673486252606e+004,-2.29014997639114e+001,-4.63177795568936e-001

1.10190511587661e+004,-2.29015030232445e+001,-4.69643398809034e-001

1.11728713807222e+004,-2.29015063742002e+001,-4.76199253503418e-001

1.13288388529580e+004,-2.29015098193539e+001,-4.82846619303170e-001

1.14869835499703e+004,-2.29015133613531e+001,-4.89586773434531e-001

1.16473358646846e+004,-2.29015170029200e+001,-4.96421010943428e-001

1.18099266142953e+004,-2.29015207468532e+001,-5.03350644944099e-001

1.19747870461893e+004,-2.29015245960298e+001,-5.10377006871727e-001

1.21419488439505e+004,-2.29015285534079e+001,-5.17501446735651e-001

1.23114441334492e+004,-2.29015326220288e+001,-5.24725333380211e-001

1.24833054890161e+004,-2.29015368050190e+001,-5.32050054747465e-001

1.26575659397028e+004,-2.29015411055931e+001,-5.39477018140201e-001

1.28342589756290e+004,-2.29015455270558e+001,-5.47007650496425e-001

1.30134185544193e+004,-2.29015500728049e+001,-5.54643398657821e-001

1.31950791077289e+004,-2.29015547463334e+001,-5.62385729652027e-001

1.33792755478611e+004,-2.29015595512329e+001,-5.70236130969033e-001

1.35660432744767e+004,-2.29015644911952e+001,-5.78196110850651e-001

1.37554181813974e+004,-2.29015695700165e+001,-5.86267198575867e-001

1.39474366635040e+004,-2.29015747915993e+001,-5.94450944756713e-001

1.41421356237309e+004,-2.29015801599558e+001,-6.02748921633054e-001

1.43395524801583e+004,-2.29015856792110e+001,-6.11162723375942e-001

1.45397251732031e+004,-2.29015913536057e+001,-6.19693966390453e-001

1.47426921729110e+004,-2.29015971875000e+001,-6.28344289628608e-001

1.49484924863494e+004,-2.29016031853761e+001,-6.37115354900827e-001

1.51571656651040e+004,-2.29016093518426e+001,-6.46008847193986e-001

1.53687518128801e+004,-2.29016156916372e+001,-6.55026474996054e-001

1.55832915932100e+004,-2.29016222096311e+001,-6.64169970621324e-001

1.58008262372675e+004,-2.29016289108317e+001,-6.73441090543455e-001

1.60213975517924e+004,-2.29016358003877e+001,-6.82841615730974e-001

1.62450479271247e+004,-2.29016428835921e+001,-6.92373351987506e-001

1.64718203453514e+004,-2.29016501658865e+001,-7.02038130299619e-001

1.67017583885674e+004,-2.29016576528657e+001,-7.11837807184694e-001

1.69349062472505e+004,-2.29016653502811e+001,-7.21774265048359e-001

1.71713087287550e+004,-2.29016732640462e+001,-7.31849412542056e-001

1.74110112659224e+004,-2.29016814002402e+001,-7.42065184931256e-001

1.76540599258131e+004,-2.29016897651132e+001,-7.52423544462835e-001

1.79005014185594e+004,-2.29016983650909e+001,-7.62926480741884e-001

1.81503831063432e+004,-2.29017072067791e+001,-7.73576011112740e-001

1.84037530124975e+004,-2.29017162969695e+001,-7.84374181042113e-001

1.86606598307361e+004,-2.29017256426444e+001,-7.95323064513704e-001

1.89211529345119e+004,-2.29017352509821e+001,-8.06424764420995e-001

1.91852823865052e+004,-2.29017451293626e+001,-8.17681412971405e-001

1.94530989482457e+004,-2.29017552853729e+001,-8.29095172094326e-001

1.97246540898671e+004,-2.29017657268132e+001,-8.40668233851251e-001

1.99999999999999e+004,-2.29017764617025e+001,-8.52402820857694e-001

2.02791895958005e+004,-2.29017874982854e+001,-8.64301186704743e-001

2.05622765331213e+004,-2.29017988450374e+001,-8.76365616392264e-001

2.08493152168224e+004,-2.29018105106724e+001,-8.88598426762834e-001

2.11403608112276e+004,-2.29018225041485e+001,-9.01001966945816e-001

2.14354692507258e+004,-2.29018348346757e+001,-9.13578618803463e-001

2.17346972505211e+004,-2.29018475117221e+001,-9.26330797388050e-001

2.20381023175322e+004,-2.29018605450220e+001,-9.39260951400037e-001

2.23457427614443e+004,-2.29018739445824e+001,-9.52371563657838e-001

2.26576777059159e+004,-2.29018877206915e+001,-9.65665151567904e-001

2.29739670999406e+004,-2.29019018839265e+001,-9.79144267607491e-001

2.32946717293690e+004,-2.29019164451607e+001,-9.92811499810687e-001

2.36198532285905e+004,-2.29019314155731e+001,-1.00666947225994e+000

2.39495740923785e+004,-2.29019468066563e+001,-1.02072084558774e+000

2.42838976879009e+004,-2.29019626302251e+001,-1.03496831748321e+000

2.46228882668982e+004,-2.29019788984263e+001,-1.04941462320434e+000

2.49666109780322e+004,-2.29019956237468e+001,-1.06406253610048e+000

2.53151318794055e+004,-2.29020128190245e+001,-1.07891486813939e+000

2.56685179512580e+004,-2.29020304974571e+001,-1.09397447044173e+000

2.60268371088386e+004,-2.29020486726124e+001,-1.10924423382406e+000

2.63901582154578e+004,-2.29020673584391e+001,-1.12472708934909e+000

2.67585510957221e+004,-2.29020865692767e+001,-1.14042600888208e+000

2.71320865489533e+004,-2.29021063198674e+001,-1.15634400565468e+000

2.75108363627948e+004,-2.29021266253663e+001,-1.17248413484023e+000

2.78948733270080e+004,-2.29021475013538e+001,-1.18884949413061e+000

2.82842712474618e+004,-2.29021689638470e+001,-1.20544322432747e+000

2.86791049603164e+004,-2.29021910293123e+001,-1.22226850993577e+000

2.90794503464061e+004,-2.29022137146774e+001,-1.23932857977017e+000

2.94853843458219e+004,-2.29022370373450e+001,-1.25662670756532e+000

2.98969849726987e+004,-2.29022610152051e+001,-1.27416621259866e+000

3.03143313302078e+004,-2.29022856666495e+001,-1.29195046031742e+000

3.07375036257601e+004,-2.29023110105853e+001,-1.30998286297800e+000

3.11665831864199e+004,-2.29023370664497e+001,-1.32826688029036e+000

3.16016524745350e+004,-2.29023638542241e+001,-1.34680602007516e+000

3.20427951035848e+004,-2.29023913944502e+001,-1.36560383892510e+000

3.24900958542493e+004,-2.29024197082448e+001,-1.38466394287934e+000

3.29436406907028e+004,-2.29024488173167e+001,-1.40398998810413e+000

3.34035167771346e+004,-2.29024787439825e+001,-1.42358568158389e+000

3.38698124945009e+004,-2.29025095111839e+001,-1.44345478182202e+000

3.43426174575100e+004,-2.29025411425050e+001,-1.46360109954981e+000

3.48220225318448e+004,-2.29025736621903e+001,-1.48402849844523e+000

3.53081198516260e+004,-2.29026070951634e+001,-1.50474089586179e+000

3.58010028371187e+004,-2.29026414670453e+001,-1.52574226356723e+000

3.63007662126863e+004,-2.29026768041742e+001,-1.54703662849117e+000

3.68075060249948e+004,-2.29027131336259e+001,-1.56862807348368e+000

3.73213196614721e+004,-2.29027504832333e+001,-1.59052073808372e+000

3.78423058690237e+004,-2.29027888816086e+001,-1.61271881929616e+000

3.83705647730104e+004,-2.29028283581643e+001,-1.63522657238319e+000

3.89061978964912e+004,-2.29028689431357e+001,-1.65804831166068e+000

3.94493081797342e+004,-2.29029106676038e+001,-1.68118841130996e+000

3.99999999999998e+004,-2.29029535635189e+001,-1.70465130619772e+000

4.05583791916010e+004,-2.29029976637247e+001,-1.72844149270716e+000

4.11245530662425e+004,-2.29030430019830e+001,-1.75256352958066e+000

4.16986304336447e+004,-2.29030896129995e+001,-1.77702203877229e+000

4.22807216224550e+004,-2.29031375324498e+001,-1.80182170631362e+000

4.28709385014515e+004,-2.29031867970065e+001,-1.82696728318843e+000

4.34693945010421e+004,-2.29032374443669e+001,-1.85246358622019e+000

4.40762046350642e+004,-2.29032895132812e+001,-1.87831549897191e+000

4.46914855228886e+004,-2.29033430435821e+001,-1.90452797265527e+000

4.53153554118317e+004,-2.29033980762145e+001,-1.93110602705398e+000

4.59479341998812e+004,-2.29034546532664e+001,-1.95805475145844e+000

4.65893434587380e+004,-2.29035128180009e+001,-1.98537930561102e+000

4.72397064571810e+004,-2.29035726148883e+001,-2.01308492066578e+000

4.78991481847569e+004,-2.29036340896399e+001,-2.04117690015918e+000

4.85677953758016e+004,-2.29036972892421e+001,-2.06966062099336e+000

4.92457765337964e+004,-2.29037622619919e+001,-2.09854153443329e+000

4.99332219560642e+004,-2.29038290575331e+001,-2.12782516711411e+000

5.06302637588109e+004,-2.29038977268935e+001,-2.15751712206378e+000

5.13370359025159e+004,-2.29039683225229e+001,-2.18762307973865e+000

5.20536742176771e+004,-2.29040408983331e+001,-2.21814879906919e+000

5.27803164309155e+004,-2.29041155097374e+001,-2.24910011852383e+000

5.35171021914442e+004,-2.29041922136927e+001,-2.28048295718078e+000

5.42641730979066e+004,-2.29042710687418e+001,-2.31230331581889e+000

5.50216727255895e+004,-2.29043521350571e+001,-2.34456727801665e+000

5.57897466540159e+004,-2.29044354744856e+001,-2.37728101127062e+000

5.65685424949235e+004,-2.29045211505948e+001,-2.41045076812170e+000

5.73582099206328e+004,-2.29046092287206e+001,-2.44408288730136e+000

5.81589006928121e+004,-2.29046997760152e+001,-2.47818379488836e+000

5.89707686916437e+004,-2.29047928614976e+001,-2.51276000547922e+000

5.97939699453972e+004,-2.29048885561046e+001,-2.54781812337717e+000

6.06286626604156e+004,-2.29049869327437e+001,-2.58336484379100e+000

6.14750072515201e+004,-2.29050880663467e+001,-2.61940695405182e+000

6.23331663728396e+004,-2.29051920339260e+001,-2.65595133484232e+000

6.32033049490698e+004,-2.29052989146306e+001,-2.69300496144270e+000

6.40855902071694e+004,-2.29054087898056e+001,-2.73057490499146e+000

6.49801917084985e+004,-2.29055217430514e+001,-2.76866833375899e+000

6.58872813814055e+004,-2.29056378602862e+001,-2.80729251444039e+000

6.68070335542691e+004,-2.29057572298086e+001,-2.84645481345953e+000

6.77396249890018e+004,-2.29058799423630e+001,-2.88616269829187e+000

6.86852349150199e+004,-2.29060060912062e+001,-2.92642373880067e+000

6.96440450636895e+004,-2.29061357721757e+001,-2.96724560859028e+000

7.06162397032520e+004,-2.29062690837603e+001,-3.00863608637380e+000

7.16020056742374e+004,-2.29064061271721e+001,-3.05060305735863e+000

7.26015324253724e+004,-2.29065470064203e+001,-3.09315451464589e+000

7.36150120499896e+004,-2.29066918283875e+001,-3.13629856064678e+000

7.46426393229441e+004,-2.29068407029074e+001,-3.18004340851601e+000

7.56846117380472e+004,-2.29069937428448e+001,-3.22439738360009e+000

7.67411295460207e+004,-2.29071510641779e+001,-3.26936892490204e+000

7.78123957929823e+004,-2.29073127860823e+001,-3.31496658656371e+000

7.88986163594682e+004,-2.29074790310174e+001,-3.36119903936348e+000

7.99999999999995e+004,-2.29076499248151e+001,-3.40807507223110e+000

8.11167583832018e+004,-2.29078255967706e+001,-3.45560359377815e+000

8.22491061324848e+004,-2.29080061797359e+001,-3.50379363384659e+000

8.33972608672892e+004,-2.29081918102151e+001,-3.55265434507339e+000

8.45614432449099e+004,-2.29083826284630e+001,-3.60219500447123e+000

8.57418770029029e+004,-2.29085787785851e+001,-3.65242501502781e+000

8.69387890020841e+004,-2.29087804086416e+001,-3.70335390731938e+000

8.81524092701283e+004,-2.29089876707523e+001,-3.75499134114417e+000

8.93829710457770e+004,-2.29092007212058e+001,-3.80734710716998e+000

9.06307108236633e+004,-2.29094197205706e+001,-3.86043112860120e+000

9.18958683997622e+004,-2.29096448338088e+001,-3.91425346286043e+000

9.31786869174758e+004,-2.29098762303937e+001,-3.96882430328857e+000

9.44794129143618e+004,-2.29101140844289e+001,-4.02415398086157e+000

9.57982963695136e+004,-2.29103585747717e+001,-4.08025296592417e+000

9.71355907516031e+004,-2.29106098851590e+001,-4.13713186993944e+000

9.84915530675926e+004,-2.29108682043360e+001,-4.19480144725748e+000

9.98664439121282e+004,-2.29111337261887e+001,-4.25327259689863e+000

1.01260527517622e+005,-2.29114066498794e+001,-4.31255636435463e+000

1.02674071805032e+005,-2.29116871799854e+001,-4.37266394340682e+000

1.04107348435354e+005,-2.29119755266416e+001,-4.43360667796051e+000

1.05560632861831e+005,-2.29122719056855e+001,-4.49539606389551e+000

1.07034204382888e+005,-2.29125765388074e+001,-4.55804375093489e+000

1.08528346195813e+005,-2.29128896537023e+001,-4.62156154452778e+000

1.10043345451179e+005,-2.29132114842273e+001,-4.68596140775082e+000

1.11579493308032e+005,-2.29135422705611e+001,-4.75125546322459e+000

1.13137084989847e+005,-2.29138822593690e+001,-4.81745599504589e+000

1.14716419841265e+005,-2.29142317039699e+001,-4.88457545073727e+000

1.16317801385624e+005,-2.29145908645094e+001,-4.95262644321122e+000

1.17941537383287e+005,-2.29149600081352e+001,-5.02162175275017e+000

1.19587939890794e+005,-2.29153394091773e+001,-5.09157432900323e+000

1.21257325320831e+005,-2.29157293493329e+001,-5.16249729299568e+000

1.22950014503040e+005,-2.29161301178546e+001,-5.23440393915699e+000

1.24666332745679e+005,-2.29165420117435e+001,-5.30730773736034e+000

1.26406609898139e+005,-2.29169653359470e+001,-5.38122233497979e+000

1.28171180414339e+005,-2.29174004035609e+001,-5.45616155895915e+000

1.29960383416997e+005,-2.29178475360351e+001,-5.53213941789807e+000

1.31774562762811e+005,-2.29183070633861e+001,-5.60917010414872e+000

1.33614067108538e+005,-2.29187793244122e+001,-5.68726799592981e+000

1.35479249978003e+005,-2.29192646669146e+001,-5.76644765945027e+000

1.37370469830040e+005,-2.29197634479232e+001,-5.84672385104948e+000

1.39288090127379e+005,-2.29202760339273e+001,-5.92811151934777e+000

1.41232479406504e+005,-2.29208028011112e+001,-6.01062580741032e+000

1.43204011348474e+005,-2.29213441355955e+001,-6.09428205492402e+000

1.45203064850745e+005,-2.29219004336830e+001,-6.17909580038416e+000

1.47230024099979e+005,-2.29224721021103e+001,-6.26508278329473e+000

1.49285278645888e+005,-2.29230595583042e+001,-6.35225894637768e+000

1.51369223476094e+005,-2.29236632306446e+001,-6.44064043779511e+000

1.53482259092041e+005,-2.29242835587319e+001,-6.53024361337902e+000

1.55624791585964e+005,-2.29249209936601e+001,-6.62108503887356e+000

1.57797232718936e+005,-2.29255759982964e+001,-6.71318149218473e+000

1.59999999999999e+005,-2.29262490475656e+001,-6.80654996564008e+000

1.62233516766403e+005,-2.29269406287408e+001,-6.90120766825683e+000

1.64498212264969e+005,-2.29276512417398e+001,-6.99717202801757e+000

1.66794521734578e+005,-2.29283813994279e+001,-7.09446069415399e+000

1.69122886489819e+005,-2.29291316279257e+001,-7.19309153943807e+000

1.71483754005805e+005,-2.29299024669241e+001,-7.29308266247885e+000

1.73877578004168e+005,-2.29306944700052e+001,-7.39445239002666e+000

1.76304818540256e+005,-2.29315082049687e+001,-7.49721927928197e+000

1.78765942091554e+005,-2.29323442541657e+001,-7.60140212020995e+000

1.81261421647326e+005,-2.29332032148380e+001,-7.70701993785944e+000

1.83791736799524e+005,-2.29340856994645e+001,-7.81409199468609e+000

1.86357373834951e+005,-2.29349923361134e+001,-7.92263779287943e+000

1.88958825828723e+005,-2.29359237688017e+001,-8.03267707669208e+000

1.91596592739027e+005,-2.29368806578606e+001,-8.14422983477309e+000

1.94271181503206e+005,-2.29378636803082e+001,-8.25731630250103e+000

1.96983106135185e+005,-2.29388735302289e+001,-8.37195696432105e+000

1.99732887824256e+005,-2.29399109191590e+001,-8.48817255608120e+000

2.02521055035243e+005,-2.29409765764798e+001,-8.60598406736961e+000

2.05348143610063e+005,-2.29420712498177e+001,-8.72541274385172e+000

2.08214696870707e+005,-2.29431957054509e+001,-8.84648008960722e+000

2.11121265723661e+005,-2.29443507287230e+001,-8.96920786946492e+000

2.14068408765776e+005,-2.29455371244650e+001,-9.09361811133637e+000

2.17056692391625e+005,-2.29467557174225e+001,-9.21973310854834e+000

2.20086690902357e+005,-2.29480073526921e+001,-9.34757542217086e+000

2.23158986616063e+005,-2.29492928961639e+001,-9.47716788334333e+000

2.26274169979693e+005,-2.29506132349720e+001,-9.60853359559654e+000

2.29432839682530e+005,-2.29519692779522e+001,-9.74169593717088e+000

2.32635602771247e+005,-2.29533619561074e+001,-9.87667856332953e+000

2.35883074766574e+005,-2.29547922230808e+001,-1.00135054086666e+001

2.39175879781588e+005,-2.29562610556366e+001,-1.01522006894103e+001

2.42514650641661e+005,-2.29577694541484e+001,-1.02927889057195e+001

2.45900029006080e+005,-2.29593184430960e+001,-1.04352948439745e+001

2.49332665491357e+005,-2.29609090715697e+001,-1.05797435790600e+001

2.52813219796278e+005,-2.29625424137834e+001,-1.07261604766417e+001

2.56342360828676e+005,-2.29642195695950e+001,-1.08745711954351e+001

2.59920766833993e+005,-2.29659416650360e+001,-1.10250016894651e+001

2.63549125525621e+005,-2.29677098528496e+001,-1.11774782103185e+001

2.67228134217075e+005,-2.29695253130365e+001,-1.13320273093866e+001

2.70958499956006e+005,-2.29713892534108e+001,-1.14886758400979e+001

2.74740939660078e+005,-2.29733029101638e+001,-1.16474509601420e+001

2.78576180254757e+005,-2.29752675484378e+001,-1.18083801336820e+001

2.82464958813007e+005,-2.29772844629087e+001,-1.19714911335568e+001

2.86408022696948e+005,-2.29793549783780e+001,-1.21368120434709e+001

2.90406129701488e+005,-2.29814804503753e+001,-1.23043712601730e+001

2.94460048199957e+005,-2.29836622657700e+001,-1.24741974956214e+001

2.98570557291775e+005,-2.29859018433937e+001,-1.26463197791366e+001

3.02738446952187e+005,-2.29882006346732e+001,-1.28207674595384e+001

3.06964518184081e+005,-2.29905601242736e+001,-1.29975702072700e+001

3.11249583171928e+005,-2.29929818307537e+001,-1.31767580165043e+001

3.15594465437872e+005,-2.29954673072315e+001,-1.33583612072350e+001

3.19999999999997e+005,-2.29980181420623e+001,-1.35424104273485e+001

3.24467033532806e+005,-2.30006359595291e+001,-1.37289366546770e+001

3.28996424529938e+005,-2.30033224205448e+001,-1.39179711990319e+001

3.33589043469155e+005,-2.30060792233677e+001,-1.41095457042129e+001

3.38245772979638e+005,-2.30089081043304e+001,-1.43036921499956e+001

3.42967508011610e+005,-2.30118108385826e+001,-1.45004428540920e+001

3.47755156008335e+005,-2.30147892408478e+001,-1.46998304740841e+001

3.52609637080511e+005,-2.30178451661951e+001,-1.49018880093260e+001

3.57531884183106e+005,-2.30209805108260e+001,-1.51066488028144e+001

3.62522843294651e+005,-2.30241972128771e+001,-1.53141465430233e+001

3.67583473599047e+005,-2.30274972532394e+001,-1.55244152656994e+001

3.72714747669902e+005,-2.30308826563938e+001,-1.57374893556155e+001

3.77917651657445e+005,-2.30343554912646e+001,-1.59534035482785e+001

3.83193185478053e+005,-2.30379178720910e+001,-1.61721929315855e+001

3.88542363006410e+005,-2.30415719593172e+001,-1.63938929474270e+001

3.93966212270369e+005,-2.30453199605014e+001,-1.66185393932289e+001

3.99465775648511e+005,-2.30491641312450e+001,-1.68461684234295e+001

4.05042110070485e+005,-2.30531067761422e+001,-1.70768165508862e+001

4.10696287220124e+005,-2.30571502497503e+001,-1.73105206482030e+001

4.16429393741414e+005,-2.30612969575822e+001,-1.75473179489761e+001

4.22242531447321e+005,-2.30655493571206e+001,-1.77872460489444e+001

4.28136817531551e+005,-2.30699099588551e+001,-1.80303429070437e+001

4.34113384783250e+005,-2.30743813273428e+001,-1.82766468463496e+001

4.40173381804713e+005,-2.30789660822923e+001,-1.85261965549049e+001

4.46317973232124e+005,-2.30836668996724e+001,-1.87790310864188e+001

4.52548339959385e+005,-2.30884865128448e+001,-1.90351898608286e+001

4.58865679365059e+005,-2.30934277137233e+001,-1.92947126647135e+001

4.65271205542494e+005,-2.30984933539562e+001,-1.95576396515472e+001

4.71766149533147e+005,-2.31036863461366e+001,-1.98240113417788e+001

4.78351759563174e+005,-2.31090096650365e+001,-2.00938686227278e+001

4.85029301283321e+005,-2.31144663488684e+001,-2.03672527482807e+001

4.91800058012158e+005,-2.31200595005716e+001,-2.06442053383732e+001

4.98665330982714e+005,-2.31257922891246e+001,-2.09247683782463e+001

5.05626439592555e+005,-2.31316679508835e+001,-2.12089842174567e+001

5.12684721657352e+005,-2.31376897909447e+001,-2.14968955686291e+001

5.19841533667984e+005,-2.31438611845327e+001,-2.17885455059327e+001

5.27098251051240e+005,-2.31501855784125e+001,-2.20839774632624e+001

5.34456268434150e+005,-2.31566664923239e+001,-2.23832352321111e+001

5.41916999912011e+005,-2.31633075204393e+001,-2.26863629591126e+001

