Freq.,VOut,OutRef

1.00000000000000e+004,-2.19667535474281e+001,-2.93640897582601e-001

1.01395947979003e+004,-2.19667550221167e+001,-2.97739916416945e-001

1.02811382665607e+004,-2.19667565382594e+001,-3.01896153072438e-001

1.04246576084112e+004,-2.19667580970213e+001,-3.06110406179954e-001

1.05701804056138e+004,-2.19667596996005e+001,-3.10383485514572e-001

1.07177346253629e+004,-2.19667613472283e+001,-3.14716212152721e-001

1.08673486252606e+004,-2.19667630411709e+001,-3.19109418625754e-001

1.10190511587661e+004,-2.19667647827301e+001,-3.23563949083150e-001

1.11728713807222e+004,-2.19667665732441e+001,-3.28080659453334e-001

1.13288388529580e+004,-2.19667684140889e+001,-3.32660417606734e-001

1.14869835499703e+004,-2.19667703066792e+001,-3.37304103524683e-001

1.16473358646846e+004,-2.19667722524690e+001,-3.42012609466789e-001

1.18099266142953e+004,-2.19667742529536e+001,-3.46786840141567e-001

1.19747870461893e+004,-2.19667763096703e+001,-3.51627712880559e-001

1.21419488439505e+004,-2.19667784241994e+001,-3.56536157815045e-001

1.23114441334492e+004,-2.19667805981656e+001,-3.61513118053159e-001

1.24833054890161e+004,-2.19667828332394e+001,-3.66559549862668e-001

1.26575659397028e+004,-2.19667851311382e+001,-3.71676422850507e-001

1.28342589756290e+004,-2.19667874936273e+001,-3.76864720154303e-001

1.30134185544193e+004,-2.19667899225223e+001,-3.82125438625332e-001

1.31950791077289e+004,-2.19667924196890e+001,-3.87459589024064e-001

1.33792755478611e+004,-2.19667949870463e+001,-3.92868196210513e-001

1.35660432744767e+004,-2.19667976265665e+001,-3.98352299343276e-001

1.37554181813974e+004,-2.19668003402777e+001,-4.03912952077073e-001

1.39474366635040e+004,-2.19668031302646e+001,-4.09551222766672e-001

1.41421356237309e+004,-2.19668059986706e+001,-4.15268194668849e-001

1.43395524801583e+004,-2.19668089476996e+001,-4.21064966151796e-001

1.45397251732031e+004,-2.19668119796168e+001,-4.26942650906660e-001

1.47426921729110e+004,-2.19668150967517e+001,-4.32902378157545e-001

1.49484924863494e+004,-2.19668183014985e+001,-4.38945292882047e-001

1.51571656651040e+004,-2.19668215963193e+001,-4.45072556027359e-001

1.53687518128801e+004,-2.19668249837450e+001,-4.51285344733810e-001

1.55832915932100e+004,-2.19668284663776e+001,-4.57584852561860e-001

1.58008262372675e+004,-2.19668320468924e+001,-4.63972289716658e-001

1.60213975517924e+004,-2.19668357280394e+001,-4.70448883285624e-001

1.62450479271247e+004,-2.19668395126462e+001,-4.77015877468305e-001

1.64718203453514e+004,-2.19668434036196e+001,-4.83674533817194e-001

1.67017583885674e+004,-2.19668474039481e+001,-4.90426131478840e-001

1.69349062472505e+004,-2.19668515167042e+001,-4.97271967437878e-001

1.71713087287550e+004,-2.19668557450464e+001,-5.04213356767431e-001

1.74110112659224e+004,-2.19668600922221e+001,-5.11251632878233e-001

1.76540599258131e+004,-2.19668645615699e+001,-5.18388147775535e-001

1.79005014185594e+004,-2.19668691565218e+001,-5.25624272317964e-001

1.81503831063432e+004,-2.19668738806066e+001,-5.32961396477941e-001

1.84037530124975e+004,-2.19668787374519e+001,-5.40400929609889e-001

1.86606598307361e+004,-2.19668837307871e+001,-5.47944300718504e-001

1.89211529345119e+004,-2.19668888644464e+001,-5.55592958732211e-001

1.91852823865052e+004,-2.19668941423715e+001,-5.63348372781696e-001

1.94530989482457e+004,-2.19668995686148e+001,-5.71212032477328e-001

1.97246540898671e+004,-2.19669051473425e+001,-5.79185448198674e-001

1.99999999999999e+004,-2.19669108828375e+001,-5.87270151379255e-001

2.02791895958005e+004,-2.19669167795032e+001,-5.95467694801051e-001

2.05622765331213e+004,-2.19669228418663e+001,-6.03779652891548e-001

2.08493152168224e+004,-2.19669290745805e+001,-6.12207622023902e-001

2.11403608112276e+004,-2.19669354824303e+001,-6.20753220821729e-001

2.14354692507258e+004,-2.19669420703343e+001,-6.29418090469060e-001

2.17346972505211e+004,-2.19669488433491e+001,-6.38203895022447e-001

2.20381023175322e+004,-2.19669558066732e+001,-6.47112321730506e-001

2.23457427614443e+004,-2.19669629656508e+001,-6.56145081354858e-001

2.26576777059159e+004,-2.19669703257762e+001,-6.65303908497026e-001

2.29739670999406e+004,-2.19669778926975e+001,-6.74590561929505e-001

2.32946717293690e+004,-2.19669856722215e+001,-6.84006824930280e-001

2.36198532285905e+004,-2.19669936703177e+001,-6.93554505625476e-001

2.39495740923785e+004,-2.19670018931231e+001,-7.03235437331857e-001

2.42838976879009e+004,-2.19670103469467e+001,-7.13051478906991e-001

2.46228882668982e+004,-2.19670190382742e+001,-7.23004515104908e-001

2.49666109780322e+004,-2.19670279737737e+001,-7.33096456932730e-001

2.53151318794055e+004,-2.19670371602995e+001,-7.43329242018616e-001

2.56685179512580e+004,-2.19670466048986e+001,-7.53704834976570e-001

2.60268371088386e+004,-2.19670563148153e+001,-7.64225227784317e-001

2.63901582154578e+004,-2.19670662974970e+001,-7.74892440160579e-001

2.67585510957221e+004,-2.19670765605996e+001,-7.85708519949658e-001

2.71320865489533e+004,-2.19670871119937e+001,-7.96675543512164e-001

2.75108363627948e+004,-2.19670979597706e+001,-8.07795616118882e-001

2.78948733270080e+004,-2.19671091122481e+001,-8.19070872352788e-001

2.82842712474618e+004,-2.19671205779768e+001,-8.30503476513076e-001

2.86791049603164e+004,-2.19671323657471e+001,-8.42095623028296e-001

2.90794503464061e+004,-2.19671444845957e+001,-8.53849536871919e-001

2.94853843458219e+004,-2.19671569438120e+001,-8.65767473986654e-001

2.98969849726987e+004,-2.19671697529458e+001,-8.77851721710882e-001

3.03143313302078e+004,-2.19671829218142e+001,-8.90104599214768e-001

3.07375036257601e+004,-2.19671964605093e+001,-9.02528457939558e-001

3.11665831864199e+004,-2.19672103794052e+001,-9.15125682044621e-001

3.16016524745350e+004,-2.19672246891670e+001,-9.27898688857235e-001

3.20427951035848e+004,-2.19672394007579e+001,-9.40849929334215e-001

3.24900958542493e+004,-2.19672545254478e+001,-9.53981888524131e-001

3.29436406907028e+004,-2.19672700748223e+001,-9.67297086038096e-001

3.34035167771346e+004,-2.19672860607907e+001,-9.80798076528961e-001

3.38698124945009e+004,-2.19673024955955e+001,-9.94487450172297e-001

3.43426174575100e+004,-2.19673193918219e+001,-1.00836783315789e+000

3.48220225318448e+004,-2.19673367624065e+001,-1.02244188818678e+000

3.53081198516260e+004,-2.19673546206479e+001,-1.03671231497394e+000

3.58010028371187e+004,-2.19673729802164e+001,-1.05118185075764e+000

3.63007662126863e+004,-2.19673918551644e+001,-1.06585327081882e+000

3.68075060249948e+004,-2.19674112599369e+001,-1.08072938900254e+000

3.73213196614721e+004,-2.19674312093826e+001,-1.09581305825007e+000

3.78423058690237e+004,-2.19674517187649e+001,-1.11110717113702e+000

3.83705647730104e+004,-2.19674728037736e+001,-1.12661466041852e+000

3.89061978964912e+004,-2.19674944805365e+001,-1.14233849958098e+000

3.94493081797342e+004,-2.19675167656319e+001,-1.15828170340303e+000

3.99999999999998e+004,-2.19675396761007e+001,-1.17444732852189e+000

4.05583791916010e+004,-2.19675632294594e+001,-1.19083847400960e+000

4.11245530662425e+004,-2.19675874437133e+001,-1.20745828195360e+000

4.16986304336447e+004,-2.19676123373701e+001,-1.22430993804825e+000

4.22807216224550e+004,-2.19676379294535e+001,-1.24139667219254e+000

4.28709385014515e+004,-2.19676642395178e+001,-1.25872175909674e+000

4.34693945010421e+004,-2.19676912876626e+001,-1.27628851889432e+000

4.40762046350642e+004,-2.19677190945473e+001,-1.29410031776644e+000

4.46914855228886e+004,-2.19677476814075e+001,-1.31216056856994e+000

4.53153554118317e+004,-2.19677770700699e+001,-1.33047273147783e+000

4.59479341998812e+004,-2.19678072829694e+001,-1.34904031462512e+000

4.65893434587380e+004,-2.19678383431656e+001,-1.36786687476312e+000

4.72397064571810e+004,-2.19678702743597e+001,-1.38695601792570e+000

4.78991481847569e+004,-2.19679031009130e+001,-1.40631140009917e+000

4.85677953758016e+004,-2.19679368478640e+001,-1.42593672790627e+000

4.92457765337964e+004,-2.19679715409479e+001,-1.44583575929389e+000

4.99332219560642e+004,-2.19680072066154e+001,-1.46601230423354e+000

5.06302637588109e+004,-2.19680438720524e+001,-1.48647022542906e+000

5.13370359025159e+004,-2.19680815652003e+001,-1.50721343903409e+000

5.20536742176771e+004,-2.19681203147765e+001,-1.52824591537810e+000

5.27803164309155e+004,-2.19681601502961e+001,-1.54957167970294e+000

5.35171021914442e+004,-2.19682011020932e+001,-1.57119481290707e+000

5.42641730979066e+004,-2.19682432013438e+001,-1.59311945230158e+000

5.50216727255895e+004,-2.19682864800889e+001,-1.61534979237397e+000

5.57897466540159e+004,-2.19683309712576e+001,-1.63789008556214e+000

5.65685424949235e+004,-2.19683767086921e+001,-1.66074464303860e+000

5.73582099206328e+004,-2.19684237271719e+001,-1.68391783550477e+000

5.81589006928121e+004,-2.19684720624402e+001,-1.70741409399389e+000

5.89707686916437e+004,-2.19685217512293e+001,-1.73123791068688e+000

5.97939699453972e+004,-2.19685728312884e+001,-1.75539383973469e+000

6.06286626604156e+004,-2.19686253414105e+001,-1.77988649809397e+000

6.14750072515201e+004,-2.19686793214614e+001,-1.80472056637129e+000

6.23331663728396e+004,-2.19687348124086e+001,-1.82990078968035e+000

6.32033049490698e+004,-2.19687918563511e+001,-1.85543197850628e+000

6.40855902071694e+004,-2.19688504965504e+001,-1.88131900958336e+000

6.49801917084985e+004,-2.19689107774614e+001,-1.90756682678268e+000

6.58872813814055e+004,-2.19689727447656e+001,-1.93418044201065e+000

6.68070335542691e+004,-2.19690364454035e+001,-1.96116493611777e+000

6.77396249890018e+004,-2.19691019276088e+001,-1.98852545982148e+000

6.86852349150199e+004,-2.19691692409435e+001,-2.01626723463468e+000

6.96440450636895e+004,-2.19692384363334e+001,-2.04439555381208e+000

7.06162397032520e+004,-2.19693095661052e+001,-2.07291578330205e+000

7.16020056742374e+004,-2.19693826840235e+001,-2.10183336271451e+000

7.26015324253724e+004,-2.19694578453301e+001,-2.13115380629707e+000

7.36150120499896e+004,-2.19695351067832e+001,-2.16088270392473e+000

7.46426393229441e+004,-2.19696145266982e+001,-2.19102572209999e+000

7.56846117380472e+004,-2.19696961649891e+001,-2.22158860496675e+000

7.67411295460207e+004,-2.19697800832117e+001,-2.25257717533346e+000

7.78123957929823e+004,-2.19698663446064e+001,-2.28399733570997e+000

7.88986163594682e+004,-2.19699550141444e+001,-2.31585506935660e+000

7.99999999999995e+004,-2.19700461585724e+001,-2.34815644134428e+000

8.11167583832018e+004,-2.19701398464607e+001,-2.38090759962662e+000

8.22491061324848e+004,-2.19702361482509e+001,-2.41411477612713e+000

8.33972608672892e+004,-2.19703351363060e+001,-2.44778428783408e+000

8.45614432449099e+004,-2.19704368849605e+001,-2.48192253791254e+000

8.57418770029029e+004,-2.19705414705729e+001,-2.51653601682574e+000

8.69387890020841e+004,-2.19706489715787e+001,-2.55163130347018e+000

8.81524092701283e+004,-2.19707594685451e+001,-2.58721506632297e+000

8.93829710457770e+004,-2.19708730442267e+001,-2.62329406460343e+000

9.06307108236633e+004,-2.19709897836234e+001,-2.65987514944361e+000

9.18958683997622e+004,-2.19711097740380e+001,-2.69696526507715e+000

9.31786869174758e+004,-2.19712331051373e+001,-2.73457145003516e+000

9.44794129143618e+004,-2.19713598690127e+001,-2.77270083836022e+000

9.57982963695136e+004,-2.19714901602440e+001,-2.81136066082914e+000

9.71355907516031e+004,-2.19716240759630e+001,-2.85055824619229e+000

9.84915530675926e+004,-2.19717617159202e+001,-2.89030102242245e+000

9.98664439121282e+004,-2.19719031825519e+001,-2.93059651797991e+000

1.01260527517622e+005,-2.19720485810494e+001,-2.97145236308931e+000

1.02674071805032e+005,-2.19721980194297e+001,-3.01287629102908e+000

1.04107348435354e+005,-2.19723516086080e+001,-3.05487613943518e+000

1.05560632861831e+005,-2.19725094624712e+001,-3.09745985161755e+000

1.07034204382888e+005,-2.19726716979543e+001,-3.14063547789047e+000

1.08528346195813e+005,-2.19728384351172e+001,-3.18441117691447e+000

1.10043345451179e+005,-2.19730097972241e+001,-3.22879521705398e+000

1.11579493308032e+005,-2.19731859108244e+001,-3.27379597774642e+000

1.13137084989847e+005,-2.19733669058355e+001,-3.31942195088550e+000

1.14716419841265e+005,-2.19735529156272e+001,-3.36568174221761e+000

1.16317801385624e+005,-2.19737440771081e+001,-3.41258407275185e+000

1.17941537383287e+005,-2.19739405308142e+001,-3.46013778018280e+000

1.19587939890794e+005,-2.19741424209986e+001,-3.50835182032752e+000

1.21257325320831e+005,-2.19743498957242e+001,-3.55723526857512e+000

1.22950014503040e+005,-2.19745631069572e+001,-3.60679732135028e+000

1.24666332745679e+005,-2.19747822106639e+001,-3.65704729759043e+000

1.26406609898139e+005,-2.19750073669081e+001,-3.70799464023458e+000

1.28171180414339e+005,-2.19752387399517e+001,-3.75964891772805e+000

1.29960383416997e+005,-2.19754764983568e+001,-3.81201982553822e+000

1.31774562762811e+005,-2.19757208150901e+001,-3.86511718768542e+000

1.33614067108538e+005,-2.19759718676288e+001,-3.91895095828609e+000

1.35479249978003e+005,-2.19762298380700e+001,-3.97353122310896e+000

1.37370469830040e+005,-2.19764949132405e+001,-4.02886820114630e+000

1.39288090127379e+005,-2.19767672848105e+001,-4.08497224619624e+000

1.41232479406504e+005,-2.19770471494079e+001,-4.14185384846012e+000

1.43204011348474e+005,-2.19773347087362e+001,-4.19952363615169e+000

1.45203064850745e+005,-2.19776301696935e+001,-4.25799237712125e+000

1.47230024099979e+005,-2.19779337444946e+001,-4.31727098049127e+000

1.49285278645888e+005,-2.19782456507949e+001,-4.37737049830683e+000

1.51369223476094e+005,-2.19785661118168e+001,-4.43830212719786e+000

1.53482259092041e+005,-2.19788953564781e+001,-4.50007721005617e+000

1.55624791585964e+005,-2.19792336195229e+001,-4.56270723772449e+000

1.57797232718936e+005,-2.19795811416551e+001,-4.62620385069951e+000

1.59999999999999e+005,-2.19799381696737e+001,-4.69057884084808e+000

1.62233516766403e+005,-2.19803049566109e+001,-4.75584415313679e+000

1.64498212264969e+005,-2.19806817618720e+001,-4.82201188737439e+000

1.66794521734578e+005,-2.19810688513784e+001,-4.88909429996908e+000

1.69122886489819e+005,-2.19814664977122e+001,-4.95710380569763e+000

1.71483754005805e+005,-2.19818749802639e+001,-5.02605297948930e+000

1.73877578004168e+005,-2.19822945853817e+001,-5.09595455822261e+000

1.76304818540256e+005,-2.19827256065240e+001,-5.16682144253652e+000

1.78765942091554e+005,-2.19831683444133e+001,-5.23866669865559e+000

1.81261421647326e+005,-2.19836231071937e+001,-5.31150356022771e+000

1.83791736799524e+005,-2.19840902105897e+001,-5.38534543017842e+000

1.86357373834951e+005,-2.19845699780678e+001,-5.46020588257767e+000

1.88958825828723e+005,-2.19850627410007e+001,-5.53609866452151e+000

1.91596592739027e+005,-2.19855688388335e+001,-5.61303769802954e+000

1.94271181503206e+005,-2.19860886192525e+001,-5.69103708195622e+000

1.96983106135185e+005,-2.19866224383564e+001,-5.77011109391788e+000

1.99732887824256e+005,-2.19871706608295e+001,-5.85027419223571e+000

2.02521055035243e+005,-2.19877336601182e+001,-5.93154101789426e+000

2.05348143610063e+005,-2.19883118186086e+001,-6.01392639651616e+000

2.08214696870707e+005,-2.19889055278076e+001,-6.09744534035404e+000

2.11121265723661e+005,-2.19895151885256e+001,-6.18211305029931e+000

2.14068408765776e+005,-2.19901412110624e+001,-6.26794491790814e+000

2.17056692391625e+005,-2.19907840153945e+001,-6.35495652744656e+000

2.20086690902357e+005,-2.19914440313657e+001,-6.44316365795321e+000

2.23158986616063e+005,-2.19921216988795e+001,-6.53258228532188e+000

2.26274169979693e+005,-2.19928174680945e+001,-6.62322858440418e+000

2.29432839682530e+005,-2.19935317996217e+001,-6.71511893113226e+000

2.32635602771247e+005,-2.19942651647245e+001,-6.80826990466286e+000

2.35883074766574e+005,-2.19950180455212e+001,-6.90269828954440e+000

2.39175879781588e+005,-2.19957909351907e+001,-6.99842107790549e+000

2.42514650641661e+005,-2.19965843381789e+001,-7.09545547166882e+000

2.45900029006080e+005,-2.19973987704104e+001,-7.19381888478858e+000

2.49332665491357e+005,-2.19982347595005e+001,-7.29352894551375e+000

2.52813219796278e+005,-2.19990928449713e+001,-7.39460349867925e+000

2.56342360828676e+005,-2.19999735784704e+001,-7.49706060802318e+000

2.59920766833993e+005,-2.20008775239920e+001,-7.60091855853443e+000

2.63549125525621e+005,-2.20018052581020e+001,-7.70619585882930e+000

2.67228134217075e+005,-2.20027573701651e+001,-7.81291124356057e+000

2.70958499956006e+005,-2.20037344625763e+001,-7.92108367585782e+000

2.74740939660078e+005,-2.20047371509944e+001,-8.03073234980287e+000

2.78576180254757e+005,-2.20057660645808e+001,-8.14187669293987e+000

2.82464958813007e+005,-2.20068218462403e+001,-8.25453636882186e+000

2.86408022696948e+005,-2.20079051528670e+001,-8.36873127959601e+000

2.90406129701488e+005,-2.20090166555938e+001,-8.48448156862761e+000

2.94460048199957e+005,-2.20101570400466e+001,-8.60180762316551e+000

2.98570557291775e+005,-2.20113270066025e+001,-8.72073007704967e+000

3.02738446952187e+005,-2.20125272706536e+001,-8.84126981346296e+000

3.06964518184081e+005,-2.20137585628754e+001,-8.96344796772848e+000

3.11249583171928e+005,-2.20150216295012e+001,-9.08728593015293e+000

3.15594465437872e+005,-2.20163172326018e+001,-9.21280534891972e+000

3.19999999999997e+005,-2.20176461503722e+001,-9.34002813303059e+000

3.24467033532806e+005,-2.20190091774241e+001,-9.46897645529923e+000

3.28996424529938e+005,-2.20204071250858e+001,-9.59967275539771e+000

3.33589043469155e+005,-2.20218408217104e+001,-9.73213974295584e+000

3.38245772979638e+005,-2.20233111129904e+001,-9.86640040071643e+000

3.42967508011610e+005,-2.20248188622826e+001,-1.00024779877470e+001

3.47755156008335e+005,-2.20263649509413e+001,-1.01403960427079e+001

3.52609637080511e+005,-2.20279502786608e+001,-1.02801783871792e+001

3.57531884183106e+005,-2.20295757638294e+001,-1.04218491290461e+001

3.62522843294651e+005,-2.20312423438936e+001,-1.05654326659448e+001

3.67583473599047e+005,-2.20329509757343e+001,-1.07109536887671e+001

3.72714747669902e+005,-2.20347026360554e+001,-1.08584371852255e+001

3.77917651657445e+005,-2.20364983217860e+001,-1.10079084434794e+001

3.83193185478053e+005,-2.20383390504960e+001,-1.11593930558194e+001

3.88542363006410e+005,-2.20402258608268e+001,-1.13129169224126e+001

3.93966212270369e+005,-2.20421598129385e+001,-1.14685062551060e+001

3.99465775648511e+005,-2.20441419889726e+001,-1.16261875812864e+001

4.05042110070485e+005,-2.20461734935326e+001,-1.17859877477980e+001

4.10696287220124e+005,-2.20482554541838e+001,-1.19479339249124e+001

4.16429393741414e+005,-2.20503890219718e+001,-1.21120536103524e+001

4.22242531447321e+005,-2.20525753719614e+001,-1.22783746333631e+001

4.28136817531551e+005,-2.20548157037981e+001,-1.24469251588315e+001

4.34113384783250e+005,-2.20571112422905e+001,-1.26177336914476e+001

4.40173381804713e+005,-2.20594632380176e+001,-1.27908290799040e+001

4.46317973232124e+005,-2.20618729679604e+001,-1.29662405211325e+001

4.52548339959385e+005,-2.20643417361583e+001,-1.31439975645663e+001

4.58865679365059e+005,-2.20668708743938e+001,-1.33241301164294e+001

4.65271205542494e+005,-2.20694617429036e+001,-1.35066684440428e+001

4.71766149533147e+005,-2.20721157311191e+001,-1.36916431801417e+001

4.78351759563174e+005,-2.20748342584369e+001,-1.38790853271969e+001

4.85029301283321e+005,-2.20776187750196e+001,-1.40690262617328e+001

4.91800058012158e+005,-2.20804707626292e+001,-1.42614977386333e+001

4.98665330982714e+005,-2.20833917354923e+001,-1.44565318954263e+001

5.05626439592555e+005,-2.20863832412001e+001,-1.46541612565376e+001

5.12684721657352e+005,-2.20894468616414e+001,-1.48544187375040e+001

5.19841533667984e+005,-2.20925842139729e+001,-1.50573376491344e+001

5.27098251051240e+005,-2.20957969516233e+001,-1.52629517016082e+001

5.34456268434150e+005,-2.20990867653362e+001,-1.54712950084976e+001

5.41916999912011e+005,-2.21024553842488e+001,-1.56824020907033e+001

