Freq.,VOut,OutRef

1.00000000000000e+004,-2.31062891418045e+001,-3.77799321040344e-001

1.01395947979003e+004,-2.31062913737920e+001,-3.83073130210589e-001

1.02811382665607e+004,-2.31062936685235e+001,-3.88420555921437e-001

1.04246576084112e+004,-2.31062960277627e+001,-3.93842625689945e-001

1.05701804056138e+004,-2.31062984533227e+001,-3.99340381372994e-001

1.07177346253629e+004,-2.31063009470677e+001,-4.04914879362662e-001

1.08673486252606e+004,-2.31063035109143e+001,-4.10567190792399e-001

1.10190511587661e+004,-2.31063061468329e+001,-4.16298401743697e-001

1.11728713807222e+004,-2.31063088568492e+001,-4.22109613450694e-001

1.13288388529580e+004,-2.31063116430462e+001,-4.28001942513159e-001

1.14869835499703e+004,-2.31063145075648e+001,-4.33976521112825e-001

1.16473358646846e+004,-2.31063174526065e+001,-4.40034497227199e-001

1.18099266142953e+004,-2.31063204804347e+001,-4.46177034850393e-001

1.19747870461893e+004,-2.31063235933763e+001,-4.52405314218816e-001

1.21419488439505e+004,-2.31063267938234e+001,-4.58720532035045e-001

1.23114441334492e+004,-2.31063300842355e+001,-4.65123901698944e-001

1.24833054890161e+004,-2.31063334671413e+001,-4.71616653538930e-001

1.26575659397028e+004,-2.31063369451404e+001,-4.78200035048168e-001

1.28342589756290e+004,-2.31063405209055e+001,-4.84875311125615e-001

1.30134185544193e+004,-2.31063441971843e+001,-4.91643764315903e-001

1.31950791077289e+004,-2.31063479768020e+001,-4.98506695056745e-001

1.33792755478611e+004,-2.31063518626627e+001,-5.05465421929209e-001

1.35660432744767e+004,-2.31063558577524e+001,-5.12521281907680e-001

1.37554181813974e+004,-2.31063599651411e+001,-5.19675630617871e-001

1.39474366635040e+004,-2.31063641879849e+001,-5.26929842597883e-001

1.41421356237309e+004,-2.31063685295285e+001,-5.34285311558769e-001

1.43395524801583e+004,-2.31063729931079e+001,-5.41743450654112e-001

1.45397251732031e+004,-2.31063775821526e+001,-5.49305692750087e-001

1.47426921729110e+004,-2.31063823001889e+001,-5.56973490698759e-001

1.49484924863494e+004,-2.31063871508416e+001,-5.64748317618247e-001

1.51571656651040e+004,-2.31063921378378e+001,-5.72631667174211e-001

1.53687518128801e+004,-2.31063972650089e+001,-5.80625053866297e-001

1.55832915932100e+004,-2.31064025362943e+001,-5.88730013316943e-001

1.58008262372675e+004,-2.31064079557437e+001,-5.96948102567100e-001

1.60213975517924e+004,-2.31064135275210e+001,-6.05280900374099e-001

1.62450479271247e+004,-2.31064192559066e+001,-6.13730007513346e-001

1.64718203453514e+004,-2.31064251453014e+001,-6.22297047085198e-001

1.67017583885674e+004,-2.31064312002297e+001,-6.30983664826279e-001

1.69349062472505e+004,-2.31064374253432e+001,-6.39791529422422e-001

1.71713087287550e+004,-2.31064438254240e+001,-6.48722332831474e-001

1.74110112659224e+004,-2.31064504053886e+001,-6.57777790603936e-001

1.76540599258131e+004,-2.31064571702914e+001,-6.66959642213549e-001

1.79005014185594e+004,-2.31064641253291e+001,-6.76269651387949e-001

1.81503831063432e+004,-2.31064712758439e+001,-6.85709606449338e-001

1.84037530124975e+004,-2.31064786273285e+001,-6.95281320651907e-001

1.86606598307361e+004,-2.31064861854294e+001,-7.04986632533774e-001

1.89211529345119e+004,-2.31064939559518e+001,-7.14827406265233e-001

1.91852823865052e+004,-2.31065019448641e+001,-7.24805532006095e-001

1.94530989482457e+004,-2.31065101583021e+001,-7.34922926267021e-001

1.97246540898671e+004,-2.31065186025739e+001,-7.45181532276002e-001

1.99999999999999e+004,-2.31065272841646e+001,-7.55583320351147e-001

2.02791895958005e+004,-2.31065362097416e+001,-7.66130288274486e-001

2.05622765331213e+004,-2.31065453861593e+001,-7.76824461675333e-001

2.08493152168224e+004,-2.31065548204647e+001,-7.87667894417465e-001

2.11403608112276e+004,-2.31065645199023e+001,-7.98662668991153e-001

2.14354692507258e+004,-2.31065744919203e+001,-8.09810896910693e-001

2.17346972505211e+004,-2.31065847441759e+001,-8.21114719117526e-001

2.20381023175322e+004,-2.31065952845411e+001,-8.32576306388920e-001

2.23457427614443e+004,-2.31066061211088e+001,-8.44197859754248e-001

2.26576777059159e+004,-2.31066172621992e+001,-8.55981610911459e-001

2.29739670999406e+004,-2.31066287163659e+001,-8.67929822655696e-001

2.32946717293690e+004,-2.31066404924026e+001,-8.80044789309883e-001

2.36198532285905e+004,-2.31066525993497e+001,-8.92328837163486e-001

2.39495740923785e+004,-2.31066650465014e+001,-9.04784324913474e-001

2.42838976879009e+004,-2.31066778434124e+001,-9.17413644117773e-001

2.46228882668982e+004,-2.31066909999057e+001,-9.30219219647343e-001

2.49666109780322e+004,-2.31067045260800e+001,-9.43203510151042e-001

2.53151318794055e+004,-2.31067184323170e+001,-9.56369008523032e-001

2.56685179512580e+004,-2.31067327292899e+001,-9.69718242376424e-001

2.60268371088386e+004,-2.31067474279709e+001,-9.83253774527592e-001

2.63901582154578e+004,-2.31067625396404e+001,-9.96978203480418e-001

2.67585510957221e+004,-2.31067780758951e+001,-1.01089416392378e+000

2.71320865489533e+004,-2.31067940486566e+001,-1.02500432723111e+000

2.75108363627948e+004,-2.31068104701810e+001,-1.03931140197002e+000

2.78948733270080e+004,-2.31068273530683e+001,-1.05381813441561e+000

2.82842712474618e+004,-2.31068447102715e+001,-1.06852730907357e+000

2.86791049603164e+004,-2.31068625551067e+001,-1.08344174921036e+000

2.90794503464061e+004,-2.31068809012637e+001,-1.09856431738641e+000

2.94853843458219e+004,-2.31068997628155e+001,-1.11389791600449e+000

2.98969849726987e+004,-2.31069191542301e+001,-1.12944548785584e+000

3.03143313302078e+004,-2.31069390903807e+001,-1.14521001668268e+000

3.07375036257601e+004,-2.31069595865575e+001,-1.16119452774179e+000

3.11665831864199e+004,-2.31069806584788e+001,-1.17740208837997e+000

3.16016524745350e+004,-2.31070023223039e+001,-1.19383580861436e+000

3.20427951035848e+004,-2.31070245946443e+001,-1.21049884172250e+000

3.24900958542493e+004,-2.31070474925773e+001,-1.22739438483920e+000

3.29436406907028e+004,-2.31070710336581e+001,-1.24452567956398e+000

3.34035167771346e+004,-2.31070952359343e+001,-1.26189601257071e+000

3.38698124945009e+004,-2.31071201179582e+001,-1.27950871623403e+000

3.43426174575100e+004,-2.31071456988021e+001,-1.29736716925633e+000

3.48220225318448e+004,-2.31071719980721e+001,-1.31547479730840e+000

3.53081198516260e+004,-2.31071990359234e+001,-1.33383507367574e+000

3.58010028371187e+004,-2.31072268330752e+001,-1.35245151991465e+000

3.63007662126863e+004,-2.31072554108268e+001,-1.37132770651736e+000

3.68075060249948e+004,-2.31072847910736e+001,-1.39046725358636e+000

3.73213196614721e+004,-2.31073149963237e+001,-1.40987383151564e+000

3.78423058690237e+004,-2.31073460497148e+001,-1.42955116168348e+000

3.83705647730104e+004,-2.31073779750321e+001,-1.44950301715396e+000

3.89061978964912e+004,-2.31074107967261e+001,-1.46973322338623e+000

3.94493081797342e+004,-2.31074445399311e+001,-1.49024565895503e+000

3.99999999999998e+004,-2.31074792304844e+001,-1.51104425627996e+000

4.05583791916010e+004,-2.31075148949452e+001,-1.53213300236553e+000

4.11245530662425e+004,-2.31075515606160e+001,-1.55351593954811e+000

4.16986304336447e+004,-2.31075892555616e+001,-1.57519716625698e+000

4.22807216224550e+004,-2.31076280086319e+001,-1.59718083778097e+000

4.28709385014515e+004,-2.31076678494823e+001,-1.61947116704979e+000

4.34693945010421e+004,-2.31077088085970e+001,-1.64207242542098e+000

4.40762046350642e+004,-2.31077509173118e+001,-1.66498894348159e+000

4.46914855228886e+004,-2.31077942078373e+001,-1.68822511185693e+000

4.53153554118317e+004,-2.31078387132838e+001,-1.71178538203173e+000

4.59479341998812e+004,-2.31078844676857e+001,-1.73567426718159e+000

4.65893434587380e+004,-2.31079315060277e+001,-1.75989634301561e+000

4.72397064571810e+004,-2.31079798642703e+001,-1.78445624862955e+000

4.78991481847569e+004,-2.31080295793777e+001,-1.80935868736944e+000

4.85677953758016e+004,-2.31080806893450e+001,-1.83460842770908e+000

4.92457765337964e+004,-2.31081332332271e+001,-1.86021030413453e+000

4.99332219560642e+004,-2.31081872511674e+001,-1.88616921804555e+000

5.06302637588109e+004,-2.31082427844288e+001,-1.91249013866198e+000

5.13370359025159e+004,-2.31082998754240e+001,-1.93917810394882e+000

5.20536742176771e+004,-2.31083585677473e+001,-1.96623822154770e+000

5.27803164309155e+004,-2.31084189062074e+001,-1.99367566972384e+000

5.35171021914442e+004,-2.31084809368607e+001,-2.02149569832233e+000

5.42641730979066e+004,-2.31085447070461e+001,-2.04970362973826e+000

5.50216727255895e+004,-2.31086102654199e+001,-2.07830485989977e+000

5.57897466540159e+004,-2.31086776619924e+001,-2.10730485926166e+000

5.65685424949235e+004,-2.31087469481649e+001,-2.13670917381279e+000

5.73582099206328e+004,-2.31088181767682e+001,-2.16652342609583e+000

5.81589006928121e+004,-2.31088914021020e+001,-2.19675331624031e+000

5.89707686916437e+004,-2.31089666799748e+001,-2.22740462300796e+000

5.97939699453972e+004,-2.31090440677459e+001,-2.25848320485104e+000

6.06286626604156e+004,-2.31091236243676e+001,-2.28999500098496e+000

6.14750072515201e+004,-2.31092054104290e+001,-2.32194603247252e+000

6.23331663728396e+004,-2.31092894882011e+001,-2.35434240332322e+000

6.32033049490698e+004,-2.31093759216822e+001,-2.38719030160525e+000

6.40855902071694e+004,-2.31094647766460e+001,-2.42049600057063e+000

6.49801917084985e+004,-2.31095561206896e+001,-2.45426585979560e+000

6.58872813814055e+004,-2.31096500232835e+001,-2.48850632633369e+000

6.68070335542691e+004,-2.31097465558230e+001,-2.52322393588295e+000

6.77396249890018e+004,-2.31098457916801e+001,-2.55842531396772e+000

6.86852349150199e+004,-2.31099478062582e+001,-2.59411717713434e+000

6.96440450636895e+004,-2.31100526770467e+001,-2.63030633416218e+000

7.06162397032520e+004,-2.31101604836782e+001,-2.66699968728655e+000

7.16020056742374e+004,-2.31102713079868e+001,-2.70420423343906e+000

7.26015324253724e+004,-2.31103852340677e+001,-2.74192706550086e+000

7.36150120499896e+004,-2.31105023483386e+001,-2.78017537357193e+000

7.46426393229441e+004,-2.31106227396029e+001,-2.81895644625391e+000

7.56846117380472e+004,-2.31107464991141e+001,-2.85827767194839e+000

7.67411295460207e+004,-2.31108737206421e+001,-2.89814654017119e+000

7.78123957929823e+004,-2.31110045005414e+001,-2.93857064287960e+000

7.88986163594682e+004,-2.31111389378208e+001,-2.97955767581841e+000

7.99999999999995e+004,-2.31112771342150e+001,-3.02111543987647e+000

8.11167583832018e+004,-2.31114191942580e+001,-3.06325184246365e+000

8.22491061324848e+004,-2.31115652253586e+001,-3.10597489889930e+000

8.33972608672892e+004,-2.31117153378775e+001,-3.14929273381876e+000

8.45614432449099e+004,-2.31118696452065e+001,-3.19321358259478e+000

8.57418770029029e+004,-2.31120282638503e+001,-3.23774579277385e+000

8.69387890020841e+004,-2.31121913135090e+001,-3.28289782553000e+000

8.81524092701283e+004,-2.31123589171645e+001,-3.32867825713239e+000

8.93829710457770e+004,-2.31125312011672e+001,-3.37509578043118e+000

9.06307108236633e+004,-2.31127082953268e+001,-3.42215920635669e+000

9.18958683997622e+004,-2.31128903330035e+001,-3.46987746543721e+000

9.31786869174758e+004,-2.31130774512034e+001,-3.51825960933060e+000

9.44794129143618e+004,-2.31132697906744e+001,-3.56731481237348e+000

9.57982963695136e+004,-2.31134674960060e+001,-3.61705237314647e+000

9.71355907516031e+004,-2.31136707157309e+001,-3.66748171605385e+000

9.84915530675926e+004,-2.31138796024289e+001,-3.71861239292244e+000

9.98664439121282e+004,-2.31140943128340e+001,-3.77045408461291e+000

1.01260527517622e+005,-2.31143150079438e+001,-3.82301660265149e+000

1.02674071805032e+005,-2.31145418531316e+001,-3.87630989087362e+000

1.04107348435354e+005,-2.31147750182611e+001,-3.93034402708754e+000

1.05560632861831e+005,-2.31150146778041e+001,-3.98512922475174e+000

1.07034204382888e+005,-2.31152610109611e+001,-4.04067583466887e+000

1.08528346195813e+005,-2.31155142017848e+001,-4.09699434669696e+000

1.10043345451179e+005,-2.31157744393062e+001,-4.15409539147537e+000

1.11579493308032e+005,-2.31160419176642e+001,-4.21198974216843e+000

1.13137084989847e+005,-2.31163168362380e+001,-4.27068831622278e+000

1.14716419841265e+005,-2.31165993997830e+001,-4.33020217714369e+000

1.16317801385624e+005,-2.31168898185694e+001,-4.39054253628422e+000

1.17941537383287e+005,-2.31171883085244e+001,-4.45172075465346e+000

1.19587939890794e+005,-2.31174950913778e+001,-4.51374834473735e+000

1.21257325320831e+005,-2.31178103948105e+001,-4.57663697233734e+000

1.22950014503040e+005,-2.31181344526075e+001,-4.64039845842482e+000

1.24666332745679e+005,-2.31184675048128e+001,-4.70504478100963e+000

1.26406609898139e+005,-2.31188097978896e+001,-4.77058807702461e+000

1.28171180414339e+005,-2.31191615848830e+001,-4.83704064422621e+000

1.29960383416997e+005,-2.31195231255867e+001,-4.90441494310936e+000

1.31774562762811e+005,-2.31198946867136e+001,-4.97272359883796e+000

1.33614067108538e+005,-2.31202765420703e+001,-5.04197940318996e+000

1.35479249978003e+005,-2.31206689727350e+001,-5.11219531651722e+000

1.37370469830040e+005,-2.31210722672400e+001,-5.18338446972076e+000

1.39288090127379e+005,-2.31214867217578e+001,-5.25556016623837e+000

1.41232479406504e+005,-2.31219126402913e+001,-5.32873588405031e+000

1.43204011348474e+005,-2.31223503348685e+001,-5.40292527769450e+000

1.45203064850745e+005,-2.31228001257409e+001,-5.47814218029959e+000

1.47230024099979e+005,-2.31232623415864e+001,-5.55440060562933e+000

1.49285278645888e+005,-2.31237373197169e+001,-5.63171475014154e+000

1.51369223476094e+005,-2.31242254062897e+001,-5.71009899506021e+000

1.53482259092041e+005,-2.31247269565235e+001,-5.78956790846070e+000

1.55624791585964e+005,-2.31252423349190e+001,-5.87013624736822e+000

1.57797232718936e+005,-2.31257719154848e+001,-5.95181895986793e+000

1.59999999999999e+005,-2.31263160819662e+001,-6.03463118722869e+000

1.62233516766403e+005,-2.31268752280805e+001,-6.11858826603919e+000

1.64498212264969e+005,-2.31274497577562e+001,-6.20370573035383e+000

1.66794521734578e+005,-2.31280400853769e+001,-6.28999931385429e+000

1.69122886489819e+005,-2.31286466360305e+001,-6.37748495201835e+000

1.71483754005805e+005,-2.31292698457631e+001,-6.46617878430316e+000

1.73877578004168e+005,-2.31299101618382e+001,-6.55609715633809e+000

1.76304818540256e+005,-2.31305680430002e+001,-6.64725662212885e+000

1.78765942091554e+005,-2.31312439597442e+001,-6.73967394627160e+000

1.81261421647326e+005,-2.31319383945900e+001,-6.83336610617827e+000

1.83791736799524e+005,-2.31326518423613e+001,-6.92835029431148e+000

1.86357373834951e+005,-2.31333848104715e+001,-7.02464392042834e+000

1.88958825828723e+005,-2.31341378192129e+001,-7.12226461383619e+000

1.91596592739027e+005,-2.31349114020528e+001,-7.22123022565560e+000

1.94271181503206e+005,-2.31357061059347e+001,-7.32155883109283e+000

1.96983106135185e+005,-2.31365224915847e+001,-7.42326873172229e+000

1.99732887824256e+005,-2.31373611338235e+001,-7.52637845777711e+000

2.02521055035243e+005,-2.31382226218850e+001,-7.63090677044740e+000

2.05348143610063e+005,-2.31391075597388e+001,-7.73687266418848e+000

2.08214696870707e+005,-2.31400165664203e+001,-7.84429536903642e+000

2.11121265723661e+005,-2.31409502763656e+001,-7.95319435293066e+000

2.14068408765776e+005,-2.31419093397527e+001,-8.06358932404660e+000

2.17056692391625e+005,-2.31428944228484e+001,-8.17550023313369e+000

2.20086690902357e+005,-2.31439062083612e+001,-8.28894727586311e+000

2.23158986616063e+005,-2.31449453958010e+001,-8.40395089518092e+000

2.26274169979693e+005,-2.31460127018441e+001,-8.52053178367003e+000

2.29432839682530e+005,-2.31471088607049e+001,-8.63871088591941e+000

2.32635602771247e+005,-2.31482346245141e+001,-8.75850940089923e+000

2.35883074766574e+005,-2.31493907637029e+001,-8.87994878434488e+000

2.39175879781588e+005,-2.31505780673945e+001,-9.00305075114665e+000

2.42514650641661e+005,-2.31517973438012e+001,-9.12783727774788e+000

2.45900029006080e+005,-2.31530494206291e+001,-9.25433060454908e+000

2.49332665491357e+005,-2.31543351454895e+001,-9.38255323831989e+000

2.52813219796278e+005,-2.31556553863170e+001,-9.51252795461815e+000

2.56342360828676e+005,-2.31570110317948e+001,-9.64427780021601e+000

2.59920766833993e+005,-2.31584029917878e+001,-9.77782609553310e+000

2.63549125525621e+005,-2.31598321977824e+001,-9.91319643707781e+000

2.67228134217075e+005,-2.31612996033341e+001,-1.00504126998951e+001

2.70958499956006e+005,-2.31628061845230e+001,-1.01894990400220e+001

2.74740939660078e+005,-2.31643529404175e+001,-1.03304798969514e+001

2.78576180254757e+005,-2.31659408935452e+001,-1.04733799961022e+001

2.82464958813007e+005,-2.31675710903732e+001,-1.06182243512978e+001

2.86408022696948e+005,-2.31692446017965e+001,-1.07650382672524e+001

2.90406129701488e+005,-2.31709625236352e+001,-1.09138473420642e+001

2.94460048199957e+005,-2.31727259771409e+001,-1.10646774697173e+001

2.98570557291775e+005,-2.31745361095123e+001,-1.12175548425902e+001

3.02738446952187e+005,-2.31763940944212e+001,-1.13725059539728e+001

3.06964518184081e+005,-2.31783011325472e+001,-1.15295576005894e+001

3.11249583171928e+005,-2.31802584521241e+001,-1.16887368851305e+001

3.15594465437872e+005,-2.31822673094960e+001,-1.18500712187894e+001

3.19999999999997e+005,-2.31843289896852e+001,-1.20135883238078e+001

3.24467033532806e+005,-2.31864448069710e+001,-1.21793162360245e+001

3.28996424529938e+005,-2.31886161054810e+001,-1.23472833074319e+001

3.33589043469155e+005,-2.31908442597942e+001,-1.25175182087354e+001

3.38245772979638e+005,-2.31931306755576e+001,-1.26900499319177e+001

3.42967508011610e+005,-2.31954767901156e+001,-1.28649077928053e+001

3.47755156008335e+005,-2.31978840731536e+001,-1.30421214336366e+001

3.52609637080511e+005,-2.32003540273562e+001,-1.32217208256300e+001

3.57531884183106e+005,-2.32028881890797e+001,-1.34037362715510e+001

3.62522843294651e+005,-2.32054881290415e+001,-1.35881984082755e+001

3.67583473599047e+005,-2.32081554530242e+001,-1.37751382093474e+001

3.72714747669902e+005,-2.32108918025980e+001,-1.39645869875294e+001

3.77917651657445e+005,-2.32136988558596e+001,-1.41565763973421e+001

3.83193185478053e+005,-2.32165783281899e+001,-1.43511384375901e+001

3.88542363006410e+005,-2.32195319730310e+001,-1.45483054538714e+001

3.93966212270369e+005,-2.32225615826814e+001,-1.47481101410662e+001

3.99465775648511e+005,-2.32256689891136e+001,-1.49505855458000e+001

4.05042110070485e+005,-2.32288560648110e+001,-1.51557650688789e+001

4.10696287220124e+005,-2.32321247236282e+001,-1.53636824676897e+001

4.16429393741414e+005,-2.32354769216723e+001,-1.55743718585610e+001

4.22242531447321e+005,-2.32389146582097e+001,-1.57878677190778e+001

4.28136817531551e+005,-2.32424399765947e+001,-1.60042048903455e+001

4.34113384783250e+005,-2.32460549652249e+001,-1.62234185791935e+001

4.40173381804713e+005,-2.32497617585209e+001,-1.64455443603137e+001

4.46317973232124e+005,-2.32535625379331e+001,-1.66706181783237e+001

4.52548339959385e+005,-2.32574595329753e+001,-1.68986763497466e+001

4.58865679365059e+005,-2.32614550222857e+001,-1.71297555649002e+001

4.65271205542494e+005,-2.32655513347161e+001,-1.73638928896811e+001

4.71766149533147e+005,-2.32697508504508e+001,-1.76011257672396e+001

4.78351759563174e+005,-2.32740560021537e+001,-1.78414920195276e+001

4.85029301283321e+005,-2.32784692761458e+001,-1.80850298487129e+001

4.91800058012158e+005,-2.32829932136129e+001,-1.83317778384451e+001

4.98665330982714e+005,-2.32876304118442e+001,-1.85817749549611e+001

5.05626439592555e+005,-2.32923835255006e+001,-1.88350605480149e+001

5.12684721657352e+005,-2.32972552679151e+001,-1.90916743516200e+001

5.19841533667984e+005,-2.33022484124234e+001,-1.93516564845873e+001

5.27098251051240e+005,-2.33073657937259e+001,-1.96150474508447e+001

5.34456268434150e+005,-2.33126103092801e+001,-1.98818881395213e+001

5.41916999912011e+005,-2.33179849207234e+001,-2.01522198247795e+001

