Freq.,VOut,OutRef

1.00000000000000e+004,-2.22828225788193e+001,-4.14370536215900e-001

1.01395947979003e+004,-2.22828250528590e+001,-4.20154856981044e-001

1.02811382665607e+004,-2.22828275964480e+001,-4.26019920612601e-001

1.04246576084112e+004,-2.22828302115412e+001,-4.31966854101726e-001

1.05701804056138e+004,-2.22828329001484e+001,-4.37996800165110e-001

1.07177346253629e+004,-2.22828356643363e+001,-4.44110917465232e-001

1.08673486252606e+004,-2.22828385062291e+001,-4.50310380833942e-001

1.10190511587661e+004,-2.22828414280111e+001,-4.56596381494023e-001

1.11728713807222e+004,-2.22828444319279e+001,-4.62970127292765e-001

1.13288388529580e+004,-2.22828475202881e+001,-4.69432842929660e-001

1.14869835499703e+004,-2.22828506954654e+001,-4.75985770192482e-001

1.16473358646846e+004,-2.22828539598999e+001,-4.82630168197193e-001

1.18099266142953e+004,-2.22828573161006e+001,-4.89367313628173e-001

1.19747870461893e+004,-2.22828607666468e+001,-4.96198500981720e-001

1.21419488439505e+004,-2.22828643141903e+001,-5.03125042817123e-001

1.23114441334492e+004,-2.22828679614575e+001,-5.10148270006926e-001

1.24833054890161e+004,-2.22828717112514e+001,-5.17269531991032e-001

1.26575659397028e+004,-2.22828755664535e+001,-5.24490197039385e-001

1.28342589756290e+004,-2.22828795300268e+001,-5.31811652508631e-001

1.30134185544193e+004,-2.22828836050171e+001,-5.39235305114173e-001

1.31950791077289e+004,-2.22828877945561e+001,-5.46762581194925e-001

1.33792755478611e+004,-2.22828921018632e+001,-5.54394926990104e-001

1.35660432744767e+004,-2.22828965302484e+001,-5.62133808915156e-001

1.37554181813974e+004,-2.22829010831149e+001,-5.69980713842758e-001

1.39474366635040e+004,-2.22829057639611e+001,-5.77937149388365e-001

1.41421356237309e+004,-2.22829105763841e+001,-5.86004644198914e-001

1.43395524801583e+004,-2.22829155240818e+001,-5.94184748245669e-001

1.45397251732031e+004,-2.22829206108561e+001,-6.02479033122029e-001

1.47426921729110e+004,-2.22829258406159e+001,-6.10889092343299e-001

1.49484924863494e+004,-2.22829312173795e+001,-6.19416541653926e-001

1.51571656651040e+004,-2.22829367452786e+001,-6.28063019335043e-001

1.53687518128801e+004,-2.22829424285604e+001,-6.36830186520664e-001

1.55832915932100e+004,-2.22829482715920e+001,-6.45719727513574e-001

1.58008262372675e+004,-2.22829542788627e+001,-6.54733350109644e-001

1.60213975517924e+004,-2.22829604549882e+001,-6.63872785924100e-001

1.62450479271247e+004,-2.22829668047139e+001,-6.73139790723232e-001

1.64718203453514e+004,-2.22829733329184e+001,-6.82536144761318e-001

1.67017583885674e+004,-2.22829800446172e+001,-6.92063653121104e-001

1.69349062472505e+004,-2.22829869449670e+001,-7.01724146058447e-001

1.71713087287550e+004,-2.22829940392691e+001,-7.11519479354649e-001

1.74110112659224e+004,-2.22830013329738e+001,-7.21451534669849e-001

1.76540599258131e+004,-2.22830088316845e+001,-7.31522219904886e-001

1.79005014185594e+004,-2.22830165411621e+001,-7.41733469564302e-001

1.81503831063432e+004,-2.22830244673290e+001,-7.52087245129461e-001

1.84037530124975e+004,-2.22830326162741e+001,-7.62585535431190e-001

1.86606598307361e+004,-2.22830409942574e+001,-7.73230357030906e-001

1.89211529345119e+004,-2.22830496077146e+001,-7.84023754607071e-001

1.91852823865052e+004,-2.22830584632622e+001,-7.94967801346724e-001

1.94530989482457e+004,-2.22830675677025e+001,-8.06064599339990e-001

1.97246540898671e+004,-2.22830769280288e+001,-8.17316279983942e-001

1.99999999999999e+004,-2.22830865514307e+001,-8.28725004389034e-001

2.02791895958005e+004,-2.22830964452998e+001,-8.40292963792581e-001

2.05622765331213e+004,-2.22831066172352e+001,-8.52022379977647e-001

2.08493152168224e+004,-2.22831170750495e+001,-8.63915505696937e-001

2.11403608112276e+004,-2.22831278267743e+001,-8.75974625104811e-001

2.14354692507258e+004,-2.22831388806671e+001,-8.88202054192167e-001

2.17346972505211e+004,-2.22831502452172e+001,-9.00600141228367e-001

2.20381023175322e+004,-2.22831619291518e+001,-9.13171267212214e-001

2.23457427614443e+004,-2.22831739414437e+001,-9.25917846323834e-001

2.26576777059159e+004,-2.22831862913170e+001,-9.38842326386916e-001

2.29739670999406e+004,-2.22831989882551e+001,-9.51947189336129e-001

2.32946717293690e+004,-2.22832120420075e+001,-9.65234951689819e-001

2.36198532285905e+004,-2.22832254625974e+001,-9.78708165030682e-001

2.39495740923785e+004,-2.22832392603291e+001,-9.92369416492932e-001

2.42838976879009e+004,-2.22832534457965e+001,-1.00622132925432e+000

2.46228882668982e+004,-2.22832680298904e+001,-1.02026656303854e+000

2.49666109780322e+004,-2.22832830238075e+001,-1.03450781461985e+000

2.53151318794055e+004,-2.22832984390585e+001,-1.04894781833867e+000

2.56685179512580e+004,-2.22833142874772e+001,-1.06358934662153e+000

2.60268371088386e+004,-2.22833305812294e+001,-1.07843521051062e+000

2.63901582154578e+004,-2.22833473328223e+001,-1.09348826019731e+000

2.67585510957221e+004,-2.22833645551140e+001,-1.10875138556676e+000

2.71320865489533e+004,-2.22833822613231e+001,-1.12422751674671e+000

2.75108363627948e+004,-2.22834004650393e+001,-1.13991962466487e+000

2.78948733270080e+004,-2.22834191802333e+001,-1.15583072161571e+000

2.82842712474618e+004,-2.22834384212678e+001,-1.17196386183183e+000

2.86791049603164e+004,-2.22834582029081e+001,-1.18832214206533e+000

2.90794503464061e+004,-2.22834785403338e+001,-1.20490870217685e+000

2.94853843458219e+004,-2.22834994491502e+001,-1.22172672573059e+000

2.98969849726987e+004,-2.22835209453999e+001,-1.23877944060190e+000

3.03143313302078e+004,-2.22835430455756e+001,-1.25607011958749e+000

3.07375036257601e+004,-2.22835657666323e+001,-1.27360208102848e+000

3.11665831864199e+004,-2.22835891260004e+001,-1.29137868943842e+000

3.16016524745350e+004,-2.22836131415987e+001,-1.30940335614422e+000

3.20427951035848e+004,-2.22836378318486e+001,-1.32767953993035e+000

3.24900958542493e+004,-2.22836632156875e+001,-1.34621074769649e+000

3.29436406907028e+004,-2.22836893125836e+001,-1.36500053512061e+000

3.34035167771346e+004,-2.22837161425507e+001,-1.38405250733390e+000

3.38698124945009e+004,-2.22837437261635e+001,-1.40337031960139e+000

3.43426174575100e+004,-2.22837720845729e+001,-1.42295767801678e+000

3.48220225318448e+004,-2.22838012395225e+001,-1.44281834019993e+000

3.53081198516260e+004,-2.22838312133651e+001,-1.46295611601077e+000

3.58010028371187e+004,-2.22838620290792e+001,-1.48337486826712e+000

3.63007662126863e+004,-2.22838937102874e+001,-1.50407851347554e+000

3.68075060249948e+004,-2.22839262812732e+001,-1.52507102257080e+000

3.73213196614721e+004,-2.22839597670006e+001,-1.54635642166478e+000

3.78423058690237e+004,-2.22839941931322e+001,-1.56793879280725e+000

3.83705647730104e+004,-2.22840295860489e+001,-1.58982227475436e+000

3.89061978964912e+004,-2.22840659728704e+001,-1.61201106374850e+000

3.94493081797342e+004,-2.22841033814750e+001,-1.63450941431030e+000

3.99999999999998e+004,-2.22841418405215e+001,-1.65732164003659e+000

4.05583791916010e+004,-2.22841813794703e+001,-1.68045211441558e+000

4.11245530662425e+004,-2.22842220286061e+001,-1.70390527164596e+000

4.16986304336447e+004,-2.22842638190607e+001,-1.72768560747204e+000

4.22807216224550e+004,-2.22843067828367e+001,-1.75179768002690e+000

4.28709385014515e+004,-2.22843509528314e+001,-1.77624611068882e+000

4.34693945010421e+004,-2.22843963628623e+001,-1.80103558494675e+000

4.40762046350642e+004,-2.22844430476919e+001,-1.82617085327940e+000

4.46914855228886e+004,-2.22844910430546e+001,-1.85165673204475e+000

4.53153554118317e+004,-2.22845403856835e+001,-1.87749810438105e+000

4.59479341998812e+004,-2.22845911133379e+001,-1.90369992112053e+000

4.65893434587380e+004,-2.22846432648323e+001,-1.93026720171361e+000

4.72397064571810e+004,-2.22846968800651e+001,-1.95720503516737e+000

4.78991481847569e+004,-2.22847520000492e+001,-1.98451858099398e+000

4.85677953758016e+004,-2.22848086669426e+001,-2.01221307017347e+000

4.92457765337964e+004,-2.22848669240802e+001,-2.04029380612667e+000

4.99332219560642e+004,-2.22849268160066e+001,-2.06876616570329e+000

5.06302637588109e+004,-2.22849883885093e+001,-2.09763560018176e+000

5.13370359025159e+004,-2.22850516886534e+001,-2.12690763628100e+000

5.20536742176771e+004,-2.22851167648169e+001,-2.15658787718595e+000

5.27803164309155e+004,-2.22851836667269e+001,-2.18668200358766e+000

5.35171021914442e+004,-2.22852524454970e+001,-2.21719577473450e+000

5.42641730979066e+004,-2.22853231536657e+001,-2.24813502949790e+000

5.50216727255895e+004,-2.22853958452359e+001,-2.27950568745102e+000

5.57897466540159e+004,-2.22854705757147e+001,-2.31131374996337e+000

5.65685424949235e+004,-2.22855474021558e+001,-2.34356530130558e+000

5.73582099206328e+004,-2.22856263832016e+001,-2.37626650977142e+000

5.81589006928121e+004,-2.22857075791274e+001,-2.40942362881231e+000

5.89707686916437e+004,-2.22857910518856e+001,-2.44304299818727e+000

5.97939699453972e+004,-2.22858768651533e+001,-2.47713104512508e+000

6.06286626604156e+004,-2.22859650843784e+001,-2.51169428550380e+000

6.14750072515201e+004,-2.22860557768291e+001,-2.54673932504337e+000

6.23331663728396e+004,-2.22861490116437e+001,-2.58227286051262e+000

6.32033049490698e+004,-2.22862448598822e+001,-2.61830168095325e+000

6.40855902071694e+004,-2.22863433945789e+001,-2.65483266891624e+000

6.49801917084985e+004,-2.22864446907965e+001,-2.69187280171536e+000

6.58872813814055e+004,-2.22865488256822e+001,-2.72942915269586e+000

6.68070335542691e+004,-2.22866558785242e+001,-2.76750889251727e+000

6.77396249890018e+004,-2.22867659308109e+001,-2.80611929045413e+000

6.86852349150199e+004,-2.22868790662907e+001,-2.84526771571022e+000

6.96440450636895e+004,-2.22869953710344e+001,-2.88496163874957e+000

7.06162397032520e+004,-2.22871149334980e+001,-2.92520863264401e+000

7.16020056742374e+004,-2.22872378445883e+001,-2.96601637443518e+000

7.26015324253724e+004,-2.22873641977296e+001,-3.00739264651525e+000

7.36150120499896e+004,-2.22874940889324e+001,-3.04934533802165e+000

7.46426393229441e+004,-2.22876276168639e+001,-3.09188244624906e+000

7.56846117380472e+004,-2.22877648829202e+001,-3.13501207807890e+000

7.67411295460207e+004,-2.22879059913008e+001,-3.17874245142360e+000

7.78123957929823e+004,-2.22880510490844e+001,-3.22308189668926e+000

7.88986163594682e+004,-2.22882001663073e+001,-3.26803885825484e+000

7.99999999999995e+004,-2.22883534560437e+001,-3.31362189596778e+000

8.11167583832018e+004,-2.22885110344877e+001,-3.35983968665702e+000

8.22491061324848e+004,-2.22886730210381e+001,-3.40670102566331e+000

8.33972608672892e+004,-2.22888395383849e+001,-3.45421482838695e+000

8.45614432449099e+004,-2.22890107125983e+001,-3.50239013185177e+000

8.57418770029029e+004,-2.22891866732195e+001,-3.55123609628863e+000

8.69387890020841e+004,-2.22893675533550e+001,-3.60076200673363e+000

8.81524092701283e+004,-2.22895534897718e+001,-3.65097727464712e+000

8.93829710457770e+004,-2.22897446229966e+001,-3.70189143954714e+000

9.06307108236633e+004,-2.22899410974161e+001,-3.75351417066269e+000

9.18958683997622e+004,-2.22901430613810e+001,-3.80585526860386e+000

9.31786869174758e+004,-2.22903506673120e+001,-3.85892466705076e+000

9.44794129143618e+004,-2.22905640718087e+001,-3.91273243445873e+000

9.57982963695136e+004,-2.22907834357614e+001,-3.96728877578255e+000

9.71355907516031e+004,-2.22910089244654e+001,-4.02260403421808e+000

9.84915530675926e+004,-2.22912407077389e+001,-4.07868869296210e+000

9.98664439121282e+004,-2.22914789600425e+001,-4.13555337699056e+000

1.01260527517622e+005,-2.22917238606031e+001,-4.19320885485387e+000

1.02674071805032e+005,-2.22919755935406e+001,-4.25166604048987e+000

1.04107348435354e+005,-2.22922343479968e+001,-4.31093599505704e+000

1.05560632861831e+005,-2.22925003182689e+001,-4.37102992878245e+000

1.07034204382888e+005,-2.22927737039451e+001,-4.43195920283105e+000

1.08528346195813e+005,-2.22930547100446e+001,-4.49373533118921e+000

1.10043345451179e+005,-2.22933435471600e+001,-4.55636998256964e+000

1.11579493308032e+005,-2.22936404316042e+001,-4.61987498233174e+000

1.13137084989847e+005,-2.22939455855599e+001,-4.68426231442055e+000

1.14716419841265e+005,-2.22942592372337e+001,-4.74954412332424e+000

1.16317801385624e+005,-2.22945816210134e+001,-4.81573271604700e+000

1.17941537383287e+005,-2.22949129776288e+001,-4.88284056410202e+000

1.19587939890794e+005,-2.22952535543173e+001,-4.95088030552054e+000

1.21257325320831e+005,-2.22956036049928e+001,-5.01986474687790e+000

1.22950014503040e+005,-2.22959633904182e+001,-5.08980686533851e+000

1.24666332745679e+005,-2.22963331783833e+001,-5.16071981071563e+000

1.26406609898139e+005,-2.22967132438859e+001,-5.23261690755033e+000

1.28171180414339e+005,-2.22971038693172e+001,-5.30551165720580e+000

1.29960383416997e+005,-2.22975053446520e+001,-5.37941773997930e+000

1.31774562762811e+005,-2.22979179676432e+001,-5.45434901722940e+000

1.33614067108538e+005,-2.22983420440204e+001,-5.53031953352079e+000

1.35479249978003e+005,-2.22987778876937e+001,-5.60734351878497e+000

1.37370469830040e+005,-2.22992258209619e+001,-5.68543539049582e+000

1.39288090127379e+005,-2.22996861747253e+001,-5.76460975586206e+000

1.41232479406504e+005,-2.23001592887036e+001,-5.84488141403475e+000

1.43204011348474e+005,-2.23006455116588e+001,-5.92626535833025e+000

1.45203064850745e+005,-2.23011452016226e+001,-6.00877677846718e+000

1.47230024099979e+005,-2.23016587261296e+001,-6.09243106281946e+000

1.49285278645888e+005,-2.23021864624551e+001,-6.17724380068283e+000

1.51369223476094e+005,-2.23027287978587e+001,-6.26323078455570e+000

1.53482259092041e+005,-2.23032861298326e+001,-6.35040801243409e+000

1.55624791585964e+005,-2.23038588663560e+001,-6.43879169011948e+000

1.57797232718936e+005,-2.23044474261547e+001,-6.52839823354078e+000

1.59999999999999e+005,-2.23050522389662e+001,-6.61924427108793e+000

1.62233516766403e+005,-2.23056737458107e+001,-6.71134664595900e+000

1.64498212264969e+005,-2.23063123992682e+001,-6.80472241851864e+000

1.66794521734578e+005,-2.23069686637602e+001,-6.89938886866929e+000

1.69122886489819e+005,-2.23076430158394e+001,-6.99536349823189e+000

1.71483754005805e+005,-2.23083359444834e+001,-7.09266403333998e+000

1.73877578004168e+005,-2.23090479513960e+001,-7.19130842684184e+000

1.76304818540256e+005,-2.23097795513138e+001,-7.29131486071508e+000

1.78765942091554e+005,-2.23105312723198e+001,-7.39270174848840e+000

1.81261421647326e+005,-2.23113036561624e+001,-7.49548773767524e+000

1.83791736799524e+005,-2.23120972585825e+001,-7.59969171221408e+000

1.86357373834951e+005,-2.23129126496452e+001,-7.70533279491832e+000

1.88958825828723e+005,-2.23137504140798e+001,-7.81243034993296e+000

1.91596592739027e+005,-2.23146111516256e+001,-7.92100398520012e+000

1.94271181503206e+005,-2.23154954773849e+001,-8.03107355492997e+000

1.96983106135185e+005,-2.23164040221824e+001,-8.14265916207911e+000

1.99732887824256e+005,-2.23173374329328e+001,-8.25578116083388e+000

2.02521055035243e+005,-2.23182963730140e+001,-8.37046015910034e+000

2.05348143610063e+005,-2.23192815226485e+001,-8.48671702099795e+000

2.08214696870707e+005,-2.23202935792917e+001,-8.60457286935783e+000

2.11121265723661e+005,-2.23213332580276e+001,-8.72404908822626e+000

2.14068408765776e+005,-2.23224012919720e+001,-8.84516732536913e+000

2.17056692391625e+005,-2.23234984326834e+001,-8.96794949478075e+000

2.20086690902357e+005,-2.23246254505809e+001,-9.09241777919529e+000

2.23158986616063e+005,-2.23257831353710e+001,-9.21859463259803e+000

2.26274169979693e+005,-2.23269722964813e+001,-9.34650278273992e+000

2.29432839682530e+005,-2.23281937635023e+001,-9.47616523365142e+000

2.32635602771247e+005,-2.23294483866378e+001,-9.60760526815650e+000

2.35883074766574e+005,-2.23307370371629e+001,-9.74084645038680e+000

2.39175879781588e+005,-2.23320606078907e+001,-9.87591262829426e+000

2.42514650641661e+005,-2.23334200136468e+001,-1.00128279361616e+001

2.45900029006080e+005,-2.23348161917534e+001,-1.01516167971115e+001

2.49332665491357e+005,-2.23362501025212e+001,-1.02923039256125e+001

2.52813219796278e+005,-2.23377227297502e+001,-1.04349143299813e+001

2.56342360828676e+005,-2.23392350812400e+001,-1.05794733148813e+001

2.59920766833993e+005,-2.23407881893084e+001,-1.07260064838159e+001

2.63549125525621e+005,-2.23423831113201e+001,-1.08745397416171e+001

2.67228134217075e+005,-2.23440209302241e+001,-1.10250992969279e+001

2.70958499956006e+005,-2.23457027551012e+001,-1.11777116646774e+001

2.74740939660078e+005,-2.23474297217210e+001,-1.13324036685491e+001

2.78576180254757e+005,-2.23492029931091e+001,-1.14892024434406e+001

2.82464958813007e+005,-2.23510237601241e+001,-1.16481354379142e+001

2.86408022696948e+005,-2.23528932420455e+001,-1.18092304166381e+001

2.90406129701488e+005,-2.23548126871715e+001,-1.19725154628163e+001

2.94460048199957e+005,-2.23567833734288e+001,-1.21380189806065e+001

2.98570557291775e+005,-2.23588066089918e+001,-1.23057696975264e+001

3.02738446952187e+005,-2.23608837329152e+001,-1.24757966668447e+001

3.06964518184081e+005,-2.23630161157764e+001,-1.26481292699578e+001

3.11249583171928e+005,-2.23652051603307e+001,-1.28227972187507e+001

3.15594465437872e+005,-2.23674523021790e+001,-1.29998305579391e+001

3.19999999999997e+005,-2.23697590104475e+001,-1.31792596673931e+001

3.24467033532806e+005,-2.23721267884804e+001,-1.33611152644400e+001

3.28996424529938e+005,-2.23745571745457e+001,-1.35454284061447e+001

3.33589043469155e+005,-2.23770517425554e+001,-1.37322304915654e+001

3.38245772979638e+005,-2.23796121027987e+001,-1.39215532639832e+001

3.42967508011610e+005,-2.23822399026899e+001,-1.41134288131031e+001

3.47755156008335e+005,-2.23849368275315e+001,-1.43078895772235e+001

3.52609637080511e+005,-2.23877046012917e+001,-1.45049683453723e+001

3.57531884183106e+005,-2.23905449873985e+001,-1.47046982594067e+001

3.62522843294651e+005,-2.23934597895495e+001,-1.49071128160719e+001

3.67583473599047e+005,-2.23964508525373e+001,-1.51122458690192e+001

3.72714747669902e+005,-2.23995200630941e+001,-1.53201316307748e+001

3.77917651657445e+005,-2.24026693507516e+001,-1.55308046746593e+001

3.83193185478053e+005,-2.24059006887200e+001,-1.57442999366518e+001

3.88542363006410e+005,-2.24092160947858e+001,-1.59606527171950e+001

3.93966212270369e+005,-2.24126176322275e+001,-1.61798986829343e+001

3.99465775648511e+005,-2.24161074107517e+001,-1.64020738683881e+001

4.05042110070485e+005,-2.24196875874489e+001,-1.66272146775426e+001

4.10696287220124e+005,-2.24233603677694e+001,-1.68553578853628e+001

4.16429393741414e+005,-2.24271280065206e+001,-1.70865406392172e+001

4.22242531447321e+005,-2.24309928088855e+001,-1.73208004602051e+001

4.28136817531551e+005,-2.24349571314626e+001,-1.75581752443819e+001

4.34113384783250e+005,-2.24390233833289e+001,-1.77987032638718e+001

4.40173381804713e+005,-2.24431940271244e+001,-1.80424231678618e+001

4.46317973232124e+005,-2.24474715801604e+001,-1.82893739834660e+001

4.52548339959385e+005,-2.24518586155508e+001,-1.85395951164516e+001

4.58865679365059e+005,-2.24563577633665e+001,-1.87931263518164e+001

4.65271205542494e+005,-2.24609717118140e+001,-1.90500078542065e+001

4.71766149533147e+005,-2.24657032084377e+001,-1.93102801681632e+001

4.78351759563174e+005,-2.24705550613461e+001,-1.95739842181879e+001

4.85029301283321e+005,-2.24755301404617e+001,-1.98411613086119e+001

4.91800058012158e+005,-2.24806313787950e+001,-2.01118531232591e+001

4.98665330982714e+005,-2.24858617737423e+001,-2.03861017248857e+001

5.05626439592555e+005,-2.24912243884063e+001,-2.06639495543870e+001

5.12684721657352e+005,-2.24967223529403e+001,-2.09454394297535e+001

5.19841533667984e+005,-2.25023588659143e+001,-2.12306145447622e+001

5.27098251051240e+005,-2.25081371957040e+001,-2.15195184673883e+001

5.34456268434150e+005,-2.25140606818993e+001,-2.18121951379210e+001

5.41916999912011e+005,-2.25201327367344e+001,-2.21086888667677e+001

