Freq.,VOut,OutRef

1.00000000000000e+004,-2.41836137722426e+001,-3.25545686535985e-001

1.01395947979003e+004,-2.41836155837589e+001,-3.30090073496440e-001

1.02811382665607e+004,-2.41836174461987e+001,-3.34697895124236e-001

1.04246576084112e+004,-2.41836193609933e+001,-3.39370036824209e-001

1.05701804056138e+004,-2.41836213296143e+001,-3.44107396354970e-001

1.07177346253629e+004,-2.41836233535746e+001,-3.48910884004254e-001

1.08673486252606e+004,-2.41836254344297e+001,-3.53781422759694e-001

1.10190511587661e+004,-2.41836275737787e+001,-3.58719948489718e-001

1.11728713807222e+004,-2.41836297732659e+001,-3.63727410119475e-001

1.13288388529580e+004,-2.41836320345814e+001,-3.68804769817237e-001

1.14869835499703e+004,-2.41836343594630e+001,-3.73953003175367e-001

1.16473358646846e+004,-2.41836367496973e+001,-3.79173099398719e-001

1.18099266142953e+004,-2.41836392071213e+001,-3.84466061493296e-001

1.19747870461893e+004,-2.41836417336232e+001,-3.89832906462674e-001

1.21419488439505e+004,-2.41836443311447e+001,-3.95274665497089e-001

1.23114441334492e+004,-2.41836470016818e+001,-4.00792384176055e-001

1.24833054890161e+004,-2.41836497472866e+001,-4.06387122665914e-001

1.26575659397028e+004,-2.41836525700689e+001,-4.12059955925281e-001

1.28342589756290e+004,-2.41836554721979e+001,-4.17811973909425e-001

1.30134185544193e+004,-2.41836584559034e+001,-4.23644281780783e-001

1.31950791077289e+004,-2.41836615234783e+001,-4.29558000119331e-001

1.33792755478611e+004,-2.41836646772795e+001,-4.35554265139626e-001

1.35660432744767e+004,-2.41836679197305e+001,-4.41634228905346e-001

1.37554181813974e+004,-2.41836712533224e+001,-4.47799059553696e-001

1.39474366635040e+004,-2.41836746806168e+001,-4.54049941516864e-001

1.41421356237309e+004,-2.41836782042470e+001,-4.60388075749429e-001

1.43395524801583e+004,-2.41836818269202e+001,-4.66814679959803e-001

1.45397251732031e+004,-2.41836855514199e+001,-4.73330988842050e-001

1.47426921729110e+004,-2.41836893806075e+001,-4.79938254314534e-001

1.49484924863494e+004,-2.41836933174252e+001,-4.86637745756023e-001

1.51571656651040e+004,-2.41836973648972e+001,-4.93430750253964e-001

1.53687518128801e+004,-2.41837015261332e+001,-5.00318572846813e-001

1.55832915932100e+004,-2.41837058043302e+001,-5.07302536775523e-001

1.58008262372675e+004,-2.41837102027747e+001,-5.14383983737907e-001

1.60213975517924e+004,-2.41837147248456e+001,-5.21564274144901e-001

1.62450479271247e+004,-2.41837193740169e+001,-5.28844787380196e-001

1.64718203453514e+004,-2.41837241538599e+001,-5.36226922066036e-001

1.67017583885674e+004,-2.41837290680466e+001,-5.43712096329221e-001

1.69349062472505e+004,-2.41837341203516e+001,-5.51301748074679e-001

1.71713087287550e+004,-2.41837393146557e+001,-5.58997335259220e-001

1.74110112659224e+004,-2.41837446549491e+001,-5.66800336169848e-001

1.76540599258131e+004,-2.41837501453333e+001,-5.74712249709671e-001

1.79005014185594e+004,-2.41837557900256e+001,-5.82734595681834e-001

1.81503831063432e+004,-2.41837615933613e+001,-5.90868915081447e-001

1.84037530124975e+004,-2.41837675597977e+001,-5.99116770390677e-001

1.86606598307361e+004,-2.41837736939172e+001,-6.07479745877098e-001

1.89211529345119e+004,-2.41837800004308e+001,-6.15959447896594e-001

1.91852823865052e+004,-2.41837864841816e+001,-6.24557505201680e-001

1.94530989482457e+004,-2.41837931501489e+001,-6.33275569251679e-001

1.97246540898671e+004,-2.41838000034518e+001,-6.42115314528830e-001

1.99999999999999e+004,-2.41838070493530e+001,-6.51078438859131e-001

2.02791895958005e+004,-2.41838142932629e+001,-6.60166663734580e-001

2.05622765331213e+004,-2.41838217407438e+001,-6.69381734646355e-001

2.08493152168224e+004,-2.41838293975141e+001,-6.78725421413678e-001

2.11403608112276e+004,-2.41838372694529e+001,-6.88199518525342e-001

2.14354692507258e+004,-2.41838453626039e+001,-6.97805845479788e-001

2.17346972505211e+004,-2.41838536831808e+001,-7.07546247135946e-001

2.20381023175322e+004,-2.41838622375714e+001,-7.17422594061437e-001

2.23457427614443e+004,-2.41838710323430e+001,-7.27436782892892e-001

2.26576777059159e+004,-2.41838800742469e+001,-7.37590736697090e-001

2.29739670999406e+004,-2.41838893702240e+001,-7.47886405337653e-001

2.32946717293690e+004,-2.41838989274099e+001,-7.58325765846095e-001

2.36198532285905e+004,-2.41839087531406e+001,-7.68910822800718e-001

2.39495740923785e+004,-2.41839188549574e+001,-7.79643608709221e-001

2.42838976879009e+004,-2.41839292406136e+001,-7.90526184393468e-001

2.46228882668982e+004,-2.41839399180798e+001,-8.01560639385749e-001

2.49666109780322e+004,-2.41839508955500e+001,-8.12749092324935e-001

2.53151318794055e+004,-2.41839621814486e+001,-8.24093691359651e-001

2.56685179512580e+004,-2.41839737844355e+001,-8.35596614560118e-001

2.60268371088386e+004,-2.41839857134139e+001,-8.47260070331170e-001

2.63901582154578e+004,-2.41839979775367e+001,-8.59086297832137e-001

2.67585510957221e+004,-2.41840105862131e+001,-8.71077567404776e-001

2.71320865489533e+004,-2.41840235491163e+001,-8.83236181005102e-001

2.75108363627948e+004,-2.41840368761908e+001,-8.95564472639074e-001

2.78948733270080e+004,-2.41840505776596e+001,-9.08064808810618e-001

2.82842712474618e+004,-2.41840646640324e+001,-9.20739588967137e-001

2.86791049603164e+004,-2.41840791461135e+001,-9.33591245959276e-001

2.90794503464061e+004,-2.41840940350099e+001,-9.46622246501263e-001

2.94853843458219e+004,-2.41841093421398e+001,-9.59835091639626e-001

2.98969849726987e+004,-2.41841250792416e+001,-9.73232317229781e-001

3.03143313302078e+004,-2.41841412583821e+001,-9.86816494415354e-001

3.07375036257601e+004,-2.41841578919666e+001,-1.00059023011754e+000

3.11665831864199e+004,-2.41841749927479e+001,-1.01455616752830e+000

3.16016524745350e+004,-2.41841925738355e+001,-1.02871698661465e+000

3.20427951035848e+004,-2.41842106487066e+001,-1.04307540462221e+000

3.24900958542493e+004,-2.41842292312154e+001,-1.05763417659513e+000

3.29436406907028e+004,-2.41842483356043e+001,-1.07239609589347e+000

3.34035167771346e+004,-2.41842679765143e+001,-1.08736399472516e+000

3.38698124945009e+004,-2.41842881689963e+001,-1.10254074468090e+000

3.43426174575100e+004,-2.41843089285224e+001,-1.11792925727846e+000

3.48220225318448e+004,-2.41843302709979e+001,-1.13353248451153e+000

3.53081198516260e+004,-2.41843522127728e+001,-1.14935341940925e+000

3.58010028371187e+004,-2.41843747706551e+001,-1.16539509660100e+000

3.63007662126863e+004,-2.41843979619225e+001,-1.18166059289029e+000

3.68075060249948e+004,-2.41844218043363e+001,-1.19815302783491e+000

3.73213196614721e+004,-2.41844463161546e+001,-1.21487556433522e+000

3.78423058690237e+004,-2.41844715161457e+001,-1.23183140923167e+000

3.83705647730104e+004,-2.41844974236030e+001,-1.24902381390794e+000

3.89061978964912e+004,-2.41845240583591e+001,-1.26645607490485e+000

3.94493081797342e+004,-2.41845514408011e+001,-1.28413153453967e+000

3.99999999999998e+004,-2.41845795918856e+001,-1.30205358153601e+000

4.05583791916010e+004,-2.41846085331549e+001,-1.32022565165982e+000

4.11245530662425e+004,-2.41846382867531e+001,-1.33865122836692e+000

4.16986304336447e+004,-2.41846688754429e+001,-1.35733384345553e+000

4.22807216224550e+004,-2.41847003226227e+001,-1.37627707773059e+000

4.28709385014515e+004,-2.41847326523440e+001,-1.39548456167389e+000

4.34693945010421e+004,-2.41847658893301e+001,-1.41495997612666e+000

4.40762046350642e+004,-2.41848000589938e+001,-1.43470705297743e+000

4.46914855228886e+004,-2.41848351874578e+001,-1.45472957586034e+000

4.53153554118317e+004,-2.41848713015731e+001,-1.47503138086487e+000

4.59479341998812e+004,-2.41849084289396e+001,-1.49561635725163e+000

4.65893434587380e+004,-2.41849465979272e+001,-1.51648844817728e+000

4.72397064571810e+004,-2.41849858376967e+001,-1.53765165143344e+000

4.78991481847569e+004,-2.41850261782216e+001,-1.55911002019023e+000

4.85677953758016e+004,-2.41850676503108e+001,-1.58086766375142e+000

4.92457765337964e+004,-2.41851102856318e+001,-1.60292874832008e+000

4.99332219560642e+004,-2.41851541167337e+001,-1.62529749777316e+000

5.06302637588109e+004,-2.41851991770724e+001,-1.64797819444651e+000

5.13370359025159e+004,-2.41852455010351e+001,-1.67097517992991e+000

5.20536742176771e+004,-2.41852931239658e+001,-1.69429285587152e+000

5.27803164309155e+004,-2.41853420821925e+001,-1.71793568479456e+000

5.35171021914442e+004,-2.41853924130530e+001,-1.74190819092356e+000

5.42641730979066e+004,-2.41854441549241e+001,-1.76621496101887e+000

5.50216727255895e+004,-2.41854973472490e+001,-1.79086064522687e+000

5.57897466540159e+004,-2.41855520305670e+001,-1.81584995793556e+000

5.65685424949235e+004,-2.41856082465441e+001,-1.84118767864431e+000

5.73582099206328e+004,-2.41856660380031e+001,-1.86687865284466e+000

5.81589006928121e+004,-2.41857254489560e+001,-1.89292779290967e+000

5.89707686916437e+004,-2.41857865246360e+001,-1.91934007899724e+000

5.97939699453972e+004,-2.41858493115315e+001,-1.94612055996340e+000

6.06286626604156e+004,-2.41859138574201e+001,-1.97327435428690e+000

6.14750072515201e+004,-2.41859802114040e+001,-2.00080665100593e+000

6.23331663728396e+004,-2.41860484239460e+001,-2.02872271066653e+000

6.32033049490698e+004,-2.41861185469071e+001,-2.05702786628139e+000

6.40855902071694e+004,-2.41861906335841e+001,-2.08572752430299e+000

6.49801917084985e+004,-2.41862647387489e+001,-2.11482716560582e+000

6.58872813814055e+004,-2.41863409186892e+001,-2.14433234648250e+000

6.68070335542691e+004,-2.41864192312489e+001,-2.17424869965206e+000

6.77396249890018e+004,-2.41864997358708e+001,-2.20458193527962e+000

6.86852349150199e+004,-2.41865824936405e+001,-2.23533784200855e+000

6.96440450636895e+004,-2.41866675673300e+001,-2.26652228800609e+000

7.06162397032520e+004,-2.41867550214442e+001,-2.29814122201977e+000

7.16020056742374e+004,-2.41868449222677e+001,-2.33020067444859e+000

7.26015324253724e+004,-2.41869373379126e+001,-2.36270675842495e+000

7.36150120499896e+004,-2.41870323383683e+001,-2.39566567091077e+000

7.46426393229441e+004,-2.41871299955517e+001,-2.42908369380605e+000

7.56846117380472e+004,-2.41872303833599e+001,-2.46296719507072e+000

7.67411295460207e+004,-2.41873335777229e+001,-2.49732262985881e+000

7.78123957929823e+004,-2.41874396566584e+001,-2.53215654166635e+000

7.88986163594682e+004,-2.41875487003283e+001,-2.56747556349408e+000

7.99999999999995e+004,-2.41876607910957e+001,-2.60328641901970e+000

8.11167583832018e+004,-2.41877760135843e+001,-2.63959592378806e+000

8.22491061324848e+004,-2.41878944547387e+001,-2.67641098641158e+000

8.33972608672892e+004,-2.41880162038866e+001,-2.71373860978539e+000

8.45614432449099e+004,-2.41881413528023e+001,-2.75158589231704e+000

8.57418770029029e+004,-2.41882699957720e+001,-2.78996002916827e+000

8.69387890020841e+004,-2.41884022296606e+001,-2.82886831351149e+000

8.81524092701283e+004,-2.41885381539802e+001,-2.86831813780122e+000

8.93829710457770e+004,-2.41886778709606e+001,-2.90831699505663e+000

9.06307108236633e+004,-2.41888214856209e+001,-2.94887248016102e+000

9.18958683997622e+004,-2.41889691058438e+001,-2.98999229117385e+000

9.31786869174758e+004,-2.41891208424509e+001,-3.03168423065686e+000

9.44794129143618e+004,-2.41892768092800e+001,-3.07395620701495e+000

9.57982963695136e+004,-2.41894371232652e+001,-3.11681623585099e+000

9.71355907516031e+004,-2.41896019045173e+001,-3.16027244133455e+000

9.84915530675926e+004,-2.41897712764081e+001,-3.20433305758583e+000

9.98664439121282e+004,-2.41899453656548e+001,-3.24900643007212e+000

1.01260527517622e+005,-2.41901243024083e+001,-3.29430101702116e+000

1.02674071805032e+005,-2.41903082203419e+001,-3.34022539084646e+000

1.04107348435354e+005,-2.41904972567438e+001,-3.38678823958838e+000

1.05560632861831e+005,-2.41906915526102e+001,-3.43399836836916e+000

1.07034204382888e+005,-2.41908912527418e+001,-3.48186470086246e+000

1.08528346195813e+005,-2.41910965058423e+001,-3.53039628077729e+000

1.10043345451179e+005,-2.41913074646185e+001,-3.57960227335662e+000

1.11579493308032e+005,-2.41915242858840e+001,-3.62949196688976e+000

1.13137084989847e+005,-2.41917471306643e+001,-3.68007477423969e+000

1.14716419841265e+005,-2.41919761643049e+001,-3.73136023438470e+000

1.16317801385624e+005,-2.41922115565813e+001,-3.78335801397455e+000

1.17941537383287e+005,-2.41924534818123e+001,-3.83607790890033e+000

1.19587939890794e+005,-2.41927021189755e+001,-3.88952984587964e+000

1.21257325320831e+005,-2.41929576518252e+001,-3.94372388405537e+000

1.22950014503040e+005,-2.41932202690133e+001,-3.99867021660909e+000

1.24666332745679e+005,-2.41934901642128e+001,-4.05437917238812e+000

1.26406609898139e+005,-2.41937675362441e+001,-4.11086121754766e+000

1.28171180414339e+005,-2.41940525892040e+001,-4.16812695720643e+000

1.29960383416997e+005,-2.41943455325977e+001,-4.22618713711641e+000

1.31774562762811e+005,-2.41946465814733e+001,-4.28505264534723e+000

1.33614067108538e+005,-2.41949559565600e+001,-4.34473451398355e+000

1.35479249978003e+005,-2.41952738844083e+001,-4.40524392083699e+000

1.37370469830040e+005,-2.41956005975339e+001,-4.46659219117197e+000

1.39288090127379e+005,-2.41959363345647e+001,-4.52879079944475e+000

1.41232479406504e+005,-2.41962813403900e+001,-4.59185137105709e+000

1.43204011348474e+005,-2.41966358663144e+001,-4.65578568412195e+000

1.45203064850745e+005,-2.41970001702131e+001,-4.72060567124480e+000

1.47230024099979e+005,-2.41973745166921e+001,-4.78632342131659e+000

1.49285278645888e+005,-2.41977591772502e+001,-4.85295118132070e+000

1.51369223476094e+005,-2.41981544304454e+001,-4.92050135815422e+000

1.53482259092041e+005,-2.41985605620642e+001,-4.98898652046005e+000

1.55624791585964e+005,-2.41989778652940e+001,-5.05841940047466e+000

1.57797232718936e+005,-2.41994066408996e+001,-5.12881289588783e+000

1.59999999999999e+005,-2.41998471974026e+001,-5.20018007171411e+000

1.62233516766403e+005,-2.42002998512646e+001,-5.27253416217951e+000

1.64498212264969e+005,-2.42007649270736e+001,-5.34588857261963e+000

1.66794521734578e+005,-2.42012427577344e+001,-5.42025688139045e+000

1.69122886489819e+005,-2.42017336846626e+001,-5.49565284179216e+000

1.71483754005805e+005,-2.42022380579813e+001,-5.57209038400605e+000

1.73877578004168e+005,-2.42027562367232e+001,-5.64958361704247e+000

1.76304818540256e+005,-2.42032885890347e+001,-5.72814683070340e+000

1.78765942091554e+005,-2.42038354923847e+001,-5.80779449755552e+000

1.81261421647326e+005,-2.42043973337770e+001,-5.88854127491714e+000

1.83791736799524e+005,-2.42049745099665e+001,-5.97040200685704e+000

1.86357373834951e+005,-2.42055674276790e+001,-6.05339172620550e+000

1.88958825828723e+005,-2.42061765038353e+001,-6.13752565657831e+000

1.91596592739027e+005,-2.42068021657788e+001,-6.22281921441297e+000

1.94271181503206e+005,-2.42074448515075e+001,-6.30928801101754e+000

1.96983106135185e+005,-2.42081050099095e+001,-6.39694785463190e+000

1.99732887824256e+005,-2.42087831010026e+001,-6.48581475250188e+000

2.02521055035243e+005,-2.42094795961787e+001,-6.57590491296601e+000

2.05348143610063e+005,-2.42101949784509e+001,-6.66723474755531e+000

2.08214696870707e+005,-2.42109297427060e+001,-6.75982087310626e+000

2.11121265723661e+005,-2.42116843959604e+001,-6.85368011388647e+000

2.14068408765776e+005,-2.42124594576207e+001,-6.94882950373403e+000

2.17056692391625e+005,-2.42132554597481e+001,-7.04528628821075e+000

2.20086690902357e+005,-2.42140729473275e+001,-7.14306792676891e+000

2.23158986616063e+005,-2.42149124785407e+001,-7.24219209493263e+000

2.26274169979693e+005,-2.42157746250441e+001,-7.34267668649266e+000

2.29432839682530e+005,-2.42166599722508e+001,-7.44453981571743e+000

2.32635602771247e+005,-2.42175691196174e+001,-7.54779981957831e+000

2.35883074766574e+005,-2.42185026809351e+001,-7.65247525999030e+000

2.39175879781588e+005,-2.42194612846259e+001,-7.75858492606976e+000

2.42514650641661e+005,-2.42204455740430e+001,-7.86614783640773e+000

2.45900029006080e+005,-2.42214562077768e+001,-7.97518324136050e+000

2.49332665491357e+005,-2.42224938599648e+001,-8.08571062535768e+000

2.52813219796278e+005,-2.42235592206079e+001,-8.19774970922861e+000

2.56342360828676e+005,-2.42246529958904e+001,-8.31132045254698e+000

2.59920766833993e+005,-2.42257759085063e+001,-8.42644305599588e+000

2.63549125525621e+005,-2.42269286979911e+001,-8.54313796375063e+000

2.67228134217075e+005,-2.42281121210581e+001,-8.66142586588557e+000

2.70958499956006e+005,-2.42293269519419e+001,-8.78132770079871e+000

2.74740939660078e+005,-2.42305739827464e+001,-8.90286465766112e+000

2.78576180254757e+005,-2.42318540238003e+001,-9.02605817888817e+000

2.82464958813007e+005,-2.42331679040175e+001,-9.15092996263425e+000

2.86408022696948e+005,-2.42345164712654e+001,-9.27750196531204e+000

2.90406129701488e+005,-2.42359005927391e+001,-9.40579640413765e+000

2.94460048199957e+005,-2.42373211553430e+001,-9.53583575970031e+000

2.98570557291775e+005,-2.42387790660794e+001,-9.66764277856025e+000

3.02738446952187e+005,-2.42402752524456e+001,-9.80124047587285e+000

3.06964518184081e+005,-2.42418106628380e+001,-9.93665213804188e+000

3.11249583171928e+005,-2.42433862669649e+001,-1.00739013254012e+001

3.15594465437872e+005,-2.42450030562685e+001,-1.02130118749255e+001

3.19999999999997e+005,-2.42466620443552e+001,-1.03540079029723e+001

3.24467033532806e+005,-2.42483642674359e+001,-1.04969138080533e+001

3.28996424529938e+005,-2.42501107847764e+001,-1.06417542736377e+001

3.33589043469155e+005,-2.42519026791581e+001,-1.07885542709869e+001

3.38245772979638e+005,-2.42537410573495e+001,-1.09373390620195e+001

3.42967508011610e+005,-2.42556270505900e+001,-1.10881342022101e+001

3.47755156008335e+005,-2.42575618150847e+001,-1.12409655435184e+001

3.52609637080511e+005,-2.42595465325130e+001,-1.13958592373503e+001

3.57531884183106e+005,-2.42615824105501e+001,-1.15528417375497e+001

3.62522843294651e+005,-2.42636706834023e+001,-1.17119398034222e+001

3.67583473599047e+005,-2.42658126123572e+001,-1.18731805027869e+001

3.72714747669902e+005,-2.42680094863498e+001,-1.20365912150581e+001

3.77917651657445e+005,-2.42702626225442e+001,-1.22021996343548e+001

3.83193185478053e+005,-2.42725733669322e+001,-1.23700337726352e+001

3.88542363006410e+005,-2.42749430949504e+001,-1.25401219628559e+001

3.93966212270369e+005,-2.42773732121151e+001,-1.27124928621539e+001

3.99465775648511e+005,-2.42798651546772e+001,-1.28871754550459e+001

4.05042110070485e+005,-2.42824203902974e+001,-1.30641990566466e+001

4.10696287220124e+005,-2.42850404187423e+001,-1.32435933158984e+001

4.16429393741414e+005,-2.42877267726031e+001,-1.34253882188117e+001

4.22242531447321e+005,-2.42904810180367e+001,-1.36096140917099e+001

4.28136817531551e+005,-2.42933047555320e+001,-1.37963016044755e+001

4.34113384783250e+005,-2.42961996207000e+001,-1.39854817737913e+001

4.40173381804713e+005,-2.42991672850903e+001,-1.41771859663725e+001

4.46317973232124e+005,-2.43022094570345e+001,-1.43714459021812e+001

4.52548339959385e+005,-2.43053278825173e+001,-1.45682936576194e+001

4.58865679365059e+005,-2.43085243460762e+001,-1.47677616686905e+001

4.65271205542494e+005,-2.43118006717312e+001,-1.49698827341232e+001

4.71766149533147e+005,-2.43151587239448e+001,-1.51746900184496e+001

4.78351759563174e+005,-2.43186004086131e+001,-1.53822170550258e+001

4.85029301283321e+005,-2.43221276740893e+001,-1.55924977489894e+001

4.91800058012158e+005,-2.43257425122406e+001,-1.58055663801388e+001

4.98665330982714e+005,-2.43294469595382e+001,-1.60214576057280e+001

5.05626439592555e+005,-2.43332430981818e+001,-1.62402064631620e+001

5.12684721657352e+005,-2.43371330572594e+001,-1.64618483725817e+001

5.19841533667984e+005,-2.43411190139423e+001,-1.66864191393262e+001

5.27098251051240e+005,-2.43452031947161e+001,-1.69139549562571e+001

5.34456268434150e+005,-2.43493878766484e+001,-1.71444924059333e+001

5.41916999912011e+005,-2.43536753886923e+001,-1.73780684626187e+001

