Freq.,VOut,OutRef

1.00000000000000e+004,-1.16100738775020e+001,-9.18249625682440e-002

1.01395947979003e+004,-1.16100741470216e+001,-9.31067669860988e-002

1.02811382665607e+004,-1.16100744241159e+001,-9.44064636938853e-002

1.04246576084112e+004,-1.16100747089974e+001,-9.57243024182677e-002

1.05701804056138e+004,-1.16100750018852e+001,-9.70605363629968e-002

1.07177346253629e+004,-1.16100753030037e+001,-9.84154222718919e-002

1.08673486252606e+004,-1.16100756125848e+001,-9.97892204632614e-002

1.10190511587661e+004,-1.16100759308656e+001,-1.01182194894573e-001

1.11728713807222e+004,-1.16100762580908e+001,-1.02594613200615e-001

1.13288388529580e+004,-1.16100765945115e+001,-1.04026746751876e-001

1.14869835499703e+004,-1.16100769403863e+001,-1.05478870703473e-001

1.16473358646846e+004,-1.16100772959804e+001,-1.06951264051279e-001

1.18099266142953e+004,-1.16100776615667e+001,-1.08444209682119e-001

1.19747870461893e+004,-1.16100780374265e+001,-1.09957994425751e-001

1.21419488439505e+004,-1.16100784238477e+001,-1.11492909119742e-001

1.23114441334492e+004,-1.16100788211272e+001,-1.13049248654097e-001

1.24833054890161e+004,-1.16100792295697e+001,-1.14627312033213e-001

1.26575659397028e+004,-1.16100796494891e+001,-1.16227402431452e-001

1.28342589756290e+004,-1.16100800812074e+001,-1.17849827254068e-001

1.30134185544193e+004,-1.16100805250561e+001,-1.19494898192536e-001

1.31950791077289e+004,-1.16100809813757e+001,-1.21162931285709e-001

1.33792755478611e+004,-1.16100814505166e+001,-1.22854246980509e-001

1.35660432744767e+004,-1.16100819328386e+001,-1.24569170195030e-001

1.37554181813974e+004,-1.16100824287120e+001,-1.26308030375324e-001

1.39474366635040e+004,-1.16100829385171e+001,-1.28071161566221e-001

1.41421356237309e+004,-1.16100834626452e+001,-1.29858902467808e-001

1.43395524801583e+004,-1.16100840014983e+001,-1.31671596505642e-001

1.45397251732031e+004,-1.16100845554897e+001,-1.33509591895287e-001

1.47426921729110e+004,-1.16100851250448e+001,-1.35373241703293e-001

1.49484924863494e+004,-1.16100857106001e+001,-1.37262903925909e-001

1.51571656651040e+004,-1.16100863126048e+001,-1.39178941547529e-001

1.53687518128801e+004,-1.16100869315210e+001,-1.41121722613837e-001

1.55832915932100e+004,-1.16100875678227e+001,-1.43091620305918e-001

1.58008262372675e+004,-1.16100882219986e+001,-1.45089013002370e-001

1.60213975517924e+004,-1.16100888945498e+001,-1.47114284363439e-001

1.62450479271247e+004,-1.16100895859924e+001,-1.49167823392424e-001

1.64718203453514e+004,-1.16100902968563e+001,-1.51250024521023e-001

1.67017583885674e+004,-1.16100910276864e+001,-1.53361287676843e-001

1.69349062472505e+004,-1.16100917790433e+001,-1.55502018362734e-001

1.71713087287550e+004,-1.16100925515028e+001,-1.57672627734214e-001

1.74110112659224e+004,-1.16100933456569e+001,-1.59873532680151e-001

1.76540599258131e+004,-1.16100941621142e+001,-1.62105155898825e-001

1.79005014185594e+004,-1.16100950015008e+001,-1.64367925977644e-001

1.81503831063432e+004,-1.16100958644594e+001,-1.66662277482275e-001

1.84037530124975e+004,-1.16100967516515e+001,-1.68988651032193e-001

1.86606598307361e+004,-1.16100976637568e+001,-1.71347493386593e-001

1.89211529345119e+004,-1.16100986014739e+001,-1.73739257534325e-001

1.91852823865052e+004,-1.16100995655214e+001,-1.76164402770693e-001

1.94530989482457e+004,-1.16101005566372e+001,-1.78623394798266e-001

1.97246540898671e+004,-1.16101015755809e+001,-1.81116705801751e-001

1.99999999999999e+004,-1.16101026231323e+001,-1.83644814549672e-001

2.02791895958005e+004,-1.16101037000938e+001,-1.86208206478017e-001

2.05622765331213e+004,-1.16101048072896e+001,-1.88807373787310e-001

2.08493152168224e+004,-1.16101059455677e+001,-1.91442815532082e-001

2.11403608112276e+004,-1.16101071157988e+001,-1.94115037723842e-001

2.14354692507258e+004,-1.16101083188790e+001,-1.96824553415912e-001

2.17346972505211e+004,-1.16101095557286e+001,-1.99571882811731e-001

2.20381023175322e+004,-1.16101108272940e+001,-2.02357553358968e-001

2.23457427614443e+004,-1.16101121345479e+001,-2.05182099850710e-001

2.26576777059159e+004,-1.16101134784904e+001,-2.08046064525632e-001

2.29739670999406e+004,-1.16101148601492e+001,-2.10949997175157e-001

2.32946717293690e+004,-1.16101162805809e+001,-2.13894455244279e-001

2.36198532285905e+004,-1.16101177408716e+001,-2.16880003939140e-001

2.39495740923785e+004,-1.16101192421374e+001,-2.19907216335237e-001

2.42838976879009e+004,-1.16101207855260e+001,-2.22976673484751e-001

2.46228882668982e+004,-1.16101223722166e+001,-2.26088964528804e-001

2.49666109780322e+004,-1.16101240034218e+001,-2.29244686806293e-001

2.53151318794055e+004,-1.16101256803876e+001,-2.32444445971883e-001

2.56685179512580e+004,-1.16101274043951e+001,-2.35688856104871e-001

2.60268371088386e+004,-1.16101291767605e+001,-2.38978539833888e-001

2.63901582154578e+004,-1.16101309988374e+001,-2.42314128446548e-001

2.67585510957221e+004,-1.16101328720166e+001,-2.45696262015378e-001

2.71320865489533e+004,-1.16101347977278e+001,-2.49125589515046e-001

2.75108363627948e+004,-1.16101367774405e+001,-2.52602768948970e-001

2.78948733270080e+004,-1.16101388126648e+001,-2.56128467471034e-001

2.82842712474618e+004,-1.16101409049536e+001,-2.59703361511745e-001

2.86791049603164e+004,-1.16101430559019e+001,-2.63328136910929e-001

2.90794503464061e+004,-1.16101452671497e+001,-2.67003489041267e-001

2.94853843458219e+004,-1.16101475403826e+001,-2.70730122943754e-001

2.98969849726987e+004,-1.16101498773331e+001,-2.74508753457485e-001

3.03143313302078e+004,-1.16101522797814e+001,-2.78340105360853e-001

3.07375036257601e+004,-1.16101547495572e+001,-2.82224913502632e-001

3.11665831864199e+004,-1.16101572885414e+001,-2.86163922942060e-001

3.16016524745350e+004,-1.16101598986666e+001,-2.90157889090876e-001

3.20427951035848e+004,-1.16101625819196e+001,-2.94207577853795e-001

3.24900958542493e+004,-1.16101653403415e+001,-2.98313765776142e-001

3.29436406907028e+004,-1.16101681760308e+001,-3.02477240184890e-001

3.34035167771346e+004,-1.16101710911433e+001,-3.06698799342927e-001

3.38698124945009e+004,-1.16101740878949e+001,-3.10979252594891e-001

3.43426174575100e+004,-1.16101771685632e+001,-3.15319420519295e-001

3.48220225318448e+004,-1.16101803354883e+001,-3.19720135085605e-001

3.53081198516260e+004,-1.16101835910750e+001,-3.24182239809839e-001

3.58010028371187e+004,-1.16101869377948e+001,-3.28706589910180e-001

3.63007662126863e+004,-1.16101903781877e+001,-3.33294052468774e-001

3.68075060249948e+004,-1.16101939148630e+001,-3.37945506598276e-001

3.73213196614721e+004,-1.16101975505030e+001,-3.42661843599406e-001

3.78423058690237e+004,-1.16102012878635e+001,-3.47443967132189e-001

3.83705647730104e+004,-1.16102051297762e+001,-3.52292793384674e-001

3.89061978964912e+004,-1.16102090791511e+001,-3.57209251242672e-001

3.94493081797342e+004,-1.16102131389780e+001,-3.62194282465527e-001

3.99999999999998e+004,-1.16102173123294e+001,-3.67248841858505e-001

4.05583791916010e+004,-1.16102216023620e+001,-3.72373897454936e-001

4.11245530662425e+004,-1.16102260123194e+001,-3.77570430692285e-001

4.16986304336447e+004,-1.16102305455343e+001,-3.82839436598338e-001

4.22807216224550e+004,-1.16102352054308e+001,-3.88181923973870e-001

4.28709385014515e+004,-1.16102399955269e+001,-3.93598915582203e-001

4.34693945010421e+004,-1.16102449194375e+001,-3.99091448335179e-001

4.40762046350642e+004,-1.16102499808759e+001,-4.04660573491792e-001

4.46914855228886e+004,-1.16102551836574e+001,-4.10307356846395e-001

4.53153554118317e+004,-1.16102605317017e+001,-4.16032878929821e-001

4.59479341998812e+004,-1.16102660290354e+001,-4.21838235208741e-001

4.65893434587380e+004,-1.16102716797953e+001,-4.27724536286243e-001

4.72397064571810e+004,-1.16102774882309e+001,-4.33692908108549e-001

4.78991481847569e+004,-1.16102834587078e+001,-4.39744492171330e-001

4.85677953758016e+004,-1.16102895957103e+001,-4.45880445731143e-001

4.92457765337964e+004,-1.16102959038447e+001,-4.52101942016669e-001

4.99332219560642e+004,-1.16103023878428e+001,-4.58410170445063e-001

5.06302637588109e+004,-1.16103090525649e+001,-4.64806336838709e-001

5.13370359025159e+004,-1.16103159030028e+001,-4.71291663649670e-001

5.20536742176771e+004,-1.16103229442841e+001,-4.77867390178423e-001

5.27803164309155e+004,-1.16103301816752e+001,-4.84534772803324e-001

5.35171021914442e+004,-1.16103376205845e+001,-4.91295085210040e-001

5.42641730979066e+004,-1.16103452665673e+001,-4.98149618620634e-001

5.50216727255895e+004,-1.16103531253282e+001,-5.05099682033091e-001

5.57897466540159e+004,-1.16103612027258e+001,-5.12146602454174e-001

5.65685424949235e+004,-1.16103695047766e+001,-5.19291725142506e-001

5.73582099206328e+004,-1.16103780376587e+001,-5.26536413852829e-001

5.81589006928121e+004,-1.16103868077163e+001,-5.33882051080869e-001

5.89707686916437e+004,-1.16103958214636e+001,-5.41330038313671e-001

5.97939699453972e+004,-1.16104050855894e+001,-5.48881796282120e-001

6.06286626604156e+004,-1.16104146069613e+001,-5.56538765216055e-001

6.14750072515201e+004,-1.16104243926304e+001,-5.64302405102268e-001

6.23331663728396e+004,-1.16104344498361e+001,-5.72174195947183e-001

6.32033049490698e+004,-1.16104447860100e+001,-5.80155638042707e-001

6.40855902071694e+004,-1.16104554087819e+001,-5.88248252230168e-001

6.49801917084985e+004,-1.16104663259835e+001,-5.96453580175374e-001

6.58872813814055e+004,-1.16104775456545e+001,-6.04773184639114e-001

6.68070335542691e+004,-1.16104890760472e+001,-6.13208649758123e-001

6.77396249890018e+004,-1.16105009256315e+001,-6.21761581321990e-001

6.86852349150199e+004,-1.16105131031009e+001,-6.30433607059521e-001

6.96440450636895e+004,-1.16105256173772e+001,-6.39226376923999e-001

7.06162397032520e+004,-1.16105384776168e+001,-6.48141563383528e-001

7.16020056742374e+004,-1.16105516932160e+001,-6.57180861714803e-001

7.26015324253724e+004,-1.16105652738165e+001,-6.66345990299977e-001

7.36150120499896e+004,-1.16105792293116e+001,-6.75638690926623e-001

7.46426393229441e+004,-1.16105935698524e+001,-6.85060729090041e-001

7.56846117380472e+004,-1.16106083058534e+001,-6.94613894300650e-001

7.67411295460207e+004,-1.16106234479991e+001,-7.04300000394259e-001

7.78123957929823e+004,-1.16106390072503e+001,-7.14120885844255e-001

7.88986163594682e+004,-1.16106549948500e+001,-7.24078414080187e-001

7.99999999999995e+004,-1.16106714223307e+001,-7.34174473805847e-001

8.11167583832018e+004,-1.16106883015208e+001,-7.44410979323103e-001

8.22491061324848e+004,-1.16107056445507e+001,-7.54789870860613e-001

8.33972608672892e+004,-1.16107234638608e+001,-7.65313114901191e-001

8.45614432449099e+004,-1.16107417722075e+001,-7.75982704518125e-001

8.57418770029029e+004,-1.16107605826707e+001,-7.86800659711071e-001

8.69387890020841e+004,-1.16107799086611e+001,-7.97769027745268e-001

8.81524092701283e+004,-1.16107997639268e+001,-8.08889883499512e-001

8.93829710457770e+004,-1.16108201625616e+001,-8.20165329808850e-001

9.06307108236633e+004,-1.16108411190115e+001,-8.31597497819608e-001

9.18958683997622e+004,-1.16108626480830e+001,-8.43188547340213e-001

9.31786869174758e+004,-1.16108847649504e+001,-8.54940667201263e-001

9.44794129143618e+004,-1.16109074851632e+001,-8.66856075617791e-001

9.57982963695136e+004,-1.16109308246546e+001,-8.78937020549981e-001

9.71355907516031e+004,-1.16109547997487e+001,-8.91185780075545e-001

9.84915530675926e+004,-1.16109794271687e+001,-9.03604662758973e-001

9.98664439121282e+004,-1.16110047240448e+001,-9.16196008027966e-001

1.01260527517622e+005,-1.16110307079225e+001,-9.28962186550665e-001

1.02674071805032e+005,-1.16110573967702e+001,-9.41905600618316e-001

1.04107348435354e+005,-1.16110848089877e+001,-9.55028684531991e-001

1.05560632861831e+005,-1.16111129634142e+001,-9.68333904989236e-001

1.07034204382888e+005,-1.16111418793364e+001,-9.81823761477977e-001

1.08528346195813e+005,-1.16111715764971e+001,-9.95500786671374e-001

1.10043345451179e+005,-1.16112020751026e+001,-1.00936754682799e+000

1.11579493308032e+005,-1.16112333958319e+001,-1.02342664219355e+000

1.13137084989847e+005,-1.16112655598439e+001,-1.03768070740697e+000

1.14716419841265e+005,-1.16112985887862e+001,-1.05213241191079e+000

1.16317801385624e+005,-1.16113325048027e+001,-1.06678446036298e+000

1.17941537383287e+005,-1.16113673305421e+001,-1.08163959305319e+000

1.19587939890794e+005,-1.16114030891655e+001,-1.09670058632277e+000

1.21257325320831e+005,-1.16114398043542e+001,-1.11197025298790e+000

1.22950014503040e+005,-1.16114775003179e+001,-1.12745144276446e+000

1.24666332745679e+005,-1.16115162018017e+001,-1.14314704270052e+000

1.26406609898139e+005,-1.16115559340943e+001,-1.15905997760617e+000

1.28171180414339e+005,-1.16115967230345e+001,-1.17519321049262e+000

1.29960383416997e+005,-1.16116385950188e+001,-1.19154974301022e+000

1.31774562762811e+005,-1.16116815770084e+001,-1.20813261589266e+000

1.33614067108538e+005,-1.16117256965354e+001,-1.22494490940245e+000

1.35479249978003e+005,-1.16117709817096e+001,-1.24198974378224e+000

1.37370469830040e+005,-1.16118174612245e+001,-1.25927027970682e+000

1.39288090127379e+005,-1.16118651643630e+001,-1.27678971874057e+000

1.41232479406504e+005,-1.16119141210030e+001,-1.29455130379620e+000

1.43204011348474e+005,-1.16119643616220e+001,-1.31255831960091e+000

1.45203064850745e+005,-1.16120159173026e+001,-1.33081409316095e+000

1.47230024099979e+005,-1.16120688197360e+001,-1.34932199423198e+000

1.49285278645888e+005,-1.16121231012257e+001,-1.36808543579519e+000

1.51369223476094e+005,-1.16121787946913e+001,-1.38710787453275e+000

1.53482259092041e+005,-1.16122359336703e+001,-1.40639281131081e+000

1.55624791585964e+005,-1.16122945523207e+001,-1.42594379166227e+000

1.57797232718936e+005,-1.16123546854224e+001,-1.44576440627691e+000

1.59999999999999e+005,-1.16124163683773e+001,-1.46585829149343e+000

1.62233516766403e+005,-1.16124796372099e+001,-1.48622912979537e+000

1.64498212264969e+005,-1.16125445285660e+001,-1.50688065031236e+000

1.66794521734578e+005,-1.16126110797110e+001,-1.52781662932361e+000

1.69122886489819e+005,-1.16126793285277e+001,-1.54904089076681e+000

1.71483754005805e+005,-1.16127493135121e+001,-1.57055730675157e+000

1.73877578004168e+005,-1.16128210737697e+001,-1.59236979807609e+000

1.76304818540256e+005,-1.16128946490088e+001,-1.61448233475089e+000

1.78765942091554e+005,-1.16129700795348e+001,-1.63689893652399e+000

1.81261421647326e+005,-1.16130474062413e+001,-1.65962367341503e+000

1.83791736799524e+005,-1.16131266706017e+001,-1.68266066625083e+000

1.86357373834951e+005,-1.16132079146580e+001,-1.70601408720967e+000

1.88958825828723e+005,-1.16132911810094e+001,-1.72968816036918e+000

1.91596592739027e+005,-1.16133765127986e+001,-1.75368716226181e+000

1.94271181503206e+005,-1.16134639536967e+001,-1.77801542243496e+000

1.96983106135185e+005,-1.16135535478872e+001,-1.80267732402036e+000

1.99732887824256e+005,-1.16136453400471e+001,-1.82767730430723e+000

2.02521055035243e+005,-1.16137393753277e+001,-1.85301985532513e+000

2.05348143610063e+005,-1.16138356993318e+001,-1.87870952443547e+000

2.08214696870707e+005,-1.16139343580908e+001,-1.90475091492760e+000

2.11121265723661e+005,-1.16140353980385e+001,-1.93114868662796e+000

2.14068408765776e+005,-1.16141388659831e+001,-1.95790755651645e+000

2.17056692391625e+005,-1.16142448090777e+001,-1.98503229935169e+000

2.20086690902357e+005,-1.16143532747876e+001,-2.01252774830954e+000

2.23158986616063e+005,-1.16144643108558e+001,-2.04039879562935e+000

2.26274169979693e+005,-1.16145779652662e+001,-2.06865039327499e+000

2.29432839682530e+005,-1.16146942862037e+001,-2.09728755360672e+000

2.32635602771247e+005,-1.16148133220124e+001,-2.12631535006578e+000

2.35883074766574e+005,-1.16149351211506e+001,-2.15573891787563e+000

2.39175879781588e+005,-1.16150597321439e+001,-2.18556345475360e+000

2.42514650641661e+005,-1.16151872035339e+001,-2.21579422164322e+000

2.45900029006080e+005,-1.16153175838258e+001,-2.24643654345971e+000

2.49332665491357e+005,-1.16154509214320e+001,-2.27749580985433e+000

2.52813219796278e+005,-1.16155872646126e+001,-2.30897747599809e+000

2.56342360828676e+005,-1.16157266614134e+001,-2.34088706338417e+000

2.59920766833993e+005,-1.16158691596004e+001,-2.37323016065186e+000

2.63549125525621e+005,-1.16160148065908e+001,-2.40601242443247e+000

2.67228134217075e+005,-1.16161636493812e+001,-2.43923958021940e+000

2.70958499956006e+005,-1.16163157344722e+001,-2.47291742326114e+000

2.74740939660078e+005,-1.16164711077898e+001,-2.50705181948241e+000

2.78576180254757e+005,-1.16166298146031e+001,-2.54164870643057e+000

2.82464958813007e+005,-1.16167918994388e+001,-2.57671409425405e+000

2.86408022696948e+005,-1.16169574059924e+001,-2.61225406670738e+000

2.90406129701488e+005,-1.16171263770353e+001,-2.64827478219051e+000

2.94460048199957e+005,-1.16172988543195e+001,-2.68478247482238e+000

2.98570557291775e+005,-1.16174748784776e+001,-2.72178345554703e+000

3.02738446952187e+005,-1.16176544889203e+001,-2.75928411327899e+000

3.06964518184081e+005,-1.16178377237302e+001,-2.79729091608644e+000

3.11249583171928e+005,-1.16180246195522e+001,-2.83581041241452e+000

3.15594465437872e+005,-1.16182152114807e+001,-2.87484923235058e+000

3.19999999999997e+005,-1.16184095329432e+001,-2.91441408893496e+000

3.24467033532806e+005,-1.16186076155816e+001,-2.95451177951540e+000

3.28996424529938e+005,-1.16188094891298e+001,-2.99514918715022e+000

3.33589043469155e+005,-1.16190151812881e+001,-3.03633328206271e+000

3.38245772979638e+005,-1.16192247175958e+001,-3.07807112314281e+000

3.42967508011610e+005,-1.16194381213005e+001,-3.12036985950668e+000

3.47755156008335e+005,-1.16196554132250e+001,-3.16323673210803e+000

3.52609637080511e+005,-1.16198766116320e+001,-3.20667907540858e+000

3.57531884183106e+005,-1.16201017320869e+001,-3.25070431910649e+000

3.62522843294651e+005,-1.16203307873182e+001,-3.29531998992556e+000

3.67583473599047e+005,-1.16205637870774e+001,-3.34053371346674e+000

3.72714747669902e+005,-1.16208007379963e+001,-3.38635321612431e+000

3.77917651657445e+005,-1.16210416434440e+001,-3.43278632706673e+000

3.83193185478053e+005,-1.16212865033830e+001,-3.47984098028706e+000

3.88542363006410e+005,-1.16215353142250e+001,-3.52752521671903e+000

3.93966212270369e+005,-1.16217880686861e+001,-3.57584718642566e+000

3.99465775648511e+005,-1.16220447556429e+001,-3.62481515085946e+000

4.05042110070485e+005,-1.16223053599890e+001,-3.67443748519408e+000

4.10696287220124e+005,-1.16225698624921e+001,-3.72472268073023e+000

4.16429393741414e+005,-1.16228382396535e+001,-3.77567934737638e+000

4.22242531447321e+005,-1.16231104635683e+001,-3.82731621620579e+000

4.28136817531551e+005,-1.16233865017888e+001,-3.87964214208793e+000

4.34113384783250e+005,-1.16236663171903e+001,-3.93266610639701e+000

4.40173381804713e+005,-1.16239498678399e+001,-3.98639721979890e+000

4.46317973232124e+005,-1.16242371068691e+001,-4.04084472511186e+000

4.52548339959385e+005,-1.16245279823511e+001,-4.09601800024733e+000

4.58865679365059e+005,-1.16248224371813e+001,-4.15192656122376e+000

4.65271205542494e+005,-1.16251204089648e+001,-4.20858006525957e+000

4.71766149533147e+005,-1.16254218299074e+001,-4.26598831393888e+000

4.78351759563174e+005,-1.16257266267146e+001,-4.32416125645184e+000

4.85029301283321e+005,-1.16260347204956e+001,-4.38310899290874e+000

4.91800058012158e+005,-1.16263460266752e+001,-4.44284177772467e+000

4.98665330982714e+005,-1.16266604549127e+001,-4.50337002307362e+000

5.05626439592555e+005,-1.16269779090289e+001,-4.56470430241205e+000

5.12684721657352e+005,-1.16272982869416e+001,-4.62685535406535e+000

5.19841533667984e+005,-1.16276214806091e+001,-4.68983408488069e+000

5.27098251051240e+005,-1.16279473759835e+001,-4.75365157393782e+000

5.34456268434150e+005,-1.16282758529734e+001,-4.81831907631965e+000

5.41916999912011e+005,-1.16286067854164e+001,-4.88384802693596e+000

