Freq.,VOut,OutRef

1.00000000000000e+004,-2.73402071458846e+001,-1.83011328054891e-001

1.01395947979003e+004,-2.73402080246527e+001,-1.85566029338864e-001

1.02811382665607e+004,-2.73402089281220e+001,-1.88156391155364e-001

1.04246576084112e+004,-2.73402098569868e+001,-1.90782911231452e-001

1.05701804056138e+004,-2.73402108119608e+001,-1.93446094239808e-001

1.07177346253629e+004,-2.73402117937777e+001,-1.96146451894339e-001

1.08673486252606e+004,-2.73402128031919e+001,-1.98884503048216e-001

1.10190511587661e+004,-2.73402138409789e+001,-2.01660773795156e-001

1.11728713807222e+004,-2.73402149079361e+001,-2.04475797568586e-001

1.13288388529580e+004,-2.73402160048833e+001,-2.07330115242805e-001

1.14869835499703e+004,-2.73402171326632e+001,-2.10224275241054e-001

1.16473358646846e+004,-2.73402182921422e+001,-2.13158833636907e-001

1.18099266142953e+004,-2.73402194842113e+001,-2.16134354260698e-001

1.19747870461893e+004,-2.73402207097860e+001,-2.19151408811084e-001

1.21419488439505e+004,-2.73402219698079e+001,-2.22210576962371e-001

1.23114441334492e+004,-2.73402232652452e+001,-2.25312446472111e-001

1.24833054890161e+004,-2.73402245970929e+001,-2.28457613302145e-001

1.26575659397028e+004,-2.73402259663740e+001,-2.31646681726575e-001

1.28342589756290e+004,-2.73402273741405e+001,-2.34880264447556e-001

1.30134185544193e+004,-2.73402288214738e+001,-2.38158982715541e-001

1.31950791077289e+004,-2.73402303094855e+001,-2.41483466448205e-001

1.33792755478611e+004,-2.73402318393186e+001,-2.44854354349102e-001

1.35660432744767e+004,-2.73402334121483e+001,-2.48272294029312e-001

1.37554181813974e+004,-2.73402350291825e+001,-2.51737942136221e-001

1.39474366635040e+004,-2.73402366916632e+001,-2.55251964474964e-001

1.41421356237309e+004,-2.73402384008674e+001,-2.58815036136085e-001

1.43395524801583e+004,-2.73402401581075e+001,-2.62427841629233e-001

1.45397251732031e+004,-2.73402419647334e+001,-2.66091075007634e-001

1.47426921729110e+004,-2.73402438221324e+001,-2.69805440007167e-001

1.49484924863494e+004,-2.73402457317307e+001,-2.73571650177807e-001

1.51571656651040e+004,-2.73402476949951e+001,-2.77390429019420e-001

1.53687518128801e+004,-2.73402497134330e+001,-2.81262510123516e-001

1.55832915932100e+004,-2.73402517885943e+001,-2.85188637312028e-001

1.58008262372675e+004,-2.73402539220724e+001,-2.89169564778790e-001

1.60213975517924e+004,-2.73402561155056e+001,-2.93206057234457e-001

1.62450479271247e+004,-2.73402583705779e+001,-2.97298890054072e-001

1.64718203453514e+004,-2.73402606890208e+001,-3.01448849424207e-001

1.67017583885674e+004,-2.73402630726142e+001,-3.05656732492999e-001

1.69349062472505e+004,-2.73402655231881e+001,-3.09923347523640e-001

1.71713087287550e+004,-2.73402680426237e+001,-3.14249514049844e-001

1.74110112659224e+004,-2.73402706328552e+001,-3.18636063028680e-001

1.76540599258131e+004,-2.73402732958707e+001,-3.23083837005532e-001

1.79005014185594e+004,-2.73402760337146e+001,-3.27593690268539e-001

1.81503831063432e+004,-2.73402788484883e+001,-3.32166489017030e-001

1.84037530124975e+004,-2.73402817423521e+001,-3.36803111525378e-001

1.86606598307361e+004,-2.73402847175271e+001,-3.41504448310661e-001

1.89211529345119e+004,-2.73402877762967e+001,-3.46271402301308e-001

1.91852823865052e+004,-2.73402909210081e+001,-3.51104889013439e-001

1.94530989482457e+004,-2.73402941540747e+001,-3.56005836721826e-001

1.97246540898671e+004,-2.73402974779771e+001,-3.60975186640207e-001

1.99999999999999e+004,-2.73403008952662e+001,-3.66013893097537e-001

2.02791895958005e+004,-2.73403044085635e+001,-3.71122923725164e-001

2.05622765331213e+004,-2.73403080205648e+001,-3.76303259636450e-001

2.08493152168224e+004,-2.73403117340410e+001,-3.81555895617352e-001

2.11403608112276e+004,-2.73403155518408e+001,-3.86881840314678e-001

2.14354692507258e+004,-2.73403194768929e+001,-3.92282116428823e-001

2.17346972505211e+004,-2.73403235122079e+001,-3.97757760909898e-001

2.20381023175322e+004,-2.73403276608808e+001,-4.03309825153635e-001

2.23457427614443e+004,-2.73403319260937e+001,-4.08939375202264e-001

2.26576777059159e+004,-2.73403363111171e+001,-4.14647491950627e-001

2.29739670999406e+004,-2.73403408193139e+001,-4.20435271346204e-001

2.32946717293690e+004,-2.73403454541409e+001,-4.26303824604544e-001

2.36198532285905e+004,-2.73403502191516e+001,-4.32254278416407e-001

2.39495740923785e+004,-2.73403551179993e+001,-4.38287775163754e-001

2.42838976879009e+004,-2.73403601544394e+001,-4.44405473137943e-001

2.46228882668982e+004,-2.73403653323327e+001,-4.50608546757573e-001

2.49666109780322e+004,-2.73403706556480e+001,-4.56898186796304e-001

2.53151318794055e+004,-2.73403761284653e+001,-4.63275600605144e-001

2.56685179512580e+004,-2.73403817549784e+001,-4.69742012345225e-001

2.60268371088386e+004,-2.73403875394992e+001,-4.76298663217204e-001

2.63901582154578e+004,-2.73403934864597e+001,-4.82946811700648e-001

2.67585510957221e+004,-2.73403996004164e+001,-4.89687733790435e-001

2.71320865489533e+004,-2.73404058860528e+001,-4.96522723241635e-001

2.75108363627948e+004,-2.73404123481838e+001,-5.03453091812385e-001

2.78948733270080e+004,-2.73404189917589e+001,-5.10480169514988e-001

2.82842712474618e+004,-2.73404258218660e+001,-5.17605304867085e-001

2.86791049603164e+004,-2.73404328437353e+001,-5.24829865148450e-001

2.90794503464061e+004,-2.73404400627434e+001,-5.32155236658581e-001

2.94853843458219e+004,-2.73404474844170e+001,-5.39582824981824e-001

2.98969849726987e+004,-2.73404551144375e+001,-5.47114055251106e-001

3.03143313302078e+004,-2.73404629586448e+001,-5.54750372420399e-001

3.07375036257601e+004,-2.73404710230423e+001,-5.62493241536038e-001

3.11665831864199e+004,-2.73404793138010e+001,-5.70344148015279e-001

3.16016524745350e+004,-2.73404878372643e+001,-5.78304597926242e-001

3.20427951035848e+004,-2.73404965999529e+001,-5.86376118273621e-001

3.24900958542493e+004,-2.73405056085692e+001,-5.94560257288165e-001

3.29436406907028e+004,-2.73405148700033e+001,-6.02858584715481e-001

3.34035167771346e+004,-2.73405243913371e+001,-6.11272692116612e-001

3.38698124945009e+004,-2.73405341798506e+001,-6.19804193165624e-001

3.43426174575100e+004,-2.73405442430265e+001,-6.28454723955178e-001

3.48220225318448e+004,-2.73405545885568e+001,-6.37225943303992e-001

3.53081198516260e+004,-2.73405652243474e+001,-6.46119533071578e-001

3.58010028371187e+004,-2.73405761585251e+001,-6.55137198471651e-001

3.63007662126863e+004,-2.73405873994431e+001,-6.64280668395625e-001

3.68075060249948e+004,-2.73405989556874e+001,-6.73551695737199e-001

3.73213196614721e+004,-2.73406108360836e+001,-6.82952057720053e-001

3.78423058690237e+004,-2.73406230497026e+001,-6.92483556235661e-001

3.83705647730104e+004,-2.73406356058682e+001,-7.02148018177379e-001

3.89061978964912e+004,-2.73406485141639e+001,-7.11947295785485e-001

3.94493081797342e+004,-2.73406617844401e+001,-7.21883266993982e-001

3.99999999999998e+004,-2.73406754268208e+001,-7.31957835782552e-001

4.05583791916010e+004,-2.73406894517122e+001,-7.42172932533070e-001

4.11245530662425e+004,-2.73407038698096e+001,-7.52530514390633e-001

4.16986304336447e+004,-2.73407186921058e+001,-7.63032565629686e-001

4.22807216224550e+004,-2.73407339298991e+001,-7.73681098023267e-001

4.28709385014515e+004,-2.73407495948019e+001,-7.84478151221730e-001

4.34693945010421e+004,-2.73407656987488e+001,-7.95425793130473e-001

4.40762046350642e+004,-2.73407822540063e+001,-8.06526120295245e-001

4.46914855228886e+004,-2.73407992731809e+001,-8.17781258295009e-001

4.53153554118317e+004,-2.73408167692293e+001,-8.29193362134879e-001

4.59479341998812e+004,-2.73408347554674e+001,-8.40764616647983e-001

4.65893434587380e+004,-2.73408532455803e+001,-8.52497236900268e-001

4.72397064571810e+004,-2.73408722536327e+001,-8.64393468603126e-001

4.78991481847569e+004,-2.73408917940784e+001,-8.76455588528057e-001

4.85677953758016e+004,-2.73409118817721e+001,-8.88685904928846e-001

4.92457765337964e+004,-2.73409325319795e+001,-9.01086757968562e-001

4.99332219560642e+004,-2.73409537603885e+001,-9.13660520152144e-001

5.06302637588109e+004,-2.73409755831214e+001,-9.26409596763503e-001

5.13370359025159e+004,-2.73409980167455e+001,-9.39336426311260e-001

5.20536742176771e+004,-2.73410210782867e+001,-9.52443480974660e-001

5.27803164309155e+004,-2.73410447852406e+001,-9.65733267060508e-001

5.35171021914442e+004,-2.73410691555861e+001,-9.79208325463777e-001

5.42641730979066e+004,-2.73410942077978e+001,-9.92871232133138e-001

5.50216727255895e+004,-2.73411199608601e+001,-1.00672459854295e+000

5.57897466540159e+004,-2.73411464342807e+001,-1.02077107217157e+000

5.65685424949235e+004,-2.73411736481044e+001,-1.03501333698638e+000

5.73582099206328e+004,-2.73412016229281e+001,-1.04945411393143e+000

5.81589006928121e+004,-2.73412303799153e+001,-1.06409616142634e+000

5.89707686916437e+004,-2.73412599408114e+001,-1.07894227586607e+000

5.97939699453972e+004,-2.73412903279598e+001,-1.09399529212979e+000

6.06286626604156e+004,-2.73413215643170e+001,-1.10925808409734e+000

6.14750072515201e+004,-2.73413536734699e+001,-1.12473356516704e+000

6.23331663728396e+004,-2.73413866796522e+001,-1.14042468878465e+000

6.32033049490698e+004,-2.73414206077619e+001,-1.15633444897760e+000

6.40855902071694e+004,-2.73414554833789e+001,-1.17246588089247e+000

6.49801917084985e+004,-2.73414913327833e+001,-1.18882206134300e+000

6.58872813814055e+004,-2.73415281829736e+001,-1.20540610936397e+000

6.68070335542691e+004,-2.73415660616865e+001,-1.22222118676847e+000

6.77396249890018e+004,-2.73416049974158e+001,-1.23927049871533e+000

6.86852349150199e+004,-2.73416450194328e+001,-1.25655729428266e+000

6.96440450636895e+004,-2.73416861578067e+001,-1.27408486704537e+000

7.06162397032520e+004,-2.73417284434258e+001,-1.29185655566410e+000

7.16020056742374e+004,-2.73417719080188e+001,-1.30987574447565e+000

7.26015324253724e+004,-2.73418165841773e+001,-1.32814586409490e+000

7.36150120499896e+004,-2.73418625053778e+001,-1.34667039202134e+000

7.46426393229441e+004,-2.73419097060056e+001,-1.36545285325169e+000

7.56846117380472e+004,-2.73419582213778e+001,-1.38449682090317e+000

7.67411295460207e+004,-2.73420080877684e+001,-1.40380591683849e+000

7.78123957929823e+004,-2.73420593424322e+001,-1.42338381230330e+000

7.88986163594682e+004,-2.73421120236314e+001,-1.44323422856660e+000

7.99999999999995e+004,-2.73421661706605e+001,-1.46336093757006e+000

8.11167583832018e+004,-2.73422218238739e+001,-1.48376776258597e+000

8.22491061324848e+004,-2.73422790247128e+001,-1.50445857887804e+000

8.33972608672892e+004,-2.73423378157330e+001,-1.52543731437471e+000

8.45614432449099e+004,-2.73423982406339e+001,-1.54670795034596e+000

8.57418770029029e+004,-2.73424603442873e+001,-1.56827452208902e+000

8.69387890020841e+004,-2.73425241727676e+001,-1.59014111962090e+000

8.81524092701283e+004,-2.73425897733821e+001,-1.61231188837864e+000

8.93829710457770e+004,-2.73426571947026e+001,-1.63479102992637e+000

9.06307108236633e+004,-2.73427264865971e+001,-1.65758280267067e+000

9.18958683997622e+004,-2.73427977002625e+001,-1.68069152258236e+000

9.31786869174758e+004,-2.73428708882581e+001,-1.70412156392666e+000

9.44794129143618e+004,-2.73429461045395e+001,-1.72787736000005e+000

9.57982963695136e+004,-2.73430234044936e+001,-1.75196340387491e+000

9.71355907516031e+004,-2.73431028449743e+001,-1.77638424915116e+000

9.84915530675926e+004,-2.73431844843384e+001,-1.80114451071764e+000

9.98664439121282e+004,-2.73432683824834e+001,-1.82624886551689e+000

1.01260527517622e+005,-2.73433546008845e+001,-1.85170205332177e+000

1.02674071805032e+005,-2.73434432026342e+001,-1.87750887751611e+000

1.04107348435354e+005,-2.73435342524811e+001,-1.90367420588568e+000

1.05560632861831e+005,-2.73436278168702e+001,-1.93020297141520e+000

1.07034204382888e+005,-2.73437239639843e+001,-1.95710017309227e+000

1.08528346195813e+005,-2.73438227637855e+001,-1.98437087672157e+000

1.10043345451179e+005,-2.73439242880580e+001,-2.01202021574238e+000

1.11579493308032e+005,-2.73440286104518e+001,-2.04005339205778e+000

1.13137084989847e+005,-2.73441358065265e+001,-2.06847567686974e+000

1.14716419841265e+005,-2.73442459537970e+001,-2.09729241152015e+000

1.16317801385624e+005,-2.73443591317791e+001,-2.12650900834271e+000

1.17941537383287e+005,-2.73444754220365e+001,-2.15613095151917e+000

1.19587939890794e+005,-2.73445949082282e+001,-2.18616379794540e+000

1.21257325320831e+005,-2.73447176761576e+001,-2.21661317810298e+000

1.22950014503040e+005,-2.73448438138207e+001,-2.24748479694115e+000

1.24666332745679e+005,-2.73449734114576e+001,-2.27878443476246e+000

1.26406609898139e+005,-2.73451065616024e+001,-2.31051794811945e+000

1.28171180414339e+005,-2.73452433591356e+001,-2.34269127071646e+000

1.29960383416997e+005,-2.73453839013365e+001,-2.37531041432083e+000

1.31774562762811e+005,-2.73455282879369e+001,-2.40838146967940e+000

1.33614067108538e+005,-2.73456766211750e+001,-2.44191060744493e+000

1.35479249978003e+005,-2.73458290058509e+001,-2.47590407910768e+000

1.37370469830040e+005,-2.73459855493822e+001,-2.51036821793638e+000

1.39288090127379e+005,-2.73461463618610e+001,-2.54530943992601e+000

1.41232479406504e+005,-2.73463115561108e+001,-2.58073424475308e+000

1.43204011348474e+005,-2.73464812477453e+001,-2.61664921673794e+000

1.45203064850745e+005,-2.73466555552270e+001,-2.65306102581618e+000

1.47230024099979e+005,-2.73468345999272e+001,-2.68997642851575e+000

1.49285278645888e+005,-2.73470185061859e+001,-2.72740226894357e+000

1.51369223476094e+005,-2.73472074013734e+001,-2.76534547977880e+000

1.53482259092041e+005,-2.73474014159520e+001,-2.80381308327307e+000

1.55624791585964e+005,-2.73476006835381e+001,-2.84281219226129e+000

1.57797232718936e+005,-2.73478053409658e+001,-2.88235001117699e+000

1.59999999999999e+005,-2.73480155283500e+001,-2.92243383707825e+000

1.62233516766403e+005,-2.73482313891507e+001,-2.96307106068042e+000

1.64498212264969e+005,-2.73484530702385e+001,-3.00426916739693e+000

1.66794521734578e+005,-2.73486807219589e+001,-3.04603573838981e+000

1.69122886489819e+005,-2.73489144981984e+001,-3.08837845162665e+000

1.71483754005805e+005,-2.73491545564511e+001,-3.13130508294784e+000

1.73877578004168e+005,-2.73494010578847e+001,-3.17482350714276e+000

1.76304818540256e+005,-2.73496541674080e+001,-3.21894169903249e+000

1.78765942091554e+005,-2.73499140537376e+001,-3.26366773456524e+000

1.81261421647326e+005,-2.73501808894660e+001,-3.30900979191896e+000

1.83791736799524e+005,-2.73504548511295e+001,-3.35497615261400e+000

1.86357373834951e+005,-2.73507361192754e+001,-3.40157520263734e+000

1.88958825828723e+005,-2.73510248785311e+001,-3.44881543357484e+000

1.91596592739027e+005,-2.73513213176719e+001,-3.49670544375609e+000

1.94271181503206e+005,-2.73516256296893e+001,-3.54525393940999e+000

1.96983106135185e+005,-2.73519380118595e+001,-3.59446973583112e+000

1.99732887824256e+005,-2.73522586658116e+001,-3.64436175855964e+000

2.02521055035243e+005,-2.73525877975958e+001,-3.69493904457205e+000

2.05348143610063e+005,-2.73529256177513e+001,-3.74621074348623e+000

2.08214696870707e+005,-2.73532723413744e+001,-3.79818611878000e+000

2.11121265723661e+005,-2.73536281881859e+001,-3.85087454902308e+000

2.14068408765776e+005,-2.73539933825984e+001,-3.90428552912538e+000

2.17056692391625e+005,-2.73543681537832e+001,-3.95842867160027e+000

2.20086690902357e+005,-2.73547527357371e+001,-4.01331370784397e+000

2.23158986616063e+005,-2.73551473673483e+001,-4.06895048943267e+000

2.26274169979693e+005,-2.73555522924618e+001,-4.12534898943856e+000

2.29432839682530e+005,-2.73559677599452e+001,-4.18251930376352e+000

2.32635602771247e+005,-2.73563940237526e+001,-4.24047165249367e+000

2.35883074766574e+005,-2.73568313429885e+001,-4.29921638127586e+000

2.39175879781588e+005,-2.73572799819716e+001,-4.35876396271503e+000

2.42514650641661e+005,-2.73577402102974e+001,-4.41912499779583e+000

2.45900029006080e+005,-2.73582123028996e+001,-4.48031021732955e+000

2.49332665491357e+005,-2.73586965401121e+001,-4.54233048342525e+000

2.52813219796278e+005,-2.73591932077294e+001,-4.60519679099124e+000

2.56342360828676e+005,-2.73597025970665e+001,-4.66892026926163e+000

2.59920766833993e+005,-2.73602250050181e+001,-4.73351218335754e+000

2.63549125525621e+005,-2.73607607341173e+001,-4.79898393587655e+000

2.67228134217075e+005,-2.73613100925941e+001,-4.86534706851756e+000

2.70958499956006e+005,-2.73618733944318e+001,-4.93261326374174e+000

2.74740939660078e+005,-2.73624509594250e+001,-5.00079434646844e+000

2.78576180254757e+005,-2.73630431132356e+001,-5.06990228581155e+000

2.82464958813007e+005,-2.73636501874488e+001,-5.13994919685681e+000

2.86408022696948e+005,-2.73642725196295e+001,-5.21094734248108e+000

2.90406129701488e+005,-2.73649104533773e+001,-5.28290913521714e+000

2.94460048199957e+005,-2.73655643383833e+001,-5.35584713916469e+000

2.98570557291775e+005,-2.73662345304850e+001,-5.42977407195186e+000

3.02738446952187e+005,-2.73669213917233e+001,-5.50470280674563e+000

3.06964518184081e+005,-2.73676252903987e+001,-5.58064637431820e+000

3.11249583171928e+005,-2.73683466011296e+001,-5.65761796516706e+000

3.15594465437872e+005,-2.73690857049101e+001,-5.73563093169392e+000

3.19999999999997e+005,-2.73698429891706e+001,-5.81469879044361e+000

3.24467033532806e+005,-2.73706188478385e+001,-5.89483522440572e+000

3.28996424529938e+005,-2.73714136814023e+001,-5.97605408538006e+000

3.33589043469155e+005,-2.73722278969767e+001,-6.05836939641105e+000

3.38245772979638e+005,-2.73730619083711e+001,-6.14179535428923e+000

3.42967508011610e+005,-2.73739161361607e+001,-6.22634633212563e+000

3.47755156008335e+005,-2.73747910077616e+001,-6.31203688200019e+000

3.52609637080511e+005,-2.73756869575098e+001,-6.39888173768415e+000

3.57531884183106e+005,-2.73766044267440e+001,-6.48689581744297e+000

3.62522843294651e+005,-2.73775438638943e+001,-6.57609422691682e+000

3.67583473599047e+005,-2.73785057245763e+001,-6.66649226208389e+000

3.72714747669902e+005,-2.73794904716912e+001,-6.75810541230691e+000

3.77917651657445e+005,-2.73804985755332e+001,-6.85094936346455e+000

3.83193185478053e+005,-2.73815305139037e+001,-6.94504000116984e+000

3.88542363006410e+005,-2.73825867722348e+001,-7.04039341407553e+000

3.93966212270369e+005,-2.73836678437211e+001,-7.13702589726897e+000

3.99465775648511e+005,-2.73847742294615e+001,-7.23495395575608e+000

4.05042110070485e+005,-2.73859064386117e+001,-7.33419430803645e+000

4.10696287220124e+005,-2.73870649885480e+001,-7.43476388976843e+000

4.16429393741414e+005,-2.73882504050440e+001,-7.53667985752484e+000

4.22242531447321e+005,-2.73894632224591e+001,-7.63995959264055e+000

4.28136817531551e+005,-2.73907039839433e+001,-7.74462070514931e+000

4.34113384783250e+005,-2.73919732416550e+001,-7.85068103780977e+000

4.40173381804713e+005,-2.73932715569958e+001,-7.95815867022063e+000

4.46317973232124e+005,-2.73945995008630e+001,-8.06707192302144e+000

4.52548339959385e+005,-2.73959576539187e+001,-8.17743936217938e+000

4.58865679365059e+005,-2.73973466068789e+001,-8.28927980335739e+000

4.65271205542494e+005,-2.73987669608227e+001,-8.40261231636301e+000

4.71766149533147e+005,-2.74002193275219e+001,-8.51745622967387e+000

4.78351759563174e+005,-2.74017043297935e+001,-8.63383113503590e+000

4.85029301283321e+005,-2.74032226018747e+001,-8.75175689213108e+000

4.91800058012158e+005,-2.74047747898224e+001,-8.87125363331007e+000

4.98665330982714e+005,-2.74063615519377e+001,-8.99234176838446e+000

5.05626439592555e+005,-2.74079835592164e+001,-9.11504198947344e+000

5.12684721657352e+005,-2.74096414958271e+001,-9.23937527589968e+000

5.19841533667984e+005,-2.74113360596164e+001,-9.36536289912743e+000

5.27098251051240e+005,-2.74130679626434e+001,-9.49302642773592e+000

5.34456268434150e+005,-2.74148379317445e+001,-9.62238773242248e+000

5.41916999912011e+005,-2.74166467091277e+001,-9.75346899102495e+000

