Freq.,VOut,OutRef

1.00000000000000e+004,-2.09354378310631e+001,-2.53395529330576e-001

1.01395947979003e+004,-2.09354391118482e+001,-2.56932739300341e-001

1.02811382665607e+004,-2.09354404286350e+001,-2.60519324342569e-001

1.04246576084112e+004,-2.09354417824356e+001,-2.64155973598737e-001

1.05701804056138e+004,-2.09354431742897e+001,-2.67843385828755e-001

1.07177346253629e+004,-2.09354446052674e+001,-2.71582269537987e-001

1.08673486252606e+004,-2.09354460764679e+001,-2.75373343120655e-001

1.10190511587661e+004,-2.09354475890215e+001,-2.79217334992724e-001

1.11728713807222e+004,-2.09354491440905e+001,-2.83114983733162e-001

1.13288388529580e+004,-2.09354507428696e+001,-2.87067038226078e-001

1.14869835499703e+004,-2.09354523865871e+001,-2.91074257803616e-001

1.16473358646846e+004,-2.09354540765061e+001,-2.95137412390005e-001

1.18099266142953e+004,-2.09354558139248e+001,-2.99257282652784e-001

1.19747870461893e+004,-2.09354576001779e+001,-3.03434660150574e-001

1.21419488439505e+004,-2.09354594366378e+001,-3.07670347484012e-001

1.23114441334492e+004,-2.09354613247154e+001,-3.11965158449636e-001

1.24833054890161e+004,-2.09354632658611e+001,-3.16319918198720e-001

1.26575659397028e+004,-2.09354652615662e+001,-3.20735463391355e-001

1.28342589756290e+004,-2.09354673133636e+001,-3.25212642360815e-001

1.30134185544193e+004,-2.09354694228296e+001,-3.29752315271731e-001

1.31950791077289e+004,-2.09354715915845e+001,-3.34355354289491e-001

1.33792755478611e+004,-2.09354738212943e+001,-3.39022643743672e-001

1.35660432744767e+004,-2.09354761136718e+001,-3.43755080299594e-001

1.37554181813974e+004,-2.09354784704775e+001,-3.48553573129717e-001

1.39474366635040e+004,-2.09354808935220e+001,-3.53419044086513e-001

1.41421356237309e+004,-2.09354833846661e+001,-3.58352427882342e-001

1.43395524801583e+004,-2.09354859458232e+001,-3.63354672263605e-001

1.45397251732031e+004,-2.09354885789603e+001,-3.68426738196549e-001

1.47426921729110e+004,-2.09354912860998e+001,-3.73569600048944e-001

1.49484924863494e+004,-2.09354940693207e+001,-3.78784245777021e-001

1.51571656651040e+004,-2.09354969307603e+001,-3.84071677116175e-001

1.53687518128801e+004,-2.09354998726163e+001,-3.89432909769913e-001

1.55832915932100e+004,-2.09355028971475e+001,-3.94868973606970e-001

1.58008262372675e+004,-2.09355060066765e+001,-4.00380912857166e-001

1.60213975517924e+004,-2.09355092035912e+001,-4.05969786309962e-001

1.62450479271247e+004,-2.09355124903462e+001,-4.11636667520030e-001

1.64718203453514e+004,-2.09355158694651e+001,-4.17382645010592e-001

1.67017583885674e+004,-2.09355193435424e+001,-4.23208822481365e-001

1.69349062472505e+004,-2.09355229152455e+001,-4.29116319020978e-001

1.71713087287550e+004,-2.09355265873164e+001,-4.35106269320602e-001

1.74110112659224e+004,-2.09355303625741e+001,-4.41179823890622e-001

1.76540599258131e+004,-2.09355342439169e+001,-4.47338149279928e-001

1.79005014185594e+004,-2.09355382343243e+001,-4.53582428300403e-001

1.81503831063432e+004,-2.09355423368594e+001,-4.59913860252071e-001

1.84037530124975e+004,-2.09355465546712e+001,-4.66333661152684e-001

1.86606598307361e+004,-2.09355508909971e+001,-4.72843063969702e-001

1.89211529345119e+004,-2.09355553491654e+001,-4.79443318855098e-001

1.91852823865052e+004,-2.09355599325974e+001,-4.86135693387483e-001

1.94530989482457e+004,-2.09355646448109e+001,-4.92921472809014e-001

1.97246540898671e+004,-2.09355694894219e+001,-4.99801960275775e-001

1.99999999999999e+004,-2.09355744701481e+001,-5.06778477102480e-001

2.02791895958005e+004,-2.09355795908113e+001,-5.13852363017408e-001

2.05622765331213e+004,-2.09355848553406e+001,-5.21024976417627e-001

2.08493152168224e+004,-2.09355902677751e+001,-5.28297694627522e-001

2.11403608112276e+004,-2.09355958322673e+001,-5.35671914160848e-001

2.14354692507258e+004,-2.09356015530859e+001,-5.43149050989449e-001

2.17346972505211e+004,-2.09356074346196e+001,-5.50730540811116e-001

2.20381023175322e+004,-2.09356134813800e+001,-5.58417839322786e-001

2.23457427614443e+004,-2.09356196980049e+001,-5.66212422501189e-001

2.26576777059159e+004,-2.09356260892623e+001,-5.74115786881085e-001

2.29739670999406e+004,-2.09356326600538e+001,-5.82129449841117e-001

2.32946717293690e+004,-2.09356394154184e+001,-5.90254949893793e-001

2.36198532285905e+004,-2.09356463605363e+001,-5.98493846976860e-001

2.39495740923785e+004,-2.09356535007324e+001,-6.06847722751875e-001

2.42838976879009e+004,-2.09356608414814e+001,-6.15318180904053e-001

2.46228882668982e+004,-2.09356683884109e+001,-6.23906847447391e-001

2.49666109780322e+004,-2.09356761473064e+001,-6.32615371034670e-001

2.53151318794055e+004,-2.09356841241151e+001,-6.41445423271346e-001

2.56685179512580e+004,-2.09356923249511e+001,-6.50398699030422e-001

2.60268371088386e+004,-2.09357007560994e+001,-6.59476916778866e-001

2.63901582154578e+004,-2.09357094240210e+001,-6.68681818901200e-001

2.67585510957221e+004,-2.09357183353579e+001,-6.78015172030008e-001

2.71320865489533e+004,-2.09357274969377e+001,-6.87478767383955e-001

2.75108363627948e+004,-2.09357369157795e+001,-6.97074421104892e-001

2.78948733270080e+004,-2.09357465990983e+001,-7.06803974604968e-001

2.82842712474618e+004,-2.09357565543113e+001,-7.16669294913118e-001

2.86791049603164e+004,-2.09357667890432e+001,-7.26672275031505e-001

2.90794503464061e+004,-2.09357773111318e+001,-7.36814834292385e-001

2.94853843458219e+004,-2.09357881286339e+001,-7.47098918724280e-001

2.98969849726987e+004,-2.09357992498320e+001,-7.57526501416443e-001

3.03143313302078e+004,-2.09358106832400e+001,-7.68099582896126e-001

3.07375036257601e+004,-2.09358224376096e+001,-7.78820191505149e-001

3.11665831864199e+004,-2.09358345219373e+001,-7.89690383783694e-001

3.16016524745350e+004,-2.09358469454709e+001,-8.00712244859808e-001

3.20427951035848e+004,-2.09358597177165e+001,-8.11887888842495e-001

3.24900958542493e+004,-2.09358728484460e+001,-8.23219459220958e-001

3.29436406907028e+004,-2.09358863477039e+001,-8.34709129270165e-001

3.34035167771346e+004,-2.09359002258153e+001,-8.46359102459881e-001

3.38698124945009e+004,-2.09359144933936e+001,-8.58171612871336e-001

3.43426174575100e+004,-2.09359291613484e+001,-8.70148925616512e-001

3.48220225318448e+004,-2.09359442408938e+001,-8.82293337266386e-001

3.53081198516260e+004,-2.09359597435566e+001,-8.94607176282985e-001

3.58010028371187e+004,-2.09359756811855e+001,-9.07092803456431e-001

3.63007662126863e+004,-2.09359920659592e+001,-9.19752612350621e-001

3.68075060249948e+004,-2.09360089103964e+001,-9.32589029751792e-001

3.73213196614721e+004,-2.09360262273644e+001,-9.45604516124715e-001

3.78423058690237e+004,-2.09360440300894e+001,-9.58801566074233e-001

3.83705647730104e+004,-2.09360623321659e+001,-9.72182708813816e-001

3.89061978964912e+004,-2.09360811475672e+001,-9.85750508638968e-001

3.94493081797342e+004,-2.09361004906557e+001,-9.99507565408248e-001

3.99999999999998e+004,-2.09361203761936e+001,-1.01345651502898e+000

4.05583791916010e+004,-2.09361408193543e+001,-1.02760002995098e+000

4.11245530662425e+004,-2.09361618357329e+001,-1.04194081966604e+000

4.16986304336447e+004,-2.09361834413586e+001,-1.05648163121415e+000

4.22807216224550e+004,-2.09362056527065e+001,-1.07122524969485e+000

4.28709385014515e+004,-2.09362284867093e+001,-1.08617449878847e+000

4.34693945010421e+004,-2.09362519607708e+001,-1.10133224128075e+000

4.40762046350642e+004,-2.09362760927778e+001,-1.11670137959656e+000

4.46914855228886e+004,-2.09363009011145e+001,-1.13228485633842e+000

4.53153554118317e+004,-2.09363264046748e+001,-1.14808565483545e+000

4.59479341998812e+004,-2.09363526228776e+001,-1.16410679969521e+000

4.65893434587380e+004,-2.09363795756803e+001,-1.18035135736525e+000

4.72397064571810e+004,-2.09364072835938e+001,-1.19682243670228e+000

4.78991481847569e+004,-2.09364357676977e+001,-1.21352318954558e+000

4.85677953758016e+004,-2.09364650496556e+001,-1.23045681130209e+000

4.92457765337964e+004,-2.09364951517316e+001,-1.24762654153448e+000

4.99332219560642e+004,-2.09365260968059e+001,-1.26503566455991e+000

5.06302637588109e+004,-2.09365579083922e+001,-1.28268751005643e+000

5.13370359025159e+004,-2.09365906106547e+001,-1.30058545367283e+000

5.20536742176771e+004,-2.09366242284258e+001,-1.31873291765326e+000

5.27803164309155e+004,-2.09366587872241e+001,-1.33713337146219e+000

5.35171021914442e+004,-2.09366943132738e+001,-1.35579033242280e+000

5.42641730979066e+004,-2.09367308335226e+001,-1.37470736636072e+000

5.50216727255895e+004,-2.09367683756623e+001,-1.39388808825626e+000

5.57897466540159e+004,-2.09368069681487e+001,-1.41333616290518e+000

5.65685424949235e+004,-2.09368466402219e+001,-1.43305530558716e+000

5.73582099206328e+004,-2.09368874219280e+001,-1.45304928274171e+000

5.81589006928121e+004,-2.09369293441405e+001,-1.47332191265528e+000

5.89707686916437e+004,-2.09369724385825e+001,-1.49387706615379e+000

5.97939699453972e+004,-2.09370167378503e+001,-1.51471866730331e+000

6.06286626604156e+004,-2.09370622754358e+001,-1.53585069412391e+000

6.14750072515201e+004,-2.09371090857514e+001,-1.55727717930517e+000

6.23331663728396e+004,-2.09371572041542e+001,-1.57900221093666e+000

6.32033049490698e+004,-2.09372066669716e+001,-1.60102993324352e+000

6.40855902071694e+004,-2.09372575115270e+001,-1.62336454733164e+000

6.49801917084985e+004,-2.09373097761667e+001,-1.64601031194258e+000

6.58872813814055e+004,-2.09373635002866e+001,-1.66897154421666e+000

6.68070335542691e+004,-2.09374187243612e+001,-1.69225262046432e+000

6.77396249890018e+004,-2.09374754899708e+001,-1.71585797694885e+000

6.86852349150199e+004,-2.09375338398322e+001,-1.73979211067577e+000

6.96440450636895e+004,-2.09375938178282e+001,-1.76405958019266e+000

7.06162397032520e+004,-2.09376554690383e+001,-1.78866500639822e+000

7.16020056742374e+004,-2.09377188397706e+001,-1.81361307336099e+000

7.26015324253724e+004,-2.09377839775942e+001,-1.83890852914559e+000

7.36150120499896e+004,-2.09378509313721e+001,-1.86455618665035e+000

7.46426393229441e+004,-2.09379197512954e+001,-1.89056092445493e+000

7.56846117380472e+004,-2.09379904889182e+001,-1.91692768767381e+000

7.67411295460207e+004,-2.09380631971928e+001,-1.94366148882483e+000

7.78123957929823e+004,-2.09381379305068e+001,-1.97076740870152e+000

7.88986163594682e+004,-2.09382147447200e+001,-1.99825059726014e+000

7.99999999999995e+004,-2.09382936972031e+001,-2.02611627451284e+000

8.11167583832018e+004,-2.09383748468762e+001,-2.05436973143294e+000

8.22491061324848e+004,-2.09384582542498e+001,-2.08301633086817e+000

8.33972608672892e+004,-2.09385439814650e+001,-2.11206150846610e+000

8.45614432449099e+004,-2.09386320923360e+001,-2.14151077360589e+000

8.57418770029029e+004,-2.09387226523931e+001,-2.17136971034320e+000

8.69387890020841e+004,-2.09388157289261e+001,-2.20164397836450e+000

8.81524092701283e+004,-2.09389113910299e+001,-2.23233931394897e+000

8.93829710457770e+004,-2.09390097096502e+001,-2.26346153094345e+000

9.06307108236633e+004,-2.09391107576304e+001,-2.29501652174545e+000

9.18958683997622e+004,-2.09392146097601e+001,-2.32701025829651e+000

9.31786869174758e+004,-2.09393213428237e+001,-2.35944879308602e+000

9.44794129143618e+004,-2.09394310356511e+001,-2.39233826016569e+000

9.57982963695136e+004,-2.09395437691686e+001,-2.42568487617173e+000

9.71355907516031e+004,-2.09396596264517e+001,-2.45949494135985e+000

9.84915530675926e+004,-2.09397786927787e+001,-2.49377484064831e+000

9.98664439121282e+004,-2.09399010556852e+001,-2.52853104467273e+000

1.01260527517622e+005,-2.09400268050198e+001,-2.56377011084929e+000

1.02674071805032e+005,-2.09401560330020e+001,-2.59949868444884e+000

1.04107348435354e+005,-2.09402888342793e+001,-2.63572349968149e+000

1.05560632861831e+005,-2.09404253059878e+001,-2.67245138079030e+000

1.07034204382888e+005,-2.09405655478117e+001,-2.70968924315591e+000

1.08528346195813e+005,-2.09407096620463e+001,-2.74744409441048e+000

1.10043345451179e+005,-2.09408577536602e+001,-2.78572303556172e+000

1.11579493308032e+005,-2.09410099303604e+001,-2.82453326212726e+000

1.13137084989847e+005,-2.09411663026571e+001,-2.86388206527937e+000

1.14716419841265e+005,-2.09413269839315e+001,-2.90377683299774e+000

1.16317801385624e+005,-2.09414920905031e+001,-2.94422505123474e+000

1.17941537383287e+005,-2.09416617416998e+001,-2.98523430508893e+000

1.19587939890794e+005,-2.09418360599279e+001,-3.02681227998831e+000

1.21257325320831e+005,-2.09420151707449e+001,-3.06896676288452e+000

1.22950014503040e+005,-2.09421992029319e+001,-3.11170564345579e+000

1.24666332745679e+005,-2.09423882885688e+001,-3.15503691532011e+000

1.26406609898139e+005,-2.09425825631098e+001,-3.19896867725829e+000

1.28171180414339e+005,-2.09427821654609e+001,-3.24350913444585e+000

1.29960383416997e+005,-2.09429872380578e+001,-3.28866659969602e+000

1.31774562762811e+005,-2.09431979269460e+001,-3.33444949471086e+000

1.33614067108538e+005,-2.09434143818618e+001,-3.38086635134270e+000

1.35479249978003e+005,-2.09436367563141e+001,-3.42792581286611e+000

1.37370469830040e+005,-2.09438652076685e+001,-3.47563663525636e+000

1.39288090127379e+005,-2.09440998972318e+001,-3.52400768848139e+000

1.41232479406504e+005,-2.09443409903378e+001,-3.57304795780076e+000

1.43204011348474e+005,-2.09445886564349e+001,-3.62276654507424e+000

1.45203064850745e+005,-2.09448430691745e+001,-3.67317267008048e+000

1.47230024099979e+005,-2.09451044065002e+001,-3.72427567184555e+000

1.49285278645888e+005,-2.09453728507391e+001,-3.77608500998008e+000

1.51369223476094e+005,-2.09456485886937e+001,-3.82861026602586e+000

1.53482259092041e+005,-2.09459318117344e+001,-3.88186114481373e+000

1.55624791585964e+005,-2.09462227158943e+001,-3.93584747582841e+000

1.57797232718936e+005,-2.09465215019644e+001,-3.99057921458479e+000

1.59999999999999e+005,-2.09468283755893e+001,-4.04606644401402e+000

1.62233516766403e+005,-2.09471435473651e+001,-4.10231937585809e+000

1.64498212264969e+005,-2.09474672329370e+001,-4.15934835207549e+000

1.66794521734578e+005,-2.09477996530991e+001,-4.21716384625629e+000

1.69122886489819e+005,-2.09481410338938e+001,-4.27577646504753e+000

1.71483754005805e+005,-2.09484916067133e+001,-4.33519694958862e+000

1.73877578004168e+005,-2.09488516084003e+001,-4.39543617695826e+000

1.76304818540256e+005,-2.09492212813514e+001,-4.45650516163071e+000

1.78765942091554e+005,-2.09496008736198e+001,-4.51841505694299e+000

1.81261421647326e+005,-2.09499906390186e+001,-4.58117715657528e+000

1.83791736799524e+005,-2.09503908372257e+001,-4.64480289604040e+000

1.86357373834951e+005,-2.09508017338883e+001,-4.70930385418608e+000

1.88958825828723e+005,-2.09512236007283e+001,-4.77469175471006e+000

1.91596592739027e+005,-2.09516567156479e+001,-4.84097846768632e+000

1.94271181503206e+005,-2.09521013628358e+001,-4.90817601110568e+000

1.96983106135185e+005,-2.09525578328732e+001,-4.97629655242969e+000

1.99732887824256e+005,-2.09530264228408e+001,-5.04535241015798e+000

2.02521055035243e+005,-2.09535074364251e+001,-5.11535605541034e+000

2.05348143610063e+005,-2.09540011840255e+001,-5.18632011352496e+000

2.08214696870707e+005,-2.09545079828606e+001,-5.25825736567208e+000

2.11121265723661e+005,-2.09550281570757e+001,-5.33118075048400e+000

2.14068408765776e+005,-2.09555620378487e+001,-5.40510336570344e+000

2.17056692391625e+005,-2.09561099634970e+001,-5.48003846984947e+000

2.20086690902357e+005,-2.09566722795837e+001,-5.55599948390361e+000

2.23158986616063e+005,-2.09572493390234e+001,-5.63299999301630e+000

2.26274169979693e+005,-2.09578415021881e+001,-5.71105374823320e+000

2.29432839682530e+005,-2.09584491370122e+001,-5.79017466824660e+000

2.32635602771247e+005,-2.09590726190971e+001,-5.87037684116872e+000

2.35883074766574e+005,-2.09597123318159e+001,-5.95167452633076e+000

2.39175879781588e+005,-2.09603686664170e+001,-6.03408215610823e+000

2.42514650641661e+005,-2.09610420221272e+001,-6.11761433777470e+000

2.45900029006080e+005,-2.09617328062542e+001,-6.20228585538453e+000

2.49332665491357e+005,-2.09624414342893e+001,-6.28811167168641e+000

2.52813219796278e+005,-2.09631683300079e+001,-6.37510693007096e+000

2.56342360828676e+005,-2.09639139255713e+001,-6.46328695655104e+000

2.59920766833993e+005,-2.09646786616262e+001,-6.55266726177985e+000

2.63549125525621e+005,-2.09654629874051e+001,-6.64326354310725e+000

2.67228134217075e+005,-2.09662673608253e+001,-6.73509168667592e+000

2.70958499956006e+005,-2.09670922485877e+001,-6.82816776956088e+000

2.74740939660078e+005,-2.09679381262754e+001,-6.92250806195320e+000

2.78576180254757e+005,-2.09688054784522e+001,-7.01812902939043e+000

2.82464958813007e+005,-2.09696947987602e+001,-7.11504733503762e+000

2.86408022696948e+005,-2.09706065900188e+001,-7.21327984201884e+000

2.90406129701488e+005,-2.09715413643221e+001,-7.31284361580403e+000

2.94460048199957e+005,-2.09724996431384e+001,-7.41375592665179e+000

2.98570557291775e+005,-2.09734819574091e+001,-7.51603425211281e+000

3.02738446952187e+005,-2.09744888476491e+001,-7.61969627959387e+000

3.06964518184081e+005,-2.09755208640475e+001,-7.72475990898801e+000

3.11249583171928e+005,-2.09765785665709e+001,-7.83124325537205e+000

3.15594465437872e+005,-2.09776625250674e+001,-7.93916465177321e+000

3.19999999999997e+005,-2.09787733193729e+001,-8.04854265201069e+000

3.24467033532806e+005,-2.09799115394203e+001,-8.15939603361139e+000

3.28996424529938e+005,-2.09810777853516e+001,-8.27174380080506e+000

3.33589043469155e+005,-2.09822726676327e+001,-8.38560518760027e+000

3.38245772979638e+005,-2.09834968071730e+001,-8.50099966094494e+000

3.42967508011610e+005,-2.09847508354491e+001,-8.61794692397245e+000

3.47755156008335e+005,-2.09860353946339e+001,-8.73646691933764e+000

3.52609637080511e+005,-2.09873511377307e+001,-8.85657983264354e+000

3.57531884183106e+005,-2.09886987287148e+001,-8.97830609596252e+000

3.62522843294651e+005,-2.09900788426812e+001,-9.10166639145298e+000

3.67583473599047e+005,-2.09914921660013e+001,-9.22668165507368e+000

3.72714747669902e+005,-2.09929393964871e+001,-9.35337308039867e+000

3.77917651657445e+005,-2.09944212435663e+001,-9.48176212253236e+000

3.83193185478053e+005,-2.09959384284671e+001,-9.61187050212866e+000

3.88542363006410e+005,-2.09974916844144e+001,-9.74372020951225e+000

3.93966212270369e+005,-2.09990817568392e+001,-9.87733350890594e+000

3.99465775648511e+005,-2.10007094036008e+001,-1.00127329427625e+001

4.05042110070485e+005,-2.10023753952236e+001,-1.01499413362015e+001

4.10696287220124e+005,-2.10040805151501e+001,-1.02889818015515e+001

4.16429393741414e+005,-2.10058255600102e+001,-1.04298777429973e+001

4.22242531447321e+005,-2.10076113399085e+001,-1.05726528613290e+001

4.28136817531551e+005,-2.10094386787315e+001,-1.07173311587949e+001

4.34113384783250e+005,-2.10113084144740e+001,-1.08639369440534e+001

4.40173381804713e+005,-2.10132213995884e+001,-1.10124948372220e+001

4.46317973232124e+005,-2.10151785013561e+001,-1.11630297750222e+001

4.52548339959385e+005,-2.10171806022841e+001,-1.13155670160143e+001

4.58865679365059e+005,-2.10192286005259e+001,-1.14701321459199e+001

4.65271205542494e+005,-2.10213234103304e+001,-1.16267510830263e+001

4.71766149533147e+005,-2.10234659625181e+001,-1.17854500836679e+001

4.78351759563174e+005,-2.10256572049880e+001,-1.19462557477789e+001

4.85029301283321e+005,-2.10278981032535e+001,-1.21091950245103e+001

4.91800058012158e+005,-2.10301896410117e+001,-1.22742952179050e+001

4.98665330982714e+005,-2.10325328207456e+001,-1.24415839926212e+001

5.05626439592555e+005,-2.10349286643604e+001,-1.26110893796974e+001

5.12684721657352e+005,-2.10373782138557e+001,-1.27828397823502e+001

5.19841533667984e+005,-2.10398825320348e+001,-1.29568639817922e+001

5.27098251051240e+005,-2.10424427032508e+001,-1.31331911430635e+001

5.34456268434150e+005,-2.10450598341923e+001,-1.33118508208623e+001

5.41916999912011e+005,-2.10477350547087e+001,-1.34928729653652e+001

