Freq.,VOut,OutRef

1.00000000000000e+004,-1.25935164520960e+001,-9.29256259402664e-002

1.01395947979003e+004,-1.25935165216514e+001,-9.42228130568241e-002

1.02811382665607e+004,-1.25935165931616e+001,-9.55381079646858e-002

1.04246576084112e+004,-1.25935166666815e+001,-9.68717634263289e-002

1.05701804056138e+004,-1.25935167422674e+001,-9.82240357359990e-002

1.07177346253629e+004,-1.25935168199777e+001,-9.95951847603392e-002

1.08673486252606e+004,-1.25935168998717e+001,-1.00985473997266e-001

1.10190511587661e+004,-1.25935169820110e+001,-1.02395170620346e-001

1.11728713807222e+004,-1.25935170664586e+001,-1.03824545532740e-001

1.13288388529580e+004,-1.25935171532791e+001,-1.05273873419489e-001

1.14869835499703e+004,-1.25935172425395e+001,-1.06743432797336e-001

1.16473358646846e+004,-1.25935173343084e+001,-1.08233506070913e-001

1.18099266142953e+004,-1.25935174286557e+001,-1.09744379589572e-001

1.19747870461893e+004,-1.25935175256544e+001,-1.11276343694435e-001

1.21419488439505e+004,-1.25935176253787e+001,-1.12829692782694e-001

1.23114441334492e+004,-1.25935177279052e+001,-1.14404725357878e-001

1.24833054890161e+004,-1.25935178333126e+001,-1.16001744091806e-001

1.26575659397028e+004,-1.25935179416818e+001,-1.17621055877954e-001

1.28342589756290e+004,-1.25935180530959e+001,-1.19262971896773e-001

1.30134185544193e+004,-1.25935181676405e+001,-1.20927807668581e-001

1.31950791077289e+004,-1.25935182854036e+001,-1.22615883117493e-001

1.33792755478611e+004,-1.25935184064754e+001,-1.24327522633984e-001

1.35660432744767e+004,-1.25935185309488e+001,-1.26063055136472e-001

1.37554181813974e+004,-1.25935186589195e+001,-1.27822814130418e-001

1.39474366635040e+004,-1.25935187904855e+001,-1.29607137779641e-001

1.41421356237309e+004,-1.25935189257477e+001,-1.31416368965747e-001

1.43395524801583e+004,-1.25935190648102e+001,-1.33250855353577e-001

1.45397251732031e+004,-1.25935192077794e+001,-1.35110949464135e-001

1.47426921729110e+004,-1.25935193547650e+001,-1.36997008734900e-001

1.49484924863494e+004,-1.25935195058799e+001,-1.38909395592779e-001

1.51571656651040e+004,-1.25935196612400e+001,-1.40848477521910e-001

1.53687518128801e+004,-1.25935198209641e+001,-1.42814627137549e-001

1.55832915932100e+004,-1.25935199851752e+001,-1.44808222249181e-001

1.58008262372675e+004,-1.25935201539989e+001,-1.46829645945678e-001

1.60213975517924e+004,-1.25935203275648e+001,-1.48879286656577e-001

1.62450479271247e+004,-1.25935205060058e+001,-1.50957538234865e-001

1.64718203453514e+004,-1.25935206894590e+001,-1.53064800028187e-001

1.67017583885674e+004,-1.25935208780648e+001,-1.55201476958010e-001

1.69349062472505e+004,-1.25935210719681e+001,-1.57367979594773e-001

1.71713087287550e+004,-1.25935212713171e+001,-1.59564724240923e-001

1.74110112659224e+004,-1.25935214762649e+001,-1.61792133006077e-001

1.76540599258131e+004,-1.25935216869684e+001,-1.64050633890594e-001

1.79005014185594e+004,-1.25935219035893e+001,-1.66340660865422e-001

1.81503831063432e+004,-1.25935221262934e+001,-1.68662653960669e-001

1.84037530124975e+004,-1.25935223552513e+001,-1.71017059344691e-001

1.86606598307361e+004,-1.25935225906386e+001,-1.73404329410577e-001

1.89211529345119e+004,-1.25935228326354e+001,-1.75824922864638e-001

1.91852823865052e+004,-1.25935230814272e+001,-1.78279304813858e-001

1.94530989482457e+004,-1.25935233372047e+001,-1.80767946853570e-001

1.97246540898671e+004,-1.25935236001635e+001,-1.83291327162466e-001

1.99999999999999e+004,-1.25935238705050e+001,-1.85849930587854e-001

2.02791895958005e+004,-1.25935241484364e+001,-1.88444248742210e-001

2.05622765331213e+004,-1.25935244341702e+001,-1.91074780099508e-001

2.08493152168224e+004,-1.25935247279253e+001,-1.93742030085912e-001

2.11403608112276e+004,-1.25935250299266e+001,-1.96446511179938e-001

2.14354692507258e+004,-1.25935253404050e+001,-1.99188743011770e-001

2.17346972505211e+004,-1.25935256595982e+001,-2.01969252458604e-001

2.20381023175322e+004,-1.25935259877504e+001,-2.04788573749897e-001

2.23457427614443e+004,-1.25935263251126e+001,-2.07647248567255e-001

2.26576777059159e+004,-1.25935266719429e+001,-2.10545826150393e-001

2.29739670999406e+004,-1.25935270285065e+001,-2.13484863399655e-001

2.32946717293690e+004,-1.25935273950760e+001,-2.16464924985629e-001

2.36198532285905e+004,-1.25935277719318e+001,-2.19486583455301e-001

2.39495740923785e+004,-1.25935281593619e+001,-2.22550419342591e-001

2.42838976879009e+004,-1.25935285576624e+001,-2.25657021280656e-001

2.46228882668982e+004,-1.25935289671377e+001,-2.28806986111715e-001

2.49666109780322e+004,-1.25935293881005e+001,-2.32000919005115e-001

2.53151318794055e+004,-1.25935298208726e+001,-2.35239433570965e-001

2.56685179512580e+004,-1.25935302657844e+001,-2.38523151977761e-001

2.60268371088386e+004,-1.25935307231759e+001,-2.41852705071299e-001

2.63901582154578e+004,-1.25935311933959e+001,-2.45228732498905e-001

2.67585510957221e+004,-1.25935316768037e+001,-2.48651882826458e-001

2.71320865489533e+004,-1.25935321737680e+001,-2.52122813667431e-001

2.75108363627948e+004,-1.25935326846683e+001,-2.55642191804848e-001

2.78948733270080e+004,-1.25935332098939e+001,-2.59210693324147e-001

2.82842712474618e+004,-1.25935337498458e+001,-2.62829003735618e-001

2.86791049603164e+004,-1.25935343049354e+001,-2.66497818112341e-001

2.90794503464061e+004,-1.25935348755862e+001,-2.70217841218434e-001

2.94853843458219e+004,-1.25935354622331e+001,-2.73989787646566e-001

2.98969849726987e+004,-1.25935360653229e+001,-2.77814381955109e-001

3.03143313302078e+004,-1.25935366853152e+001,-2.81692358803699e-001

3.07375036257601e+004,-1.25935373226821e+001,-2.85624463097444e-001

3.11665831864199e+004,-1.25935379779090e+001,-2.89611450126525e-001

3.16016524745350e+004,-1.25935386514946e+001,-2.93654085712675e-001

3.20427951035848e+004,-1.25935393439515e+001,-2.97753146354883e-001

3.24900958542493e+004,-1.25935400558065e+001,-3.01909419377306e-001

3.29436406907028e+004,-1.25935407876012e+001,-3.06123703080448e-001

3.34035167771346e+004,-1.25935415398917e+001,-3.10396806894708e-001

3.38698124945009e+004,-1.25935423132499e+001,-3.14729551533224e-001

3.43426174575100e+004,-1.25935431082634e+001,-3.19122769150073e-001

3.48220225318448e+004,-1.25935439255363e+001,-3.23577303497623e-001

3.53081198516260e+004,-1.25935447656890e+001,-3.28094010090922e-001

3.58010028371187e+004,-1.25935456293592e+001,-3.32673756368988e-001

3.63007662126863e+004,-1.25935465172023e+001,-3.37317421858261e-001

3.68075060249948e+004,-1.25935474298919e+001,-3.42025898345273e-001

3.73213196614721e+004,-1.25935483681198e+001,-3.46800090044522e-001

3.78423058690237e+004,-1.25935493325971e+001,-3.51640913771451e-001

3.83705647730104e+004,-1.25935503240548e+001,-3.56549299114984e-001

3.89061978964912e+004,-1.25935513432435e+001,-3.61526188620047e-001

3.94493081797342e+004,-1.25935523909348e+001,-3.66572537962568e-001

3.99999999999998e+004,-1.25935534679215e+001,-3.71689316133860e-001

4.05583791916010e+004,-1.25935545750180e+001,-3.76877505627902e-001

4.11245530662425e+004,-1.25935557130615e+001,-3.82138102621152e-001

4.16986304336447e+004,-1.25935568829117e+001,-3.87472117172585e-001

4.22807216224550e+004,-1.25935580854524e+001,-3.92880573406879e-001

4.28709385014515e+004,-1.25935593215911e+001,-3.98364509716875e-001

4.34693945010421e+004,-1.25935605922605e+001,-4.03924978956407e-001

4.40762046350642e+004,-1.25935618984190e+001,-4.09563048642381e-001

4.46914855228886e+004,-1.25935632410509e+001,-4.15279801160019e-001

4.53153554118317e+004,-1.25935646211674e+001,-4.21076333966375e-001

4.59479341998812e+004,-1.25935660398078e+001,-4.26953759798970e-001

4.65893434587380e+004,-1.25935674980392e+001,-4.32913206890135e-001

4.72397064571810e+004,-1.25935689969583e+001,-4.38955819179281e-001

4.78991481847569e+004,-1.25935705376912e+001,-4.45082756532208e-001

4.85677953758016e+004,-1.25935721213951e+001,-4.51295194959461e-001

4.92457765337964e+004,-1.25935737492586e+001,-4.57594326841871e-001

4.99332219560642e+004,-1.25935754225024e+001,-4.63981361155883e-001

5.06302637588109e+004,-1.25935771423805e+001,-4.70457523704142e-001

5.13370359025159e+004,-1.25935789101809e+001,-4.77024057347050e-001

5.20536742176771e+004,-1.25935807272266e+001,-4.83682222239993e-001

5.27803164309155e+004,-1.25935825948762e+001,-4.90433296071797e-001

5.35171021914442e+004,-1.25935845145252e+001,-4.97278574307028e-001

5.42641730979066e+004,-1.25935864876070e+001,-5.04219370430924e-001

5.50216727255895e+004,-1.25935885155932e+001,-5.11257016201105e-001

5.57897466540159e+004,-1.25935905999954e+001,-5.18392861896968e-001

5.65685424949235e+004,-1.25935927423657e+001,-5.25628276576922e-001

5.73582099206328e+004,-1.25935949442982e+001,-5.32964648336382e-001

5.81589006928121e+004,-1.25935972074296e+001,-5.40403384572936e-001

5.89707686916437e+004,-1.25935995334403e+001,-5.47945912250783e-001

5.97939699453972e+004,-1.25936019240562e+001,-5.55593678169606e-001

6.06286626604156e+004,-1.25936043810489e+001,-5.63348149241398e-001

6.14750072515201e+004,-1.25936069062374e+001,-5.71210812764303e-001

6.23331663728396e+004,-1.25936095014894e+001,-5.79183176705653e-001

6.32033049490698e+004,-1.25936121687220e+001,-5.87266769986020e-001

6.40855902071694e+004,-1.25936149099034e+001,-5.95463142767392e-001

6.49801917084985e+004,-1.25936177270543e+001,-6.03773866745716e-001

6.58872813814055e+004,-1.25936206222483e+001,-6.12200535448271e-001

6.68070335542691e+004,-1.25936235976143e+001,-6.20744764531876e-001

6.77396249890018e+004,-1.25936266553373e+001,-6.29408192089249e-001

6.86852349150199e+004,-1.25936297976598e+001,-6.38192478955966e-001

6.96440450636895e+004,-1.25936330268833e+001,-6.47099309024012e-001

7.06162397032520e+004,-1.25936363453695e+001,-6.56130389557617e-001

7.16020056742374e+004,-1.25936397555423e+001,-6.65287451514405e-001

7.26015324253724e+004,-1.25936432598887e+001,-6.74572249870156e-001

7.36150120499896e+004,-1.25936468609605e+001,-6.83986563949509e-001

7.46426393229441e+004,-1.25936505613761e+001,-6.93532197758218e-001

7.56846117380472e+004,-1.25936543638218e+001,-7.03210980321696e-001

7.67411295460207e+004,-1.25936582710533e+001,-7.13024766030046e-001

7.78123957929823e+004,-1.25936622858976e+001,-7.22975434981026e-001

7.88986163594682e+004,-1.25936664112546e+001,-7.33064893335904e-001

7.99999999999995e+004,-1.25936706500987e+001,-7.43295073673828e-001

8.11167583832018e+004,-1.25936750054805e+001,-7.53667935353367e-001

8.22491061324848e+004,-1.25936794805285e+001,-7.64185464879850e-001

8.33972608672892e+004,-1.25936840784511e+001,-7.74849676273073e-001

8.45614432449099e+004,-1.25936888025381e+001,-7.85662611446487e-001

8.57418770029029e+004,-1.25936936561626e+001,-7.96626340585550e-001

8.69387890020841e+004,-1.25936986427830e+001,-8.07742962532893e-001

8.81524092701283e+004,-1.25937037659447e+001,-8.19014605181297e-001

8.93829710457770e+004,-1.25937090292820e+001,-8.30443425867888e-001

9.06307108236633e+004,-1.25937144365201e+001,-8.42031611773364e-001

9.18958683997622e+004,-1.25937199914771e+001,-8.53781380331175e-001

9.31786869174758e+004,-1.25937256980655e+001,-8.65694979637200e-001

9.44794129143618e+004,-1.25937315602948e+001,-8.77774688867132e-001

9.57982963695136e+004,-1.25937375822732e+001,-8.90022818697391e-001

9.71355907516031e+004,-1.25937437682096e+001,-9.02441711733052e-001

9.84915530675926e+004,-1.25937501224156e+001,-9.15033742943182e-001

9.98664439121282e+004,-1.25937566493077e+001,-9.27801320096752e-001

1.01260527517622e+005,-1.25937633534092e+001,-9.40746884207560e-001

1.02674071805032e+005,-1.25937702393525e+001,-9.53872909985893e-001

1.04107348435354e+005,-1.25937773118808e+001,-9.67181906292774e-001

1.05560632861831e+005,-1.25937845758506e+001,-9.80676416603146e-001

1.07034204382888e+005,-1.25937920362336e+001,-9.94359019471862e-001

1.08528346195813e+005,-1.25937996981187e+001,-1.00823232900849e+000

1.10043345451179e+005,-1.25938075667142e+001,-1.02229899535789e+000

1.11579493308032e+005,-1.25938156473499e+001,-1.03656170518498e+000

1.13137084989847e+005,-1.25938239454794e+001,-1.05102318216590e+000

1.14716419841265e+005,-1.25938324666818e+001,-1.06568618748891e+000

1.16317801385624e+005,-1.25938412166637e+001,-1.08055352035802e+000

1.17941537383287e+005,-1.25938502012619e+001,-1.09562801850300e+000

1.19587939890794e+005,-1.25938594264445e+001,-1.11091255869972e+000

1.21257325320831e+005,-1.25938688983139e+001,-1.12641005729203e+000

1.22950014503040e+005,-1.25938786231081e+001,-1.14212347072320e+000

1.24666332745679e+005,-1.25938886072025e+001,-1.15805579607599e+000

1.26406609898139e+005,-1.25938988571125e+001,-1.17421007161378e+000

1.28171180414339e+005,-1.25939093794948e+001,-1.19058937733394e+000

1.29960383416997e+005,-1.25939201811493e+001,-1.20719683552647e+000

1.31774562762811e+005,-1.25939312690211e+001,-1.22403561133909e+000

1.33614067108538e+005,-1.25939426502018e+001,-1.24110891334974e+000

1.35479249978003e+005,-1.25939543319313e+001,-1.25841999414656e+000

1.37370469830040e+005,-1.25939663215994e+001,-1.27597215091614e+000

1.39288090127379e+005,-1.25939786267473e+001,-1.29376872603698e+000

1.41232479406504e+005,-1.25939912550687e+001,-1.31181310768251e+000

1.43204011348474e+005,-1.25940042144111e+001,-1.33010873043187e+000

1.45203064850745e+005,-1.25940175127773e+001,-1.34865907588581e+000

1.47230024099979e+005,-1.25940311583260e+001,-1.36746767329353e+000

1.49285278645888e+005,-1.25940451593731e+001,-1.38653810018563e+000

1.51369223476094e+005,-1.25940595243919e+001,-1.40587398301625e+000

1.53482259092041e+005,-1.25940742620144e+001,-1.42547899781203e+000

1.55624791585964e+005,-1.25940893810313e+001,-1.44535687083086e+000

1.57797232718936e+005,-1.25941048903923e+001,-1.46551137922826e+000

1.59999999999999e+005,-1.25941207992064e+001,-1.48594635173194e+000

1.62233516766403e+005,-1.25941371167417e+001,-1.50666566932532e+000

1.64498212264969e+005,-1.25941538524251e+001,-1.52767326594083e+000

1.66794521734578e+005,-1.25941710158419e+001,-1.54897312916043e+000

1.69122886489819e+005,-1.25941886167347e+001,-1.57056930092712e+000

1.71483754005805e+005,-1.25942066650028e+001,-1.59246587826319e+000

1.73877578004168e+005,-1.25942251707008e+001,-1.61466701400061e+000

1.76304818540256e+005,-1.25942441440367e+001,-1.63717691751836e+000

1.78765942091554e+005,-1.25942635953707e+001,-1.65999985549244e+000

1.81261421647326e+005,-1.25942835352123e+001,-1.68314015265244e+000

1.83791736799524e+005,-1.25943039742186e+001,-1.70660219255043e+000

1.86357373834951e+005,-1.25943249231908e+001,-1.73039041833913e+000

1.88958825828723e+005,-1.25943463930711e+001,-1.75450933356220e+000

1.91596592739027e+005,-1.25943683949395e+001,-1.77896350295048e+000

1.94271181503206e+005,-1.25943909400095e+001,-1.80375755323631e+000

1.96983106135185e+005,-1.25944140396236e+001,-1.82889617397181e+000

1.99732887824256e+005,-1.25944377052488e+001,-1.85438411836277e+000

2.02521055035243e+005,-1.25944619484707e+001,-1.88022620411297e+000

2.05348143610063e+005,-1.25944867809884e+001,-1.90642731427899e+000

2.08214696870707e+005,-1.25945122146076e+001,-1.93299239813995e+000

2.11121265723661e+005,-1.25945382612342e+001,-1.95992647207565e+000

2.14068408765776e+005,-1.25945649328664e+001,-1.98723462046008e+000

2.17056692391625e+005,-1.25945922415875e+001,-2.01492199656734e+000

2.20086690902357e+005,-1.25946201995565e+001,-2.04299382348969e+000

2.23158986616063e+005,-1.25946488189998e+001,-2.07145539506931e+000

2.26274169979693e+005,-1.25946781122005e+001,-2.10031207684599e+000

2.29432839682530e+005,-1.25947080914889e+001,-2.12956930701377e+000

2.32635602771247e+005,-1.25947387692309e+001,-2.15923259739812e+000

2.35883074766574e+005,-1.25947701578158e+001,-2.18930753444440e+000

2.39175879781588e+005,-1.25948022696447e+001,-2.21979978022151e+000

2.42514650641661e+005,-1.25948351171165e+001,-2.25071507344197e+000

2.45900029006080e+005,-1.25948687126142e+001,-2.28205923049846e+000

2.49332665491357e+005,-1.25949030684897e+001,-2.31383814651625e+000

2.52813219796278e+005,-1.25949381970489e+001,-2.34605779642116e+000

2.56342360828676e+005,-1.25949741105345e+001,-2.37872423602659e+000

2.59920766833993e+005,-1.25950108211092e+001,-2.41184360313899e+000

2.63549125525621e+005,-1.25950483408377e+001,-2.44542211867848e+000

2.67228134217075e+005,-1.25950866816672e+001,-2.47946608782151e+000

2.70958499956006e+005,-1.25951258554081e+001,-2.51398190116053e+000

2.74740939660078e+005,-1.25951658737132e+001,-2.54897603588485e+000

2.78576180254757e+005,-1.25952067480557e+001,-2.58445505698097e+000

2.82464958813007e+005,-1.25952484897071e+001,-2.62042561845528e+000

2.86408022696948e+005,-1.25952911097134e+001,-2.65689446457604e+000

2.90406129701488e+005,-1.25953346188714e+001,-2.69386843113909e+000

2.94460048199957e+005,-1.25953790277028e+001,-2.73135444675588e+000

2.98570557291775e+005,-1.25954243464281e+001,-2.76935953416576e+000

3.02738446952187e+005,-1.25954705849402e+001,-2.80789081156957e+000

3.06964518184081e+005,-1.25955177527754e+001,-2.84695549399213e+000

3.11249583171928e+005,-1.25955658590856e+001,-2.88656089466497e+000

3.15594465437872e+005,-1.25956149126080e+001,-2.92671442643993e+000

3.19999999999997e+005,-1.25956649216347e+001,-2.96742360322639e+000

3.24467033532806e+005,-1.25957158939813e+001,-3.00869604145677e+000

3.28996424529938e+005,-1.25957678369547e+001,-3.05053946158049e+000

3.33589043469155e+005,-1.25958207573204e+001,-3.09296168958572e+000

3.38245772979638e+005,-1.25958746612683e+001,-3.13597065855254e+000

3.42967508011610e+005,-1.25959295543789e+001,-3.17957441023461e+000

3.47755156008335e+005,-1.25959854415878e+001,-3.22378109667198e+000

3.52609637080511e+005,-1.25960423271504e+001,-3.26859898183714e+000

3.57531884183106e+005,-1.25961002146057e+001,-3.31403644331155e+000

3.62522843294651e+005,-1.25961591067391e+001,-3.36010197399671e+000

3.67583473599047e+005,-1.25962190055461e+001,-3.40680418385897e+000

3.72714747669902e+005,-1.25962799121945e+001,-3.45415180170766e+000

3.77917651657445e+005,-1.25963418269861e+001,-3.50215367701043e+000

3.83193185478053e+005,-1.25964047493198e+001,-3.55081878174287e+000

3.88542363006410e+005,-1.25964686776528e+001,-3.60015621227581e+000

3.93966212270369e+005,-1.25965336094624e+001,-3.65017519129909e+000

3.99465775648511e+005,-1.25965995412085e+001,-3.70088506978427e+000

4.05042110070485e+005,-1.25966664682954e+001,-3.75229532898380e+000

4.10696287220124e+005,-1.25967343850338e+001,-3.80441558247190e+000

4.16429393741414e+005,-1.25968032846043e+001,-3.85725557822296e+000

4.22242531447321e+005,-1.25968731590197e+001,-3.91082520073042e+000

4.28136817531551e+005,-1.25969439990896e+001,-3.96513447316666e+000

4.34113384783250e+005,-1.25970157943843e+001,-4.02019355958369e+000

4.40173381804713e+005,-1.25970885332002e+001,-4.07601276715448e+000

4.46317973232124e+005,-1.25971622025262e+001,-4.13260254845725e+000

4.52548339959385e+005,-1.25972367880111e+001,-4.18997350379993e+000

4.58865679365059e+005,-1.25973122739317e+001,-4.24813638358878e+000

4.65271205542494e+005,-1.25973886431630e+001,-4.30710209073779e+000

4.71766149533147e+005,-1.25974658771494e+001,-4.36688168312155e+000

4.78351759563174e+005,-1.25975439558772e+001,-4.42748637607035e+000

4.85029301283321e+005,-1.25976228578497e+001,-4.48892754490756e+000

4.91800058012158e+005,-1.25977025600632e+001,-4.55121672753101e+000

4.98665330982714e+005,-1.25977830379855e+001,-4.61436562703489e+000

5.05626439592555e+005,-1.25978642655360e+001,-4.67838611437560e+000

5.12684721657352e+005,-1.25979462150687e+001,-4.74329023107933e+000

5.19841533667984e+005,-1.25980288573565e+001,-4.80909019199135e+000

5.27098251051240e+005,-1.25981121615787e+001,-4.87579838806729e+000

5.34456268434150e+005,-1.25981960953108e+001,-4.94342738920596e+000

5.41916999912011e+005,-1.25982806245165e+001,-5.01198994712175e+000

