Freq.,VOut,OutRef

1.00000000000000e+004,-1.36749046994364e+001,-8.43973883389978e-002

1.01395947979003e+004,-1.36749052468227e+001,-8.55754864726244e-002

1.02811382665607e+004,-1.36749058095934e+001,-8.67700283104386e-002

1.04246576084112e+004,-1.36749063881801e+001,-8.79812433191689e-002

1.05701804056138e+004,-1.36749069830278e+001,-8.92093641574342e-002

1.07177346253629e+004,-1.36749075945927e+001,-9.04546267372294e-002

1.08673486252606e+004,-1.36749082233448e+001,-9.17172702527408e-002

1.10190511587661e+004,-1.36749088697670e+001,-9.29975372366085e-002

1.11728713807222e+004,-1.36749095343556e+001,-9.42956736023483e-002

1.13288388529580e+004,-1.36749102176209e+001,-9.56119286918526e-002

1.14869835499703e+004,-1.36749109200876e+001,-9.69465553227537e-002

1.16473358646846e+004,-1.36749116422949e+001,-9.82998098402860e-002

1.18099266142953e+004,-1.36749123847976e+001,-9.96719521582044e-002

1.19747870461893e+004,-1.36749131481657e+001,-1.01063245817022e-001

1.21419488439505e+004,-1.36749139329850e+001,-1.02473958030802e-001

1.23114441334492e+004,-1.36749147398584e+001,-1.03904359735982e-001

1.24833054890161e+004,-1.36749155694050e+001,-1.05354725648403e-001

1.26575659397028e+004,-1.36749164222620e+001,-1.06825334309283e-001

1.28342589756290e+004,-1.36749172990838e+001,-1.08316468145709e-001

1.30134185544193e+004,-1.36749182005435e+001,-1.09828413518346e-001

1.31950791077289e+004,-1.36749191273330e+001,-1.11361460778870e-001

1.33792755478611e+004,-1.36749200801638e+001,-1.12915904325664e-001

1.35660432744767e+004,-1.36749210597670e+001,-1.14492042659887e-001

1.37554181813974e+004,-1.36749220668944e+001,-1.16090178440578e-001

1.39474366635040e+004,-1.36749231023192e+001,-1.17710618543099e-001

1.41421356237309e+004,-1.36749241668355e+001,-1.19353674122248e-001

1.43395524801583e+004,-1.36749252612607e+001,-1.21019660662081e-001

1.45397251732031e+004,-1.36749263864340e+001,-1.22708898048123e-001

1.47426921729110e+004,-1.36749275432191e+001,-1.24421710614805e-001

1.49484924863494e+004,-1.36749287325035e+001,-1.26158427219479e-001

1.51571656651040e+004,-1.36749299551995e+001,-1.27919381297741e-001

1.53687518128801e+004,-1.36749312122449e+001,-1.29704910931025e-001

1.55832915932100e+004,-1.36749325046043e+001,-1.31515358905458e-001

1.58008262372675e+004,-1.36749338332688e+001,-1.33351072784286e-001

1.60213975517924e+004,-1.36749351992574e+001,-1.35212404969922e-001

1.62450479271247e+004,-1.36749366036181e+001,-1.37099712768515e-001

1.64718203453514e+004,-1.36749380474275e+001,-1.39013358464617e-001

1.67017583885674e+004,-1.36749395317930e+001,-1.40953709383426e-001

1.69349062472505e+004,-1.36749410578526e+001,-1.42921137966679e-001

1.71713087287550e+004,-1.36749426267766e+001,-1.44916021837487e-001

1.74110112659224e+004,-1.36749442397677e+001,-1.46938743875965e-001

1.76540599258131e+004,-1.36749458980625e+001,-1.48989692291040e-001

1.79005014185594e+004,-1.36749476029321e+001,-1.51069260693630e-001

1.81503831063432e+004,-1.36749493556833e+001,-1.53177848172563e-001

1.84037530124975e+004,-1.36749511576597e+001,-1.55315859366391e-001

1.86606598307361e+004,-1.36749530102418e+001,-1.57483704548865e-001

1.89211529345119e+004,-1.36749549148497e+001,-1.59681799694846e-001

1.91852823865052e+004,-1.36749568729423e+001,-1.61910566570073e-001

1.94530989482457e+004,-1.36749588860202e+001,-1.64170432801700e-001

1.97246540898671e+004,-1.36749609556254e+001,-1.66461831968668e-001

1.99999999999999e+004,-1.36749630833431e+001,-1.68785203676483e-001

2.02791895958005e+004,-1.36749652708032e+001,-1.71140993641384e-001

2.05622765331213e+004,-1.36749675196808e+001,-1.73529653779169e-001

2.08493152168224e+004,-1.36749698316981e+001,-1.75951642285838e-001

2.11403608112276e+004,-1.36749722086254e+001,-1.78407423725265e-001

2.14354692507258e+004,-1.36749746522823e+001,-1.80897469119385e-001

2.17346972505211e+004,-1.36749771645395e+001,-1.83422256033711e-001

2.20381023175322e+004,-1.36749797473200e+001,-1.85982268669752e-001

2.23457427614443e+004,-1.36749824026002e+001,-1.88577997955198e-001

2.26576777059159e+004,-1.36749851324122e+001,-1.91209941636761e-001

2.29739670999406e+004,-1.36749879388446e+001,-1.93878604372930e-001

2.32946717293690e+004,-1.36749908240443e+001,-1.96584497832279e-001

2.36198532285905e+004,-1.36749937902183e+001,-1.99328140785446e-001

2.39495740923785e+004,-1.36749968396351e+001,-2.02110059205077e-001

2.42838976879009e+004,-1.36749999746265e+001,-2.04930786364698e-001

2.46228882668982e+004,-1.36750031975896e+001,-2.07790862937151e-001

2.49666109780322e+004,-1.36750065109880e+001,-2.10690837100138e-001

2.53151318794055e+004,-1.36750099173545e+001,-2.13631264631533e-001

2.56685179512580e+004,-1.36750134192921e+001,-2.16612709022883e-001

2.60268371088386e+004,-1.36750170194767e+001,-2.19635741576517e-001

2.63901582154578e+004,-1.36750207206584e+001,-2.22700941519510e-001

2.67585510957221e+004,-1.36750245256647e+001,-2.25808896104883e-001

2.71320865489533e+004,-1.36750284374011e+001,-2.28960200728332e-001

2.75108363627948e+004,-1.36750324588545e+001,-2.32155459033495e-001

2.78948733270080e+004,-1.36750365930946e+001,-2.35395283030384e-001

2.82842712474618e+004,-1.36750408432771e+001,-2.38680293202967e-001

2.86791049603164e+004,-1.36750452126451e+001,-2.42011118630392e-001

2.90794503464061e+004,-1.36750497045320e+001,-2.45388397100587e-001

2.94853843458219e+004,-1.36750543223644e+001,-2.48812775229345e-001

2.98969849726987e+004,-1.36750590696632e+001,-2.52284908583513e-001

3.03143313302078e+004,-1.36750639500486e+001,-2.55805461795685e-001

3.07375036257601e+004,-1.36750689672400e+001,-2.59375108697871e-001

3.11665831864199e+004,-1.36750741250611e+001,-2.62994532434114e-001

3.16016524745350e+004,-1.36750794274414e+001,-2.66664425596488e-001

3.20427951035848e+004,-1.36750848784195e+001,-2.70385490349994e-001

3.24900958542493e+004,-1.36750904821463e+001,-2.74158438559035e-001

3.29436406907028e+004,-1.36750962428878e+001,-2.77983991923440e-001

3.34035167771346e+004,-1.36751021650283e+001,-2.81862882108336e-001

3.38698124945009e+004,-1.36751082530735e+001,-2.85795850880797e-001

3.43426174575100e+004,-1.36751145116541e+001,-2.89783650243489e-001

3.48220225318448e+004,-1.36751209455292e+001,-2.93827042575113e-001

3.53081198516260e+004,-1.36751275595896e+001,-2.97926800768287e-001

3.58010028371187e+004,-1.36751343588614e+001,-3.02083708372935e-001

3.63007662126863e+004,-1.36751413485099e+001,-3.06298559736869e-001

3.68075060249948e+004,-1.36751485338429e+001,-3.10572160153823e-001

3.73213196614721e+004,-1.36751559203155e+001,-3.14905326007099e-001

3.78423058690237e+004,-1.36751635135330e+001,-3.19298884920028e-001

3.83705647730104e+004,-1.36751713192557e+001,-3.23753675905837e-001

3.89061978964912e+004,-1.36751793434030e+001,-3.28270549519142e-001

3.94493081797342e+004,-1.36751875920573e+001,-3.32850368012683e-001

3.99999999999998e+004,-1.36751960714690e+001,-3.37494005487255e-001

4.05583791916010e+004,-1.36752047880604e+001,-3.42202348057794e-001

4.11245530662425e+004,-1.36752137484311e+001,-3.46976294004235e-001

4.16986304336447e+004,-1.36752229593621e+001,-3.51816753939694e-001

4.22807216224550e+004,-1.36752324278208e+001,-3.56724650970580e-001

4.28709385014515e+004,-1.36752421609665e+001,-3.61700920862365e-001

4.34693945010421e+004,-1.36752521661547e+001,-3.66746512208979e-001

4.40762046350642e+004,-1.36752624509433e+001,-3.71862386597418e-001

4.46914855228886e+004,-1.36752730230974e+001,-3.77049518784186e-001

4.53153554118317e+004,-1.36752838905949e+001,-3.82308896864314e-001

4.59479341998812e+004,-1.36752950616324e+001,-3.87641522449462e-001

4.65893434587380e+004,-1.36753065446309e+001,-3.93048410842144e-001

4.72397064571810e+004,-1.36753183482417e+001,-3.98530591217758e-001

4.78991481847569e+004,-1.36753304813526e+001,-4.04089106803679e-001

4.85677953758016e+004,-1.36753429530940e+001,-4.09725015063580e-001

4.92457765337964e+004,-1.36753557728459e+001,-4.15439387880865e-001

4.99332219560642e+004,-1.36753689502436e+001,-4.21233311748489e-001

5.06302637588109e+004,-1.36753824951853e+001,-4.27107887954972e-001

5.13370359025159e+004,-1.36753964178384e+001,-4.33064232777893e-001

5.20536742176771e+004,-1.36754107286466e+001,-4.39103477678068e-001

5.27803164309155e+004,-1.36754254383377e+001,-4.45226769491964e-001

5.35171021914442e+004,-1.36754405579305e+001,-4.51435270630712e-001

5.42641730979066e+004,-1.36754560987425e+001,-4.57730159280023e-001

5.50216727255895e+004,-1.36754720723978e+001,-4.64112629601538e-001

5.57897466540159e+004,-1.36754884908352e+001,-4.70583891933916e-001

5.65685424949235e+004,-1.36755053663157e+001,-4.77145173003973e-001

5.73582099206328e+004,-1.36755227114317e+001,-4.83797716126987e-001

5.81589006928121e+004,-1.36755405391149e+001,-4.90542781424884e-001

5.89707686916437e+004,-1.36755588626455e+001,-4.97381646029930e-001

5.97939699453972e+004,-1.36755776956607e+001,-5.04315604303647e-001

6.06286626604156e+004,-1.36755970521640e+001,-5.11345968052753e-001

6.14750072515201e+004,-1.36756169465349e+001,-5.18474066742569e-001

6.23331663728396e+004,-1.36756373935378e+001,-5.25701247722649e-001

6.32033049490698e+004,-1.36756584083324e+001,-5.33028876444786e-001

6.40855902071694e+004,-1.36756800064832e+001,-5.40458336688566e-001

6.49801917084985e+004,-1.36757022039700e+001,-5.47991030787407e-001

6.58872813814055e+004,-1.36757250171981e+001,-5.55628379855377e-001

6.68070335542691e+004,-1.36757484630093e+001,-5.63371824018492e-001

6.77396249890018e+004,-1.36757725586925e+001,-5.71222822644722e-001

6.86852349150199e+004,-1.36757973219947e+001,-5.79182854579431e-001

6.96440450636895e+004,-1.36758227711326e+001,-5.87253418380408e-001

7.06162397032520e+004,-1.36758489248042e+001,-5.95436032554745e-001

7.16020056742374e+004,-1.36758758022003e+001,-6.03732235798772e-001

7.26015324253724e+004,-1.36759034230169e+001,-6.12143587238397e-001

7.36150120499896e+004,-1.36759318074670e+001,-6.20671666674250e-001

7.46426393229441e+004,-1.36759609762939e+001,-6.29318074822840e-001

7.56846117380472e+004,-1.36759909507832e+001,-6.38084433566010e-001

7.67411295460207e+004,-1.36760217527762e+001,-6.46972386197442e-001

7.78123957929823e+004,-1.36760534046832e+001,-6.55983597672369e-001

7.88986163594682e+004,-1.36760859294966e+001,-6.65119754860651e-001

7.99999999999995e+004,-1.36761193508051e+001,-6.74382566796550e-001

8.11167583832018e+004,-1.36761536928078e+001,-6.83773764935935e-001

8.22491061324848e+004,-1.36761889803275e+001,-6.93295103410736e-001

8.33972608672892e+004,-1.36762252388264e+001,-7.02948359287285e-001

8.45614432449099e+004,-1.36762624944200e+001,-7.12735332823129e-001

8.57418770029029e+004,-1.36763007738923e+001,-7.22657847728699e-001

8.69387890020841e+004,-1.36763401047111e+001,-7.32717751428009e-001

8.81524092701283e+004,-1.36763805150432e+001,-7.42916915320408e-001

8.93829710457770e+004,-1.36764220337701e+001,-7.53257235046165e-001

9.06307108236633e+004,-1.36764646905043e+001,-7.63740630746935e-001

9.18958683997622e+004,-1.36765085156046e+001,-7.74369047336542e-001

9.31786869174758e+004,-1.36765535401933e+001,-7.85144454762921e-001

9.44794129143618e+004,-1.36765997961720e+001,-7.96068848278309e-001

9.57982963695136e+004,-1.36766473162388e+001,-8.07144248706244e-001

9.71355907516031e+004,-1.36766961339052e+001,-8.18372702709527e-001

9.84915530675926e+004,-1.36767462835128e+001,-8.29756283061593e-001

9.98664439121282e+004,-1.36767978002513e+001,-8.41297088914145e-001

1.01260527517622e+005,-1.36768507201752e+001,-8.52997246069508e-001

1.02674071805032e+005,-1.36769050802222e+001,-8.64858907249127e-001

1.04107348435354e+005,-1.36769609182301e+001,-8.76884252366929e-001

1.05560632861831e+005,-1.36770182729555e+001,-8.89075488797815e-001

1.07034204382888e+005,-1.36770771840917e+001,-9.01434851649353e-001

1.08528346195813e+005,-1.36771376922862e+001,-9.13964604035177e-001

1.10043345451179e+005,-1.36771998391596e+001,-9.26667037341489e-001

1.11579493308032e+005,-1.36772636673235e+001,-9.39544471502209e-001

1.13137084989847e+005,-1.36773292203992e+001,-9.52599255264791e-001

1.14716419841265e+005,-1.36773965430354e+001,-9.65833766463567e-001

1.16317801385624e+005,-1.36774656809273e+001,-9.79250412286711e-001

1.17941537383287e+005,-1.36775366808345e+001,-9.92851629544796e-001

1.19587939890794e+005,-1.36776095905992e+001,-1.00663988494026e+000

1.21257325320831e+005,-1.36776844591650e+001,-1.02061767533141e+000

1.22950014503040e+005,-1.36777613365942e+001,-1.03478752799983e+000

1.24666332745679e+005,-1.36778402740864e+001,-1.04915200091443e+000

1.26406609898139e+005,-1.36779213239961e+001,-1.06371368299413e+000

1.28171180414339e+005,-1.36780045398502e+001,-1.07847519437125e+000

1.29960383416997e+005,-1.36780899763656e+001,-1.09343918664954e+000

1.31774562762811e+005,-1.36781776894660e+001,-1.10860834316526e+000

1.33614067108538e+005,-1.36782677362989e+001,-1.12398537924300e+000

1.35479249978003e+005,-1.36783601752518e+001,-1.13957304245199e+000

1.37370469830040e+005,-1.36784550659684e+001,-1.15537411285781e+000

1.39288090127379e+005,-1.36785524693637e+001,-1.17139140327556e+000

1.41232479406504e+005,-1.36786524476396e+001,-1.18762775951845e+000

1.43204011348474e+005,-1.36787550642986e+001,-1.20408606064573e+000

1.45203064850745e+005,-1.36788603841582e+001,-1.22076921920684e+000

1.47230024099979e+005,-1.36789684733637e+001,-1.23768018148426e+000

1.49285278645888e+005,-1.36790793994004e+001,-1.25482192773503e+000

1.51369223476094e+005,-1.36791932311054e+001,-1.27219747242723e+000

1.53482259092041e+005,-1.36793100386781e+001,-1.28980986447688e+000

1.55624791585964e+005,-1.36794298936895e+001,-1.30766218748042e+000

1.57797232718936e+005,-1.36795528690916e+001,-1.32575755994527e+000

1.59999999999999e+005,-1.36796790392240e+001,-1.34409913551872e+000

1.62233516766403e+005,-1.36798084798207e+001,-1.36269010321331e+000

1.64498212264969e+005,-1.36799412680150e+001,-1.38153368763051e+000

1.66794521734578e+005,-1.36800774823428e+001,-1.40063314918160e+000

1.69122886489819e+005,-1.36802172027448e+001,-1.41999178430768e+000

1.71483754005805e+005,-1.36803605105676e+001,-1.43961292569407e+000

1.73877578004168e+005,-1.36805074885617e+001,-1.45949994248760e+000

1.76304818540256e+005,-1.36806582208787e+001,-1.47965624050858e+000

1.78765942091554e+005,-1.36808127930672e+001,-1.50008526246099e+000

1.81261421647326e+005,-1.36809712920651e+001,-1.52079048814444e+000

1.83791736799524e+005,-1.36811338061911e+001,-1.54177543466165e+000

1.86357373834951e+005,-1.36813004251335e+001,-1.56304365662479e+000

1.88958825828723e+005,-1.36814712399363e+001,-1.58459874636590e+000

1.91596592739027e+005,-1.36816463429836e+001,-1.60644433414055e+000

1.94271181503206e+005,-1.36818258279808e+001,-1.62858408833753e+000

1.96983106135185e+005,-1.36820097899331e+001,-1.65102171568437e+000

1.99732887824256e+005,-1.36821983251214e+001,-1.67376096145775e+000

2.02521055035243e+005,-1.36823915310748e+001,-1.69680560969403e+000

2.05348143610063e+005,-1.36825895065407e+001,-1.72015948340071e+000

2.08214696870707e+005,-1.36827923514502e+001,-1.74382644477366e+000

2.11121265723661e+005,-1.36830001668820e+001,-1.76781039541599e+000

2.14068408765776e+005,-1.36832130550207e+001,-1.79211527656217e+000

2.17056692391625e+005,-1.36834311191131e+001,-1.81674506930661e+000

2.20086690902357e+005,-1.36836544634195e+001,-1.84170379483955e+000

2.23158986616063e+005,-1.36838831931618e+001,-1.86699551468839e+000

2.26274169979693e+005,-1.36841174144663e+001,-1.89262433097086e+000

2.29432839682530e+005,-1.36843572343035e+001,-1.91859438665235e+000

2.32635602771247e+005,-1.36846027604231e+001,-1.94490986581777e+000

2.35883074766574e+005,-1.36848541012836e+001,-1.97157499395349e+000

2.39175879781588e+005,-1.36851113659782e+001,-1.99859403824298e+000

2.42514650641661e+005,-1.36853746641553e+001,-2.02597130787745e+000

2.45900029006080e+005,-1.36856441059343e+001,-2.05371115438153e+000

2.49332665491357e+005,-1.36859198018160e+001,-2.08181797195662e+000

2.52813219796278e+005,-1.36862018625883e+001,-2.11029619784606e+000

2.56342360828676e+005,-1.36864903992256e+001,-2.13915031271882e+000

2.59920766833993e+005,-1.36867855227839e+001,-2.16838484107841e+000

2.63549125525621e+005,-1.36870873442895e+001,-2.19800435169442e+000

2.67228134217075e+005,-1.36873959746229e+001,-2.22801345806470e+000

2.70958499956006e+005,-1.36877115243958e+001,-2.25841681890466e+000

2.74740939660078e+005,-1.36880341038234e+001,-2.28921913866820e+000

2.78576180254757e+005,-1.36883638225909e+001,-2.32042516810385e+000

2.82464958813007e+005,-1.36887007897133e+001,-2.35203970484622e+000

2.86408022696948e+005,-1.36890451133899e+001,-2.38406759404825e+000

2.90406129701488e+005,-1.36893969008532e+001,-2.41651372905257e+000

2.94460048199957e+005,-1.36897562582115e+001,-2.44938305210888e+000

2.98570557291775e+005,-1.36901232902856e+001,-2.48268055513840e+000

3.02738446952187e+005,-1.36904981004404e+001,-2.51641128054758e+000

3.06964518184081e+005,-1.36908807904099e+001,-2.55058032209552e+000

3.11249583171928e+005,-1.36912714601179e+001,-2.58519282581567e+000

3.15594465437872e+005,-1.36916702074917e+001,-2.62025399099841e+000

3.19999999999997e+005,-1.36920771282716e+001,-2.65576907123424e+000

3.24467033532806e+005,-1.36924923158156e+001,-2.69174337552209e+000

3.28996424529938e+005,-1.36929158608977e+001,-2.72818226944662e+000

3.33589043469155e+005,-1.36933478515032e+001,-2.76509117642584e+000

3.38245772979638e+005,-1.36937883726184e+001,-2.80247557903358e+000

3.42967508011610e+005,-1.36942375060175e+001,-2.84034102039992e+000

3.47755156008335e+005,-1.36946953300442e+001,-2.87869310569207e+000

3.52609637080511e+005,-1.36951619193914e+001,-2.91753750367911e+000

3.57531884183106e+005,-1.36956373448769e+001,-2.95687994838335e+000

3.62522843294651e+005,-1.36961216732174e+001,-2.99672624082187e+000

3.67583473599047e+005,-1.36966149668000e+001,-3.03708225084037e+000

3.72714747669902e+005,-1.36971172834522e+001,-3.07795391904320e+000

3.77917651657445e+005,-1.36976286762111e+001,-3.11934725882081e+000

3.83193185478053e+005,-1.36981491930923e+001,-3.16126835847741e+000

3.88542363006410e+005,-1.36986788768587e+001,-3.20372338346368e+000

3.93966212270369e+005,-1.36992177647908e+001,-3.24671857871134e+000

3.99465775648511e+005,-1.36997658884578e+001,-3.29026027107875e+000

4.05042110070485e+005,-1.37003232734921e+001,-3.33435487190080e+000

4.10696287220124e+005,-1.37008899393654e+001,-3.37900887965399e+000

4.16429393741414e+005,-1.37014658991703e+001,-3.42422888272920e+000

4.22242531447321e+005,-1.37020511594055e+001,-3.47002156231864e+000

4.28136817531551e+005,-1.37026457197669e+001,-3.51639369541641e+000

4.34113384783250e+005,-1.37032495729446e+001,-3.56335215793110e+000

4.40173381804713e+005,-1.37038627044284e+001,-3.61090392791307e+000

4.46317973232124e+005,-1.37044850923198e+001,-3.65905608889418e+000

4.52548339959385e+005,-1.37051167071544e+001,-3.70781583333967e+000

4.58865679365059e+005,-1.37057575117337e+001,-3.75719046621140e+000

4.65271205542494e+005,-1.37064074609679e+001,-3.80718740864113e+000

4.71766149533147e+005,-1.37070665017304e+001,-3.85781420170969e+000

4.78351759563174e+005,-1.37077345727259e+001,-3.90907851033269e+000

4.85029301283321e+005,-1.37084116043707e+001,-3.96098812724798e+000

4.91800058012158e+005,-1.37090975186893e+001,-4.01355097710177e+000

4.98665330982714e+005,-1.37097922292248e+001,-4.06677512063016e+000

5.05626439592555e+005,-1.37104956409673e+001,-4.12066875893114e+000

5.12684721657352e+005,-1.37112076502982e+001,-4.17524023782287e+000

5.19841533667984e+005,-1.37119281449532e+001,-4.23049805228359e+000

5.27098251051240e+005,-1.37126570040036e+001,-4.28645085096610e+000

5.34456268434150e+005,-1.37133940978572e+001,-4.34310744078268e+000

5.41916999912011e+005,-1.37141392882795e+001,-4.40047679155280e+000

