Freq.,VOut,OutRef

1.00000000000000e+004,-1.62606156691305e+001,-1.13845150341488e-001

1.01395947979003e+004,-1.62606161841422e+001,-1.15434331351460e-001

1.02811382665607e+004,-1.62606167136285e+001,-1.17045694886791e-001

1.04246576084112e+004,-1.62606172579965e+001,-1.18679550533175e-001

1.05701804056138e+004,-1.62606178176638e+001,-1.20336212199174e-001

1.07177346253629e+004,-1.62606183930607e+001,-1.22015998168867e-001

1.08673486252606e+004,-1.62606189846290e+001,-1.23719231168664e-001

1.10190511587661e+004,-1.62606195928230e+001,-1.25446238425696e-001

1.11728713807222e+004,-1.62606202181100e+001,-1.27197351731162e-001

1.13288388529580e+004,-1.62606208609699e+001,-1.28972907505673e-001

1.14869835499703e+004,-1.62606215218966e+001,-1.30773246861703e-001

1.16473358646846e+004,-1.62606222013975e+001,-1.32598715669049e-001

1.18099266142953e+004,-1.62606228999945e+001,-1.34449664622600e-001

1.19747870461893e+004,-1.62606236182241e+001,-1.36326449307535e-001

1.21419488439505e+004,-1.62606243566379e+001,-1.38229430268214e-001

1.23114441334492e+004,-1.62606251158026e+001,-1.40158973079600e-001

1.24833054890161e+004,-1.62606258963013e+001,-1.42115448412009e-001

1.26575659397028e+004,-1.62606266987331e+001,-1.44099232108186e-001

1.28342589756290e+004,-1.62606275237144e+001,-1.46110705249141e-001

1.30134185544193e+004,-1.62606283718782e+001,-1.48150254233290e-001

1.31950791077289e+004,-1.62606292438759e+001,-1.50218270844243e-001

1.33792755478611e+004,-1.62606301403768e+001,-1.52315152331837e-001

1.35660432744767e+004,-1.62606310620692e+001,-1.54441301482021e-001

1.37554181813974e+004,-1.62606320096603e+001,-1.56597126700372e-001

1.39474366635040e+004,-1.62606329838778e+001,-1.58783042084277e-001

1.41421356237309e+004,-1.62606339854693e+001,-1.60999467505327e-001

1.43395524801583e+004,-1.62606350152037e+001,-1.63246828689630e-001

1.45397251732031e+004,-1.62606360738713e+001,-1.65525557297395e-001

1.47426921729110e+004,-1.62606371622840e+001,-1.67836091011014e-001

1.49484924863494e+004,-1.62606382812778e+001,-1.70178873607600e-001

1.51571656651040e+004,-1.62606394317111e+001,-1.72554355054844e-001

1.53687518128801e+004,-1.62606406144666e+001,-1.74962991593661e-001

1.55832915932100e+004,-1.62606418304518e+001,-1.77405245821279e-001

1.58008262372675e+004,-1.62606430805998e+001,-1.79881586785790e-001

1.60213975517924e+004,-1.62606443658695e+001,-1.82392490071125e-001

1.62450479271247e+004,-1.62606456872473e+001,-1.84938437889120e-001

1.64718203453514e+004,-1.62606470457464e+001,-1.87519919173824e-001

1.67017583885674e+004,-1.62606484424091e+001,-1.90137429672947e-001

1.69349062472505e+004,-1.62606498783067e+001,-1.92791472040697e-001

1.71713087287550e+004,-1.62606513545402e+001,-1.95482555937596e-001

1.74110112659224e+004,-1.62606528722421e+001,-1.98211198124573e-001

1.76540599258131e+004,-1.62606544325762e+001,-2.00977922562845e-001

1.79005014185594e+004,-1.62606560367389e+001,-2.03783260515237e-001

1.81503831063432e+004,-1.62606576859601e+001,-2.06627750644346e-001

1.84037530124975e+004,-1.62606593815046e+001,-2.09511939116667e-001

1.86606598307361e+004,-1.62606611246720e+001,-2.12436379708931e-001

1.89211529345119e+004,-1.62606629167986e+001,-2.15401633909937e-001

1.91852823865052e+004,-1.62606647592582e+001,-2.18408271029488e-001

1.94530989482457e+004,-1.62606666534630e+001,-2.21456868307210e-001

1.97246540898671e+004,-1.62606686008645e+001,-2.24548011022000e-001

1.99999999999999e+004,-1.62606706029553e+001,-2.27682292601684e-001

2.02791895958005e+004,-1.62606726612695e+001,-2.30860314738445e-001

2.05622765331213e+004,-1.62606747773841e+001,-2.34082687503497e-001

2.08493152168224e+004,-1.62606769529200e+001,-2.37350029461967e-001

2.11403608112276e+004,-1.62606791895443e+001,-2.40662967787714e-001

2.14354692507258e+004,-1.62606814889697e+001,-2.44022138389714e-001

2.17346972505211e+004,-1.62606838529576e+001,-2.47428186025429e-001

2.20381023175322e+004,-1.62606862833183e+001,-2.50881764427642e-001

2.23457427614443e+004,-1.62606887819127e+001,-2.54383536428260e-001

2.26576777059159e+004,-1.62606913506537e+001,-2.57934174083329e-001

2.29739670999406e+004,-1.62606939915081e+001,-2.61534358798859e-001

2.32946717293690e+004,-1.62606967064972e+001,-2.65184781464372e-001

2.36198532285905e+004,-1.62606994976988e+001,-2.68886142580961e-001

2.39495740923785e+004,-1.62607023672493e+001,-2.72639152392764e-001

2.42838976879009e+004,-1.62607053173440e+001,-2.76444531026827e-001

2.46228882668982e+004,-1.62607083502402e+001,-2.80303008622848e-001

2.49666109780322e+004,-1.62607114682578e+001,-2.84215325477375e-001

2.53151318794055e+004,-1.62607146737818e+001,-2.88182232179496e-001

2.56685179512580e+004,-1.62607179692634e+001,-2.92204489757251e-001

2.60268371088386e+004,-1.62607213572226e+001,-2.96282869815701e-001

2.63901582154578e+004,-1.62607248402496e+001,-3.00418154689120e-001

2.67585510957221e+004,-1.62607284210067e+001,-3.04611137584717e-001

2.71320865489533e+004,-1.62607321022308e+001,-3.08862622733111e-001

2.75108363627948e+004,-1.62607358867346e+001,-3.13173425541858e-001

2.78948733270080e+004,-1.62607397774098e+001,-3.17544372747690e-001

2.82842712474618e+004,-1.62607437772284e+001,-3.21976302572434e-001

2.86791049603164e+004,-1.62607478892451e+001,-3.26470064882312e-001

2.90794503464061e+004,-1.62607521166001e+001,-3.31026521346388e-001

2.94853843458219e+004,-1.62607564625207e+001,-3.35646545600121e-001

2.98969849726987e+004,-1.62607609303244e+001,-3.40331023408966e-001

3.03143313302078e+004,-1.62607655234208e+001,-3.45080852835832e-001

3.07375036257601e+004,-1.62607702453142e+001,-3.49896944409406e-001

3.11665831864199e+004,-1.62607750996070e+001,-3.54780221294498e-001

3.16016524745350e+004,-1.62607800900014e+001,-3.59731619465768e-001

3.20427951035848e+004,-1.62607852203026e+001,-3.64752087884166e-001

3.24900958542493e+004,-1.62607904944216e+001,-3.69842588674289e-001

3.29436406907028e+004,-1.62607959163781e+001,-3.75004097303811e-001

3.34035167771346e+004,-1.62608014903034e+001,-3.80237602768064e-001

3.38698124945009e+004,-1.62608072204437e+001,-3.85544107772686e-001

3.43426174575100e+004,-1.62608131111630e+001,-3.90924628921259e-001

3.48220225318448e+004,-1.62608191669461e+001,-3.96380196909432e-001

3.53081198516260e+004,-1.62608253924028e+001,-4.01911856710102e-001

3.58010028371187e+004,-1.62608317922703e+001,-4.07520667775347e-001

3.63007662126863e+004,-1.62608383714172e+001,-4.13207704228185e-001

3.68075060249948e+004,-1.62608451348472e+001,-4.18974055066879e-001

3.73213196614721e+004,-1.62608520877024e+001,-4.24820824363941e-001

3.78423058690237e+004,-1.62608592352672e+001,-4.30749131474772e-001

3.83705647730104e+004,-1.62608665829726e+001,-4.36760111241965e-001

3.89061978964912e+004,-1.62608741363992e+001,-4.42854914209843e-001

3.94493081797342e+004,-1.62608819012826e+001,-4.49034706832138e-001

3.99999999999998e+004,-1.62608898835165e+001,-4.55300671693851e-001

4.05583791916010e+004,-1.62608980891574e+001,-4.61654007726834e-001

4.11245530662425e+004,-1.62609065244292e+001,-4.68095930429684e-001

4.16986304336447e+004,-1.62609151957275e+001,-4.74627672096228e-001

4.22807216224550e+004,-1.62609241096242e+001,-4.81250482039387e-001

4.28709385014515e+004,-1.62609332728723e+001,-4.87965626822715e-001

4.34693945010421e+004,-1.62609426924110e+001,-4.94774390491783e-001

4.40762046350642e+004,-1.62609523753704e+001,-5.01678074812548e-001

4.46914855228886e+004,-1.62609623290771e+001,-5.08677999506419e-001

4.53153554118317e+004,-1.62609725610588e+001,-5.15775502495997e-001

4.59479341998812e+004,-1.62609830790505e+001,-5.22971940147045e-001

4.65893434587380e+004,-1.62609938909991e+001,-5.30268687517386e-001

4.72397064571810e+004,-1.62610050050702e+001,-5.37667138607652e-001

4.78991481847569e+004,-1.62610164296529e+001,-5.45168706615008e-001

4.85677953758016e+004,-1.62610281733667e+001,-5.52774824190212e-001

4.92457765337964e+004,-1.62610402450666e+001,-5.60486943699036e-001

4.99332219560642e+004,-1.62610526538506e+001,-5.68306537482529e-001

5.06302637588109e+004,-1.62610654090651e+001,-5.76235098126834e-001

5.13370359025159e+004,-1.62610785203119e+001,-5.84274138732545e-001

5.20536742176771e+004,-1.62610919974551e+001,-5.92425193185353e-001

5.27803164309155e+004,-1.62611058506280e+001,-6.00689816434229e-001

5.35171021914442e+004,-1.62611200902400e+001,-6.09069584771399e-001

5.42641730979066e+004,-1.62611347269838e+001,-6.17566096114364e-001

5.50216727255895e+004,-1.62611497718435e+001,-6.26180970291595e-001

5.57897466540159e+004,-1.62611652361012e+001,-6.34915849333922e-001

5.65685424949235e+004,-1.62611811313461e+001,-6.43772397765586e-001

5.73582099206328e+004,-1.62611974694813e+001,-6.52752302901767e-001

5.81589006928121e+004,-1.62612142627325e+001,-6.61857275149156e-001

5.89707686916437e+004,-1.62612315236569e+001,-6.71089048306780e-001

5.97939699453972e+004,-1.62612492651507e+001,-6.80449379875722e-001

6.06286626604156e+004,-1.62612675004590e+001,-6.89940051366645e-001

6.14750072515201e+004,-1.62612862431840e+001,-6.99562868616020e-001

6.23331663728396e+004,-1.62613055072947e+001,-7.09319662100786e-001

6.32033049490698e+004,-1.62613253071361e+001,-7.19212287262230e-001

6.40855902071694e+004,-1.62613456574388e+001,-7.29242624827551e-001

6.49801917084985e+004,-1.62613665733290e+001,-7.39412581139705e-001

6.58872813814055e+004,-1.62613880703387e+001,-7.49724088487486e-001

6.68070335542691e+004,-1.62614101644156e+001,-7.60179105442396e-001

6.77396249890018e+004,-1.62614328719340e+001,-7.70779617195026e-001

6.86852349150199e+004,-1.62614562097054e+001,-7.81527635900707e-001

6.96440450636895e+004,-1.62614801949898e+001,-7.92425201021806e-001

7.06162397032520e+004,-1.62615048455064e+001,-8.03474379680176e-001

7.16020056742374e+004,-1.62615301794455e+001,-8.14677267009205e-001

7.26015324253724e+004,-1.62615562154804e+001,-8.26035986511130e-001

7.36150120499896e+004,-1.62615829727786e+001,-8.37552690417996e-001

7.46426393229441e+004,-1.62616104710153e+001,-8.49229560053834e-001

7.56846117380472e+004,-1.62616387303844e+001,-8.61068806206034e-001

7.67411295460207e+004,-1.62616677716124e+001,-8.73072669494635e-001

7.78123957929823e+004,-1.62616976159709e+001,-8.85243420747361e-001

7.88986163594682e+004,-1.62617282852901e+001,-8.97583361379775e-001

7.99999999999995e+004,-1.62617598019719e+001,-9.10094823777418e-001

8.11167583832018e+004,-1.62617921890040e+001,-9.22780171682091e-001

8.22491061324848e+004,-1.62618254699740e+001,-9.35641800581316e-001

8.33972608672892e+004,-1.62618596690835e+001,-9.48682138102086e-001

8.45614432449099e+004,-1.62618948111629e+001,-9.61903644407860e-001

8.57418770029029e+004,-1.62619309216857e+001,-9.75308812600664e-001

8.69387890020841e+004,-1.62619680267844e+001,-9.88900169122346e-001

8.81524092701283e+004,-1.62620061532654e+001,-1.00268027416620e+000

8.93829710457770e+004,-1.62620453286244e+001,-1.01665172208528e+000

9.06307108236633e+004,-1.62620855810629e+001,-1.03081714181011e+000

9.18958683997622e+004,-1.62621269395037e+001,-1.04517919726483e+000

9.31786869174758e+004,-1.62621694336080e+001,-1.05974058779078e+000

9.44794129143618e+004,-1.62622130937914e+001,-1.07450404857155e+000

9.57982963695136e+004,-1.62622579512410e+001,-1.08947235106217e+000

9.71355907516031e+004,-1.62623040379330e+001,-1.10464830342137e+000

9.84915530675926e+004,-1.62623513866497e+001,-1.12003475094672e+000

9.98664439121282e+004,-1.62624000309968e+001,-1.13563457651492e+000

1.01260527517622e+005,-1.62624500054222e+001,-1.15145070102395e+000

1.02674071805032e+005,-1.62625013452331e+001,-1.16748608383794e+000

1.04107348435354e+005,-1.62625540866153e+001,-1.18374372323728e+000

1.05560632861831e+005,-1.62626082666508e+001,-1.20022665686948e+000

1.07034204382888e+005,-1.62626639233371e+001,-1.21693796220658e+000

1.08528346195813e+005,-1.62627210956060e+001,-1.23388075700143e+000

1.10043345451179e+005,-1.62627798233427e+001,-1.25105819975082e+000

1.11579493308032e+005,-1.62628401474049e+001,-1.26847349015901e+000

1.13137084989847e+005,-1.62629021096424e+001,-1.28612986960708e+000

1.14716419841265e+005,-1.62629657529168e+001,-1.30403062162046e+000

1.16317801385624e+005,-1.62630311211208e+001,-1.32217907234550e+000

1.17941537383287e+005,-1.62630982591980e+001,-1.34057859102462e+000

1.19587939890794e+005,-1.62631672131634e+001,-1.35923259047446e+000

1.21257325320831e+005,-1.62632380301226e+001,-1.37814452756964e+000

1.22950014503040e+005,-1.62633107582922e+001,-1.39731790372580e+000

1.24666332745679e+005,-1.62633854470198e+001,-1.41675626538781e+000

1.26406609898139e+005,-1.62634621468040e+001,-1.43646320451896e+000

1.28171180414339e+005,-1.62635409093143e+001,-1.45644235909423e+000

1.29960383416997e+005,-1.62636217874111e+001,-1.47669741359479e+000

1.31774562762811e+005,-1.62637048351657e+001,-1.49723209950613e+000

1.33614067108538e+005,-1.62637901078800e+001,-1.51805019581735e+000

1.35479249978003e+005,-1.62638776621061e+001,-1.53915552952392e+000

1.37370469830040e+005,-1.62639675556657e+001,-1.56055197613299e+000

1.39288090127379e+005,-1.62640598476694e+001,-1.58224346016984e+000

1.41232479406504e+005,-1.62641545985358e+001,-1.60423395568794e+000

1.43204011348474e+005,-1.62642518700098e+001,-1.62652748678156e+000

1.45203064850745e+005,-1.62643517251817e+001,-1.64912812809872e+000

1.47230024099979e+005,-1.62644542285041e+001,-1.67204000535883e+000

1.49285278645888e+005,-1.62645594458105e+001,-1.69526729587105e+000

1.51369223476094e+005,-1.62646674443316e+001,-1.71881422905638e+000

1.53482259092041e+005,-1.62647782927124e+001,-1.74268508697104e+000

1.55624791585964e+005,-1.62648920610275e+001,-1.76688420483276e+000

1.57797232718936e+005,-1.62650088207969e+001,-1.79141597154949e+000

1.59999999999999e+005,-1.62651286450005e+001,-1.81628483025006e+000

1.62233516766403e+005,-1.62652516080918e+001,-1.84149527881932e+000

1.64498212264969e+005,-1.62653777860109e+001,-1.86705187043315e+000

1.66794521734578e+005,-1.62655072561965e+001,-1.89295921409953e+000

1.69122886489819e+005,-1.62656400975974e+001,-1.91922197519934e+000

1.71483754005805e+005,-1.62657763906818e+001,-1.94584487603308e+000

1.73877578004168e+005,-1.62659162174470e+001,-1.97283269636904e+000

1.76304818540256e+005,-1.62660596614266e+001,-2.00019027399544e+000

1.78765942091554e+005,-1.62662068076973e+001,-2.02792250527673e+000

1.81261421647326e+005,-1.62663577428837e+001,-2.05603434571272e+000

1.83791736799524e+005,-1.62665125551617e+001,-2.08453081050407e+000

1.86357373834951e+005,-1.62666713342614e+001,-2.11341697511838e+000

1.88958825828723e+005,-1.62668341714662e+001,-2.14269797586675e+000

1.91596592739027e+005,-1.62670011596128e+001,-2.17237901047936e+000

1.94271181503206e+005,-1.62671723930872e+001,-2.20246533869145e+000

1.96983106135185e+005,-1.62673479678196e+001,-2.23296228283317e+000

1.99732887824256e+005,-1.62675279812778e+001,-2.26387522842599e+000

2.02521055035243e+005,-1.62677125324575e+001,-2.29520962478680e+000

2.05348143610063e+005,-1.62679017218707e+001,-2.32697098563909e+000

2.08214696870707e+005,-1.62680956515323e+001,-2.35916488973289e+000

2.11121265723661e+005,-1.62682944249432e+001,-2.39179698147352e+000

2.14068408765776e+005,-1.62684981470718e+001,-2.42487297155874e+000

2.17056692391625e+005,-1.62687069243322e+001,-2.45839863762877e+000

2.20086690902357e+005,-1.62689208645602e+001,-2.49237982492439e+000

2.23158986616063e+005,-1.62691400769854e+001,-2.52682244696029e+000

2.26274169979693e+005,-1.62693646722017e+001,-2.56173248620875e+000

2.29432839682530e+005,-1.62695947621334e+001,-2.59711599479970e+000

2.32635602771247e+005,-1.62698304599987e+001,-2.63297909523352e+000

2.35883074766574e+005,-1.62700718802704e+001,-2.66932798111170e+000

2.39175879781588e+005,-1.62703191386315e+001,-2.70616891788534e+000

2.42514650641661e+005,-1.62705723519295e+001,-2.74350824362018e+000

2.45900029006080e+005,-1.62708316381250e+001,-2.78135236978433e+000

2.49332665491357e+005,-1.62710971162385e+001,-2.81970778205558e+000

2.52813219796278e+005,-1.62713689062917e+001,-2.85858104115252e+000

2.56342360828676e+005,-1.62716471292463e+001,-2.89797878368995e+000

2.59920766833993e+005,-1.62719319069376e+001,-2.93790772306115e+000

2.63549125525621e+005,-1.62722233620056e+001,-2.97837465034713e+000

2.67228134217075e+005,-1.62725216178208e+001,-3.01938643525633e+000

2.70958499956006e+005,-1.62728267984064e+001,-3.06095002709514e+000

2.74740939660078e+005,-1.62731390283564e+001,-3.10307245577377e+000

2.78576180254757e+005,-1.62734584327493e+001,-3.14576083284492e+000

2.82464958813007e+005,-1.62737851370581e+001,-3.18902235258357e+000

2.86408022696948e+005,-1.62741192670555e+001,-3.23286429310327e+000

2.90406129701488e+005,-1.62744609487158e+001,-3.27729401751723e+000

2.94460048199957e+005,-1.62748103081113e+001,-3.32231897514311e+000

2.98570557291775e+005,-1.62751674713068e+001,-3.36794670275325e+000

3.02738446952187e+005,-1.62755325642476e+001,-3.41418482587658e+000

3.06964518184081e+005,-1.62759057126459e+001,-3.46104106015073e+000

3.11249583171928e+005,-1.62762870418614e+001,-3.50852321272918e+000

3.15594465437872e+005,-1.62766766767800e+001,-3.55663918374466e+000

3.19999999999997e+005,-1.62770747416875e+001,-3.60539696783329e+000

3.24467033532806e+005,-1.62774813601414e+001,-3.65480465571946e+000

3.28996424529938e+005,-1.62778966548378e+001,-3.70487043586765e+000

3.33589043469155e+005,-1.62783207474774e+001,-3.75560259619939e+000

3.38245772979638e+005,-1.62787537586272e+001,-3.80700952588290e+000

3.42967508011610e+005,-1.62791958075806e+001,-3.85909971719388e+000

3.47755156008335e+005,-1.62796470122154e+001,-3.91188176745355e+000

3.52609637080511e+005,-1.62801074888501e+001,-3.96536438104337e+000

3.57531884183106e+005,-1.62805773520979e+001,-4.01955637150285e+000

3.62522843294651e+005,-1.62810567147216e+001,-4.07446666370816e+000

3.67583473599047e+005,-1.62815456874865e+001,-4.13010429613863e+000

3.72714747669902e+005,-1.62820443790131e+001,-4.18647842323113e+000

3.77917651657445e+005,-1.62825528956314e+001,-4.24359831782472e+000

3.83193185478053e+005,-1.62830713412353e+001,-4.30147337369784e+000

3.88542363006410e+005,-1.62835998171384e+001,-4.36011310820085e+000

3.93966212270369e+005,-1.62841384219324e+001,-4.41952716498507e+000

3.99465775648511e+005,-1.62846872513479e+001,-4.47972531682927e+000

4.05042110070485e+005,-1.62852463981180e+001,-4.54071746856795e+000

4.10696287220124e+005,-1.62858159518470e+001,-4.60251366011798e+000

4.16429393741414e+005,-1.62863959988830e+001,-4.66512406961010e+000

4.22242531447321e+005,-1.62869866221957e+001,-4.72855901662187e+000

4.28136817531551e+005,-1.62875879012612e+001,-4.79282896551526e+000

4.34113384783250e+005,-1.62881999119524e+001,-4.85794452887714e+000

4.40173381804713e+005,-1.62888227264388e+001,-4.92391647106417e+000

4.46317973232124e+005,-1.62894564130929e+001,-4.99075571185286e+000

4.52548339959385e+005,-1.62901010364069e+001,-5.05847333019041e+000

4.58865679365059e+005,-1.62907566569198e+001,-5.12708056804829e+000

4.65271205542494e+005,-1.62914233311543e+001,-5.19658883437905e+000

4.71766149533147e+005,-1.62921011115659e+001,-5.26700970916861e+000

4.78351759563174e+005,-1.62927900465054e+001,-5.33835494758919e+000

4.85029301283321e+005,-1.62934901801930e+001,-5.41063648424481e+000

4.91800058012158e+005,-1.62942015527082e+001,-5.48386643751054e+000

4.98665330982714e+005,-1.62949241999935e+001,-5.55805711395977e+000

5.05626439592555e+005,-1.62956581538748e+001,-5.63322101287708e+000

5.12684721657352e+005,-1.62964034420970e+001,-5.70937083085391e+000

5.19841533667984e+005,-1.62971600883782e+001,-5.78651946645978e+000

5.27098251051240e+005,-1.62979281124807e+001,-5.86468002498795e+000

5.34456268434150e+005,-1.62987075303010e+001,-5.94386582326758e+000

5.41916999912011e+005,-1.62994983539789e+001,-6.02409039453958e+000

