Freq.,VOut,OutRef

1.00000000000000e+004,-1.79488103223020e+001,-2.10689578071577e-001

1.01395947979003e+004,-1.79488110571189e+001,-2.13630659188479e-001

1.02811382665607e+004,-1.79488118125905e+001,-2.16612794749474e-001

1.04246576084112e+004,-1.79488125892976e+001,-2.19636557786109e-001

1.05701804056138e+004,-1.79488133878367e+001,-2.22702529331622e-001

1.07177346253629e+004,-1.79488142088214e+001,-2.25811298523654e-001

1.08673486252606e+004,-1.79488150528827e+001,-2.28963462721195e-001

1.10190511587661e+004,-1.79488159206688e+001,-2.32159627621181e-001

1.11728713807222e+004,-1.79488168128466e+001,-2.35400407370377e-001

1.13288388529580e+004,-1.79488177301015e+001,-2.38686424685927e-001

1.14869835499703e+004,-1.79488186731383e+001,-2.42018310974757e-001

1.16473358646846e+004,-1.79488196426814e+001,-2.45396706454032e-001

1.18099266142953e+004,-1.79488206394757e+001,-2.48822260273442e-001

1.19747870461893e+004,-1.79488216642869e+001,-2.52295630642167e-001

1.21419488439505e+004,-1.79488227179023e+001,-2.55817484951757e-001

1.23114441334492e+004,-1.79488238011314e+001,-2.59388499907178e-001

1.24833054890161e+004,-1.79488249148062e+001,-2.63009361653450e-001

1.26575659397028e+004,-1.79488260597823e+001,-2.66680765911589e-001

1.28342589756290e+004,-1.79488272369389e+001,-2.70403418108945e-001

1.30134185544193e+004,-1.79488284471807e+001,-2.74178033513027e-001

1.31950791077289e+004,-1.79488296914371e+001,-2.78005337373246e-001

1.33792755478611e+004,-1.79488309706636e+001,-2.81886065057234e-001

1.35660432744767e+004,-1.79488322858430e+001,-2.85820962191435e-001

1.37554181813974e+004,-1.79488336379853e+001,-2.89810784804523e-001

1.39474366635040e+004,-1.79488350281292e+001,-2.93856299473352e-001

1.41421356237309e+004,-1.79488364573422e+001,-2.97958283469689e-001

1.43395524801583e+004,-1.79488379267219e+001,-3.02117524908215e-001

1.45397251732031e+004,-1.79488394373969e+001,-3.06334822897162e-001

1.47426921729110e+004,-1.79488409905271e+001,-3.10610987694972e-001

1.49484924863494e+004,-1.79488425873055e+001,-3.14946840859756e-001

1.51571656651040e+004,-1.79488442289580e+001,-3.19343215413967e-001

1.53687518128801e+004,-1.79488459167454e+001,-3.23800955997222e-001

1.55832915932100e+004,-1.79488476519636e+001,-3.28320919031758e-001

1.58008262372675e+004,-1.79488494359448e+001,-3.32903972887490e-001

1.60213975517924e+004,-1.79488512700590e+001,-3.37550998044170e-001

1.62450479271247e+004,-1.79488531557143e+001,-3.42262887264932e-001

1.64718203453514e+004,-1.79488550943585e+001,-3.47040545763810e-001

1.67017583885674e+004,-1.79488570874797e+001,-3.51884891381400e-001

1.69349062472505e+004,-1.79488591366083e+001,-3.56796854758238e-001

1.71713087287550e+004,-1.79488612433172e+001,-3.61777379515583e-001

1.74110112659224e+004,-1.79488634092235e+001,-3.66827422434413e-001

1.76540599258131e+004,-1.79488656359899e+001,-3.71947953639437e-001

1.79005014185594e+004,-1.79488679253255e+001,-3.77139956784664e-001

1.81503831063432e+004,-1.79488702789874e+001,-3.82404429241295e-001

1.84037530124975e+004,-1.79488726987822e+001,-3.87742382288409e-001

1.86606598307361e+004,-1.79488751865668e+001,-3.93154841308155e-001

1.89211529345119e+004,-1.79488777442506e+001,-3.98642845978990e-001

1.91852823865052e+004,-1.79488803737961e+001,-4.04207450479245e-001

1.94530989482457e+004,-1.79488830772212e+001,-4.09849723683753e-001

1.97246540898671e+004,-1.79488858566003e+001,-4.15570749370773e-001

1.99999999999999e+004,-1.79488887140659e+001,-4.21371626430344e-001

2.02791895958005e+004,-1.79488916518103e+001,-4.27253469071268e-001

2.05622765331213e+004,-1.79488946720873e+001,-4.33217407038250e-001

2.08493152168224e+004,-1.79488977772137e+001,-4.39264585824484e-001

2.11403608112276e+004,-1.79489009695717e+001,-4.45396166891010e-001

2.14354692507258e+004,-1.79489042516099e+001,-4.51613327891011e-001

2.17346972505211e+004,-1.79489076258455e+001,-4.57917262893133e-001

2.20381023175322e+004,-1.79489110948663e+001,-4.64309182609745e-001

2.23457427614443e+004,-1.79489146613329e+001,-4.70790314627622e-001

2.26576777059159e+004,-1.79489183279800e+001,-4.77361903644389e-001

2.29739670999406e+004,-1.79489220976193e+001,-4.84025211704619e-001

2.32946717293690e+004,-1.79489259731410e+001,-4.90781518440625e-001

2.36198532285905e+004,-1.79489299575164e+001,-4.97632121318066e-001

2.39495740923785e+004,-1.79489340538000e+001,-5.04578335883065e-001

2.42838976879009e+004,-1.79489382651318e+001,-5.11621496011937e-001

2.46228882668982e+004,-1.79489425947397e+001,-5.18762954168453e-001

2.49666109780322e+004,-1.79489470459420e+001,-5.26004081659226e-001

2.53151318794055e+004,-1.79489516221502e+001,-5.33346268895644e-001

2.56685179512580e+004,-1.79489563268707e+001,-5.40790925660943e-001

2.60268371088386e+004,-1.79489611637086e+001,-5.48339481376910e-001

2.63901582154578e+004,-1.79489661363696e+001,-5.55993385377098e-001

2.67585510957221e+004,-1.79489712486632e+001,-5.63754107183090e-001

2.71320865489533e+004,-1.79489765045053e+001,-5.71623136784151e-001

2.75108363627948e+004,-1.79489819079217e+001,-5.79601984920736e-001

2.78948733270080e+004,-1.79489874630503e+001,-5.87692183374191e-001

2.82842712474618e+004,-1.79489931741455e+001,-5.95895285253622e-001

2.86791049603164e+004,-1.79489990455797e+001,-6.04212865298414e-001

2.90794503464061e+004,-1.79490050818482e+001,-6.12646520171275e-001

2.94853843458219e+004,-1.79490112875719e+001,-6.21197868765622e-001

2.98969849726987e+004,-1.79490176675006e+001,-6.29868552511856e-001

3.03143313302078e+004,-1.79490242265172e+001,-6.38660235690682e-001

3.07375036257601e+004,-1.79490309696407e+001,-6.47574605748264e-001

3.11665831864199e+004,-1.79490379020304e+001,-6.56613373617873e-001

3.16016524745350e+004,-1.79490450289896e+001,-6.65778274043686e-001

3.20427951035848e+004,-1.79490523559701e+001,-6.75071065910590e-001

3.24900958542493e+004,-1.79490598885756e+001,-6.84493532577020e-001

3.29436406907028e+004,-1.79490676325661e+001,-6.94047482216908e-001

3.34035167771346e+004,-1.79490755938626e+001,-7.03734748158034e-001

3.38698124945009e+004,-1.79490837785514e+001,-7.13557189231924e-001

3.43426174575100e+004,-1.79490921928882e+001,-7.23516690126241e-001

3.48220225318448e+004,-1.79491008433036e+001,-7.33615161740729e-001

3.53081198516260e+004,-1.79491097364074e+001,-7.43854541550309e-001

3.58010028371187e+004,-1.79491188789934e+001,-7.54236793971984e-001

3.63007662126863e+004,-1.79491282780451e+001,-7.64763910733770e-001

3.68075060249948e+004,-1.79491379407405e+001,-7.75437911255121e-001

3.73213196614721e+004,-1.79491478744576e+001,-7.86260843026799e-001

3.78423058690237e+004,-1.79491580867797e+001,-7.97234781996947e-001

3.83705647730104e+004,-1.79491685855015e+001,-8.08361832965015e-001

3.89061978964912e+004,-1.79491793786346e+001,-8.19644129978418e-001

3.94493081797342e+004,-1.79491904744135e+001,-8.31083836733952e-001

3.99999999999998e+004,-1.79492018813018e+001,-8.42683146988991e-001

4.05583791916010e+004,-1.79492136079985e+001,-8.54444284970499e-001

4.11245530662425e+004,-1.79492256634446e+001,-8.66369505798826e-001

4.16986304336447e+004,-1.79492380568294e+001,-8.78461095908047e-001

4.22807216224550e+004,-1.79492507975977e+001,-8.90721373479333e-001

4.28709385014515e+004,-1.79492638954568e+001,-9.03152688875345e-001

4.34693945010421e+004,-1.79492773603832e+001,-9.15757425082582e-001

4.40762046350642e+004,-1.79492912026305e+001,-9.28537998159567e-001

4.46914855228886e+004,-1.79493054327369e+001,-9.41496857688934e-001

4.53153554118317e+004,-1.79493200615328e+001,-9.54636487237678e-001

4.59479341998812e+004,-1.79493351001491e+001,-9.67959404823695e-001

4.65893434587380e+004,-1.79493505600251e+001,-9.81468163385943e-001

4.72397064571810e+004,-1.79493664529169e+001,-9.95165351264131e-001

4.78991481847569e+004,-1.79493827909064e+001,-1.00905359268173e+000

4.85677953758016e+004,-1.79493995864100e+001,-1.02313554823636e+000

4.92457765337964e+004,-1.79494168521874e+001,-1.03741391539886e+000

4.99332219560642e+004,-1.79494346013515e+001,-1.05189142901395e+000

5.06302637588109e+004,-1.79494528473777e+001,-1.06657086181316e+000

5.13370359025159e+004,-1.79494716041136e+001,-1.08145502492873e+000

5.20536742176771e+004,-1.79494908857895e+001,-1.09654676842000e+000

5.27803164309155e+004,-1.79495107070283e+001,-1.11184898180194e+000

5.35171021914442e+004,-1.79495310828567e+001,-1.12736459458199e+000

5.42641730979066e+004,-1.79495520287154e+001,-1.14309657680574e+000

5.50216727255895e+004,-1.79495735604711e+001,-1.15904793960652e+000

5.57897466540159e+004,-1.79495956944273e+001,-1.17522173576430e+000

5.65685424949235e+004,-1.79496184473366e+001,-1.19162106027116e+000

5.73582099206328e+004,-1.79496418364123e+001,-1.20824905090335e+000

5.81589006928121e+004,-1.79496658793413e+001,-1.22510888880186e+000

5.89707686916437e+004,-1.79496905942964e+001,-1.24220379905967e+000

5.97939699453972e+004,-1.79497159999497e+001,-1.25953705131534e+000

6.06286626604156e+004,-1.79497421154854e+001,-1.27711196035792e+000

6.14750072515201e+004,-1.79497689606144e+001,-1.29493188673400e+000

6.23331663728396e+004,-1.79497965555876e+001,-1.31300023736742e+000

6.32033049490698e+004,-1.79498249212106e+001,-1.33132046618402e+000

6.40855902071694e+004,-1.79498540788582e+001,-1.34989607474513e+000

6.49801917084985e+004,-1.79498840504903e+001,-1.36873061288817e+000

6.58872813814055e+004,-1.79499148586665e+001,-1.38782767937713e+000

6.68070335542691e+004,-1.79499465265625e+001,-1.40719092255885e+000

6.77396249890018e+004,-1.79499790779865e+001,-1.42682404102901e+000

6.86852349150199e+004,-1.79500125373954e+001,-1.44673078430579e+000

6.96440450636895e+004,-1.79500469299127e+001,-1.46691495351121e+000

7.06162397032520e+004,-1.79500822813452e+001,-1.48738040206351e+000

7.16020056742374e+004,-1.79501186182015e+001,-1.50813103637331e+000

7.26015324253724e+004,-1.79501559677102e+001,-1.52917081655336e+000

7.36150120499896e+004,-1.79501943578389e+001,-1.55050375713328e+000

7.46426393229441e+004,-1.79502338173134e+001,-1.57213392778470e+000

7.56846117380472e+004,-1.79502743756372e+001,-1.59406545405518e+000

7.67411295460207e+004,-1.79503160631124e+001,-1.61630251810892e+000

7.78123957929823e+004,-1.79503589108597e+001,-1.63884935948046e+000

7.88986163594682e+004,-1.79504029508399e+001,-1.66171027583205e+000

7.99999999999995e+004,-1.79504482158757e+001,-1.68488962372516e+000

8.11167583832018e+004,-1.79504947396740e+001,-1.70839181939794e+000

8.22491061324848e+004,-1.79505425568479e+001,-1.73222133955226e+000

8.33972608672892e+004,-1.79505917029410e+001,-1.75638272215105e+000

8.45614432449099e+004,-1.79506422144503e+001,-1.78088056722483e+000

8.57418770029029e+004,-1.79506941288511e+001,-1.80571953768579e+000

8.69387890020841e+004,-1.79507474846213e+001,-1.83090436015466e+000

8.81524092701283e+004,-1.79508023212673e+001,-1.85643982579353e+000

8.93829710457770e+004,-1.79508586793499e+001,-1.88233079115029e+000

9.06307108236633e+004,-1.79509166005108e+001,-1.90858217901340e+000

9.18958683997622e+004,-1.79509761274994e+001,-1.93519897927398e+000

9.31786869174758e+004,-1.79510373042014e+001,-1.96218624980001e+000

9.44794129143618e+004,-1.79511001756660e+001,-1.98954911731864e+000

9.57982963695136e+004,-1.79511647881359e+001,-2.01729277830975e+000

9.71355907516031e+004,-1.79512311890761e+001,-2.04542249990872e+000

9.84915530675926e+004,-1.79512994272045e+001,-2.07394362081938e+000

9.98664439121282e+004,-1.79513695525225e+001,-2.10286155223679e+000

1.01260527517622e+005,-1.79514416163465e+001,-2.13218177878142e+000

1.02674071805032e+005,-1.79515156713400e+001,-2.16190985944153e+000

1.04107348435354e+005,-1.79515917715461e+001,-2.19205142852700e+000

1.05560632861831e+005,-1.79516699724211e+001,-2.22261219663404e+000

1.07034204382888e+005,-1.79517503308686e+001,-2.25359795161862e+000

1.08528346195813e+005,-1.79518329052739e+001,-2.28501455958244e+000

1.10043345451179e+005,-1.79519177555395e+001,-2.31686796586687e+000

1.11579493308032e+005,-1.79520049431211e+001,-2.34916419605976e+000

1.13137084989847e+005,-1.79520945310644e+001,-2.38190935701128e+000

1.14716419841265e+005,-1.79521865840421e+001,-2.41510963786166e+000

1.16317801385624e+005,-1.79522811683925e+001,-2.44877131107825e+000

1.17941537383287e+005,-1.79523783521575e+001,-2.48290073350461e+000

1.19587939890794e+005,-1.79524782051228e+001,-2.51750434741890e+000

1.21257325320831e+005,-1.79525807988572e+001,-2.55258868160564e+000

1.22950014503040e+005,-1.79526862067538e+001,-2.58816035243571e+000

1.24666332745679e+005,-1.79527945040713e+001,-2.62422606495869e+000

1.26406609898139e+005,-1.79529057679761e+001,-2.66079261400595e+000

1.28171180414339e+005,-1.79530200775847e+001,-2.69786688530561e+000

1.29960383416997e+005,-1.79531375140079e+001,-2.73545585660641e+000

1.31774562762811e+005,-1.79532581603940e+001,-2.77356659881680e+000

1.33614067108538e+005,-1.79533821019740e+001,-2.81220627715053e+000

1.35479249978003e+005,-1.79535094261069e+001,-2.85138215228707e+000

1.37370469830040e+005,-1.79536402223256e+001,-2.89110158154246e+000

1.39288090127379e+005,-1.79537745823832e+001,-2.93137202005186e+000

1.41232479406504e+005,-1.79539126003010e+001,-2.97220102196236e+000

1.43204011348474e+005,-1.79540543724155e+001,-3.01359624163971e+000

1.45203064850745e+005,-1.79541999974272e+001,-3.05556543488553e+000

1.47230024099979e+005,-1.79543495764496e+001,-3.09811646016610e+000

1.49285278645888e+005,-1.79545032130583e+001,-3.14125727985400e+000

1.51369223476094e+005,-1.79546610133415e+001,-3.18499596148176e+000

1.53482259092041e+005,-1.79548230859504e+001,-3.22934067900667e+000

1.55624791585964e+005,-1.79549895421499e+001,-3.27429971409033e+000

1.57797232718936e+005,-1.79551604958706e+001,-3.31988145738712e+000

1.59999999999999e+005,-1.79553360637605e+001,-3.36609440984916e+000

1.62233516766403e+005,-1.79555163652373e+001,-3.41294718404159e+000

1.64498212264969e+005,-1.79557015225412e+001,-3.46044850547157e+000

1.66794521734578e+005,-1.79558916607880e+001,-3.50860721393042e+000

1.69122886489819e+005,-1.79560869080225e+001,-3.55743226484972e+000

1.71483754005805e+005,-1.79562873952724e+001,-3.60693273066985e+000

1.73877578004168e+005,-1.79564932566020e+001,-3.65711780222439e+000

1.76304818540256e+005,-1.79567046291664e+001,-3.70799679013599e+000

1.78765942091554e+005,-1.79569216532663e+001,-3.75957912622851e+000

1.81261421647326e+005,-1.79571444724021e+001,-3.81187436495411e+000

1.83791736799524e+005,-1.79573732333286e+001,-3.86489218483385e+000

1.86357373834951e+005,-1.79576080861101e+001,-3.91864238991529e+000

1.88958825828723e+005,-1.79578491841746e+001,-3.97313491124392e+000

1.91596592739027e+005,-1.79580966843689e+001,-4.02837980835373e+000

1.94271181503206e+005,-1.79583507470131e+001,-4.08438727077099e+000

1.96983106135185e+005,-1.79586115359553e+001,-4.14116761953728e+000

1.99732887824256e+005,-1.79588792186258e+001,-4.19873130874979e+000

2.02521055035243e+005,-1.79591539660914e+001,-4.25708892711920e+000

2.05348143610063e+005,-1.79594359531092e+001,-4.31625119954612e+000

2.08214696870707e+005,-1.79597253581807e+001,-4.37622898871783e+000

2.11121265723661e+005,-1.79600223636045e+001,-4.43703329672329e+000

2.14068408765776e+005,-1.79603271555296e+001,-4.49867526669076e+000

2.17056692391625e+005,-1.79606399240078e+001,-4.56116618444442e+000

2.20086690902357e+005,-1.79609608630457e+001,-4.62451748018555e+000

2.23158986616063e+005,-1.79612901706561e+001,-4.68874073019433e+000

2.26274169979693e+005,-1.79616280489091e+001,-4.75384765855664e+000

2.29432839682530e+005,-1.79619747039823e+001,-4.81985013891610e+000

2.32635602771247e+005,-1.79623303462104e+001,-4.88676019625020e+000

2.35883074766574e+005,-1.79626951901344e+001,-4.95459000867399e+000

2.39175879781588e+005,-1.79630694545496e+001,-5.02335190927228e+000

2.42514650641661e+005,-1.79634533625536e+001,-5.09305838795890e+000

2.45900029006080e+005,-1.79638471415925e+001,-5.16372209336793e+000

2.49332665491357e+005,-1.79642510235076e+001,-5.23535583477507e+000

2.52813219796278e+005,-1.79646652445804e+001,-5.30797258405147e+000

2.56342360828676e+005,-1.79650900455768e+001,-5.38158547765350e+000

2.59920766833993e+005,-1.79655256717913e+001,-5.45620781864501e+000

2.63549125525621e+005,-1.79659723730898e+001,-5.53185307875892e+000

2.67228134217075e+005,-1.79664304039518e+001,-5.60853490049581e+000

2.70958499956006e+005,-1.79669000235117e+001,-5.68626709926381e+000

2.74740939660078e+005,-1.79673814956002e+001,-5.76506366555877e+000

2.78576180254757e+005,-1.79678750887840e+001,-5.84493876718911e+000

2.82464958813007e+005,-1.79683810764058e+001,-5.92590675154492e+000

2.86408022696948e+005,-1.79688997366236e+001,-6.00798214791467e+000

2.90406129701488e+005,-1.79694313524495e+001,-6.09117966985090e+000

2.94460048199957e+005,-1.79699762117881e+001,-6.17551421758592e+000

2.98570557291775e+005,-1.79705346074755e+001,-6.26100088050146e+000

3.02738446952187e+005,-1.79711068373176e+001,-6.34765493965153e+000

3.06964518184081e+005,-1.79716932041287e+001,-6.43549187034443e+000

3.11249583171928e+005,-1.79722940157707e+001,-6.52452734478074e+000

3.15594465437872e+005,-1.79729095851929e+001,-6.61477723475487e+000

3.19999999999997e+005,-1.79735402304722e+001,-6.70625761441788e+000

3.24467033532806e+005,-1.79741862748547e+001,-6.79898476310718e+000

3.28996424529938e+005,-1.79748480467985e+001,-6.89297516824148e+000

3.33589043469155e+005,-1.79755258800185e+001,-6.98824552828701e+000

3.38245772979638e+005,-1.79762201135321e+001,-7.08481275579451e+000

3.42967508011610e+005,-1.79769310917081e+001,-7.18269398050999e+000

3.47755156008335e+005,-1.79776591643183e+001,-7.28190655256052e+000

3.52609637080511e+005,-1.79784046865914e+001,-7.38246804571859e+000

3.57531884183106e+005,-1.79791680192712e+001,-7.48439626074580e+000

3.62522843294651e+005,-1.79799495286783e+001,-7.58770922881687e+000

3.67583473599047e+005,-1.79807495867757e+001,-7.69242521502865e+000

3.72714747669902e+005,-1.79815685712409e+001,-7.79856272199240e+000

3.77917651657445e+005,-1.79824068655418e+001,-7.90614049351306e+000

3.83193185478053e+005,-1.79832648590198e+001,-8.01517751835660e+000

3.88542363006410e+005,-1.79841429469786e+001,-8.12569303410574e+000

3.93966212270369e+005,-1.79850415307814e+001,-8.23770653110634e+000

3.99465775648511e+005,-1.79859610179551e+001,-8.35123775650453e+000

4.05042110070485e+005,-1.79869018223034e+001,-8.46630671837648e+000

4.10696287220124e+005,-1.79878643640295e+001,-8.58293368994915e+000

4.16429393741414e+005,-1.79888490698685e+001,-8.70113921391451e+000

4.22242531447321e+005,-1.79898563732307e+001,-8.82094410683698e+000

4.28136817531551e+005,-1.79908867143569e+001,-8.94236946365202e+000

4.34113384783250e+005,-1.79919405404853e+001,-9.06543666225766e+000

4.40173381804713e+005,-1.79930183060322e+001,-9.19016736819671e+000

4.46317973232124e+005,-1.79941204727865e+001,-9.31658353942943e+000

4.52548339959385e+005,-1.79952475101193e+001,-9.44470743119465e+000

4.58865679365059e+005,-1.79963998952089e+001,-9.57456160095742e+000

4.65271205542494e+005,-1.79975781132824e+001,-9.70616891344228e+000

4.71766149533147e+005,-1.79987826578749e+001,-9.83955254574839e+000

4.78351759563174e+005,-1.80000140311069e+001,-9.97473599254336e+000

4.85029301283321e+005,-1.80012727439809e+001,-1.01117430713354e+001

4.91800058012158e+005,-1.80025593166978e+001,-1.02505979278156e+001

4.98665330982714e+005,-1.80038742789941e+001,-1.03913250412713e+001

5.05626439592555e+005,-1.80052181705014e+001,-1.05339492300616e+001

5.12684721657352e+005,-1.80065915411271e+001,-1.06784956571544e+001

5.19841533667984e+005,-1.80079949514595e+001,-1.08249898357163e+001

5.27098251051240e+005,-1.80094289731960e+001,-1.09734576347519e+001

5.34456268434150e+005,-1.80108941895965e+001,-1.11239252847865e+001

5.41916999912011e+005,-1.80123911959617e+001,-1.12764193835848e+001

