Freq.,VOut,OutRef

1.00000000000000e+004,-1.94226139165953e+001,-1.35186180623706e-001

1.01395947979003e+004,-1.94226143896168e+001,-1.37073282660233e-001

1.02811382665607e+004,-1.94226148759337e+001,-1.38986726525278e-001

1.04246576084112e+004,-1.94226153759200e+001,-1.40926879888496e-001

1.05701804056138e+004,-1.94226158899595e+001,-1.42894115551205e-001

1.07177346253629e+004,-1.94226164184473e+001,-1.44888811514331e-001

1.08673486252606e+004,-1.94226169617894e+001,-1.46911351056069e-001

1.10190511587661e+004,-1.94226175204030e+001,-1.48962122802505e-001

1.11728713807222e+004,-1.94226180947175e+001,-1.51041520798594e-001

1.13288388529580e+004,-1.94226186851740e+001,-1.53149944591086e-001

1.14869835499703e+004,-1.94226192922260e+001,-1.55287799301321e-001

1.16473358646846e+004,-1.94226199163399e+001,-1.57455495701765e-001

1.18099266142953e+004,-1.94226205579950e+001,-1.59653450297389e-001

1.19747870461893e+004,-1.94226212176841e+001,-1.61882085404506e-001

1.21419488439505e+004,-1.94226218959142e+001,-1.64141829228915e-001

1.23114441334492e+004,-1.94226225932060e+001,-1.66433115954261e-001

1.24833054890161e+004,-1.94226233100953e+001,-1.68756385819896e-001

1.26575659397028e+004,-1.94226240471323e+001,-1.71112085208870e-001

1.28342589756290e+004,-1.94226248048834e+001,-1.73500666729194e-001

1.30134185544193e+004,-1.94226255839305e+001,-1.75922589305127e-001

1.31950791077289e+004,-1.94226263848718e+001,-1.78378318263006e-001

1.33792755478611e+004,-1.94226272083225e+001,-1.80868325420433e-001

1.35660432744767e+004,-1.94226280549149e+001,-1.83393089177415e-001

1.37554181813974e+004,-1.94226289252992e+001,-1.85953094606267e-001

1.39474366635040e+004,-1.94226298201433e+001,-1.88548833549928e-001

1.41421356237309e+004,-1.94226307401351e+001,-1.91180804705937e-001

1.43395524801583e+004,-1.94226316859803e+001,-1.93849513734991e-001

1.45397251732031e+004,-1.94226326584056e+001,-1.96555473346293e-001

1.47426921729110e+004,-1.94226336581573e+001,-1.99299203403401e-001

1.49484924863494e+004,-1.94226346860030e+001,-2.02081231020098e-001

1.51571656651040e+004,-1.94226357427321e+001,-2.04902090661898e-001

1.53687518128801e+004,-1.94226368291557e+001,-2.07762324249086e-001

1.55832915932100e+004,-1.94226379461076e+001,-2.10662481262830e-001

1.58008262372675e+004,-1.94226390944454e+001,-2.13603118844718e-001

1.60213975517924e+004,-1.94226402750505e+001,-2.16584801907503e-001

1.62450479271247e+004,-1.94226414888293e+001,-2.19608103242619e-001

1.64718203453514e+004,-1.94226427367131e+001,-2.22673603630736e-001

1.67017583885674e+004,-1.94226440196600e+001,-2.25781891949970e-001

1.69349062472505e+004,-1.94226453386543e+001,-2.28933565292143e-001

1.71713087287550e+004,-1.94226466947085e+001,-2.32129229073935e-001

1.74110112659224e+004,-1.94226480888630e+001,-2.35369497155799e-001

1.76540599258131e+004,-1.94226495221877e+001,-2.38654991957057e-001

1.79005014185594e+004,-1.94226509957826e+001,-2.41986344574821e-001

1.81503831063432e+004,-1.94226525107780e+001,-2.45364194907803e-001

1.84037530124975e+004,-1.94226540683365e+001,-2.48789191774581e-001

1.86606598307361e+004,-1.94226556696530e+001,-2.52261993041207e-001

1.89211529345119e+004,-1.94226573159559e+001,-2.55783265744421e-001

1.91852823865052e+004,-1.94226590085081e+001,-2.59353686220473e-001

1.94530989482457e+004,-1.94226607486079e+001,-2.62973940234916e-001

1.97246540898671e+004,-1.94226625375899e+001,-2.66644723112811e-001

1.99999999999999e+004,-1.94226643768262e+001,-2.70366739871161e-001

2.02791895958005e+004,-1.94226662677273e+001,-2.74140705355020e-001

2.05622765331213e+004,-1.94226682117433e+001,-2.77967344372196e-001

2.08493152168224e+004,-1.94226702103648e+001,-2.81847391834242e-001

2.11403608112276e+004,-1.94226722651241e+001,-2.85781592894969e-001

2.14354692507258e+004,-1.94226743775969e+001,-2.89770703091876e-001

2.17346972505211e+004,-1.94226765494024e+001,-2.93815488493491e-001

2.20381023175322e+004,-1.94226787822055e+001,-2.97916725843323e-001

2.23457427614443e+004,-1.94226810777174e+001,-3.02075202709034e-001

2.26576777059159e+004,-1.94226834376980e+001,-3.06291717629765e-001

2.29739670999406e+004,-1.94226858639555e+001,-3.10567080274657e-001

2.32946717293690e+004,-1.94226883583493e+001,-3.14902111590666e-001

2.36198532285905e+004,-1.94226909227908e+001,-3.19297643963786e-001

2.39495740923785e+004,-1.94226935592446e+001,-3.23754521375955e-001

2.42838976879009e+004,-1.94226962697304e+001,-3.28273599565661e-001

2.46228882668982e+004,-1.94226990563248e+001,-3.32855746190204e-001

2.49666109780322e+004,-1.94227019211619e+001,-3.37501840994539e-001

2.53151318794055e+004,-1.94227048664358e+001,-3.42212775975612e-001

2.56685179512580e+004,-1.94227078944021e+001,-3.46989455551479e-001

2.60268371088386e+004,-1.94227110073791e+001,-3.51832796737762e-001

2.63901582154578e+004,-1.94227142077501e+001,-3.56743729318143e-001

2.67585510957221e+004,-1.94227174979652e+001,-3.61723196022684e-001

2.71320865489533e+004,-1.94227208805428e+001,-3.66772152707090e-001

2.75108363627948e+004,-1.94227243580717e+001,-3.71891568534979e-001

2.78948733270080e+004,-1.94227279332129e+001,-3.77082426162521e-001

2.82842712474618e+004,-1.94227316087019e+001,-3.82345721923227e-001

2.86791049603164e+004,-1.94227353873508e+001,-3.87682466018377e-001

2.90794503464061e+004,-1.94227392720498e+001,-3.93093682710124e-001

2.94853843458219e+004,-1.94227432657701e+001,-3.98580410514045e-001

2.98969849726987e+004,-1.94227473715657e+001,-4.04143702397289e-001

3.03143313302078e+004,-1.94227515925760e+001,-4.09784625977737e-001

3.07375036257601e+004,-1.94227559320279e+001,-4.15504263728136e-001

3.11665831864199e+004,-1.94227603932381e+001,-4.21303713179529e-001

3.16016524745350e+004,-1.94227649796162e+001,-4.27184087129148e-001

3.20427951035848e+004,-1.94227696946668e+001,-4.33146513853440e-001

3.24900958542493e+004,-1.94227745419919e+001,-4.39192137320154e-001

3.29436406907028e+004,-1.94227795252942e+001,-4.45322117403804e-001

3.34035167771346e+004,-1.94227846483796e+001,-4.51537630108154e-001

3.38698124945009e+004,-1.94227899151598e+001,-4.57839867786592e-001

3.43426174575100e+004,-1.94227953296557e+001,-4.64230039367160e-001

3.48220225318448e+004,-1.94228008959999e+001,-4.70709370583306e-001

3.53081198516260e+004,-1.94228066184404e+001,-4.77279104202803e-001

3.58010028371187e+004,-1.94228125013429e+001,-4.83940500264982e-001

3.63007662126863e+004,-1.94228185491951e+001,-4.90694836315357e-001

3.68075060249948e+004,-1.94228247666092e+001,-4.97543407650364e-001

3.73213196614721e+004,-1.94228311583258e+001,-5.04487527558302e-001

3.78423058690237e+004,-1.94228377292172e+001,-5.11528527569327e-001

3.83705647730104e+004,-1.94228444842909e+001,-5.18667757704202e-001

3.89061978964912e+004,-1.94228514286940e+001,-5.25906586728950e-001

3.94493081797342e+004,-1.94228585677160e+001,-5.33246402413600e-001

3.99999999999998e+004,-1.94228659067935e+001,-5.40688611792217e-001

4.05583791916010e+004,-1.94228734515140e+001,-5.48234641426672e-001

4.11245530662425e+004,-1.94228812076199e+001,-5.55885937674415e-001

4.16986304336447e+004,-1.94228891810127e+001,-5.63643966961966e-001

4.22807216224550e+004,-1.94228973777578e+001,-5.71510216057879e-001

4.28709385014515e+004,-1.94229058040884e+001,-5.79486192351587e-001

4.34693945010421e+004,-1.94229144664105e+001,-5.87573424136705e-001

4.40762046350642e+004,-1.94229233713073e+001,-5.95773460895939e-001

4.46914855228886e+004,-1.94229325255441e+001,-6.04087873592191e-001

4.53153554118317e+004,-1.94229419360737e+001,-6.12518254960372e-001

4.59479341998812e+004,-1.94229516100407e+001,-6.21066219805925e-001

4.65893434587380e+004,-1.94229615547875e+001,-6.29733405306138e-001

4.72397064571810e+004,-1.94229717778588e+001,-6.38521471315840e-001

4.78991481847569e+004,-1.94229822870082e+001,-6.47432100674184e-001

4.85677953758016e+004,-1.94229930902028e+001,-6.56466999521037e-001

4.92457765337964e+004,-1.94230041956295e+001,-6.65627897611932e-001

4.99332219560642e+004,-1.94230156117012e+001,-6.74916548640266e-001

5.06302637588109e+004,-1.94230273470618e+001,-6.84334730563599e-001

5.13370359025159e+004,-1.94230394105940e+001,-6.93884245931248e-001

5.20536742176771e+004,-1.94230518114245e+001,-7.03566922220286e-001

5.27803164309155e+004,-1.94230645589310e+001,-7.13384612172834e-001

5.35171021914442e+004,-1.94230776627489e+001,-7.23339194138887e-001

5.42641730979066e+004,-1.94230911327783e+001,-7.33432572422431e-001

5.50216727255895e+004,-1.94231049791909e+001,-7.43666677634325e-001

5.57897466540159e+004,-1.94231192124377e+001,-7.54043467045873e-001

5.65685424949235e+004,-1.94231338432557e+001,-7.64564924951720e-001

5.73582099206328e+004,-1.94231488826763e+001,-7.75233063032003e-001

5.81589006928121e+004,-1.94231643420326e+001,-7.86049920724364e-001

5.89707686916437e+004,-1.94231802329678e+001,-7.97017565595299e-001

5.97939699453972e+004,-1.94231965674432e+001,-8.08138093721865e-001

6.06286626604156e+004,-1.94232133577466e+001,-8.19413630072839e-001

6.14750072515201e+004,-1.94232306165011e+001,-8.30846328897682e-001

6.23331663728396e+004,-1.94232483566739e+001,-8.42438374120439e-001

6.32033049490698e+004,-1.94232665915855e+001,-8.54191979734983e-001

6.40855902071694e+004,-1.94232853349185e+001,-8.66109390212644e-001

6.49801917084985e+004,-1.94233046007276e+001,-8.78192880904764e-001

6.58872813814055e+004,-1.94233244034495e+001,-8.90444758459147e-001

6.68070335542691e+004,-1.94233447579123e+001,-9.02867361235148e-001

6.77396249890018e+004,-1.94233656793460e+001,-9.15463059729649e-001

6.86852349150199e+004,-1.94233871833931e+001,-9.28234257002521e-001

6.96440450636895e+004,-1.94234092861192e+001,-9.41183389110674e-001

7.06162397032520e+004,-1.94234320040240e+001,-9.54312925546216e-001

7.16020056742374e+004,-1.94234553540525e+001,-9.67625369680359e-001

7.26015324253724e+004,-1.94234793536063e+001,-9.81123259212997e-001

7.36150120499896e+004,-1.94235040205557e+001,-9.94809166625655e-001

7.46426393229441e+004,-1.94235293732517e+001,-1.00868569964121e+000

7.56846117380472e+004,-1.94235554305379e+001,-1.02275550169009e+000

7.67411295460207e+004,-1.94235822117637e+001,-1.03702125237999e+000

7.78123957929823e+004,-1.94236097367963e+001,-1.05148566797213e+000

7.88986163594682e+004,-1.94236380260348e+001,-1.06615150186159e+000

7.99999999999995e+004,-1.94236671004233e+001,-1.08102154506637e+000

8.11167583832018e+004,-1.94236969814643e+001,-1.09609862671853e+000

8.22491061324848e+004,-1.94237276912329e+001,-1.11138561456352e+000

8.33972608672892e+004,-1.94237592523917e+001,-1.12688541546322e+000

8.45614432449099e+004,-1.94237916882048e+001,-1.14260097590600e+000

8.57418770029029e+004,-1.94238250225529e+001,-1.15853528252270e+000

8.69387890020841e+004,-1.94238592799489e+001,-1.17469136260693e+000

8.81524092701283e+004,-1.94238944855533e+001,-1.19107228464320e+000

8.93829710457770e+004,-1.94239306651899e+001,-1.20768115883850e+000

9.06307108236633e+004,-1.94239678453626e+001,-1.22452113766265e+000

9.18958683997622e+004,-1.94240060532716e+001,-1.24159541639107e+000

9.31786869174758e+004,-1.94240453168303e+001,-1.25890723365733e+000

9.44794129143618e+004,-1.94240856646829e+001,-1.27645987200789e+000

9.57982963695136e+004,-1.94241271262215e+001,-1.29425665846682e+000

9.71355907516031e+004,-1.94241697316046e+001,-1.31230096510196e+000

9.84915530675926e+004,-1.94242135117748e+001,-1.33059620960151e+000

9.98664439121282e+004,-1.94242584984779e+001,-1.34914585585373e+000

1.01260527517622e+005,-1.94243047242816e+001,-1.36795341453406e+000

1.02674071805032e+005,-1.94243522225947e+001,-1.38702244369904e+000

1.04107348435354e+005,-1.94244010276873e+001,-1.40635654938292e+000

1.05560632861831e+005,-1.94244511747098e+001,-1.42595938620617e+000

1.07034204382888e+005,-1.94245026997144e+001,-1.44583465798431e+000

1.08528346195813e+005,-1.94245556396748e+001,-1.46598611834737e+000

1.10043345451179e+005,-1.94246100325078e+001,-1.48641757136306e+000

1.11579493308032e+005,-1.94246659170944e+001,-1.50713287216708e+000

1.13137084989847e+005,-1.94247233333015e+001,-1.52813592760058e+000

1.14716419841265e+005,-1.94247823220041e+001,-1.54943069685152e+000

1.16317801385624e+005,-1.94248429251072e+001,-1.57102119210518e+000

1.17941537383287e+005,-1.94249051855693e+001,-1.59291147919935e+000

1.19587939890794e+005,-1.94249691474242e+001,-1.61510567828637e+000

1.21257325320831e+005,-1.94250348558055e+001,-1.63760796450154e+000

1.22950014503040e+005,-1.94251023569694e+001,-1.66042256863784e+000

1.24666332745679e+005,-1.94251716983189e+001,-1.68355377782772e+000

1.26406609898139e+005,-1.94252429284280e+001,-1.70700593623000e+000

1.28171180414339e+005,-1.94253160970659e+001,-1.73078344572615e+000

1.29960383416997e+005,-1.94253912552221e+001,-1.75489076661862e+000

1.31774562762811e+005,-1.94254684551314e+001,-1.77933241834086e+000

1.33614067108538e+005,-1.94255477502986e+001,-1.80411298016954e+000

1.35479249978003e+005,-1.94256291955244e+001,-1.82923709194681e+000

1.37370469830040e+005,-1.94257128469314e+001,-1.85470945480645e+000

1.39288090127379e+005,-1.94257987619892e+001,-1.88053483191005e+000

1.41232479406504e+005,-1.94258869995409e+001,-1.90671804918612e+000

1.43204011348474e+005,-1.94259776198293e+001,-1.93326399607943e+000

1.45203064850745e+005,-1.94260706845236e+001,-1.96017762630481e+000

1.47230024099979e+005,-1.94261662567451e+001,-1.98746395861045e+000

1.49285278645888e+005,-1.94262644010945e+001,-2.01512807754550e+000

1.51369223476094e+005,-1.94263651836785e+001,-2.04317513423605e+000

1.53482259092041e+005,-1.94264686721363e+001,-2.07161034716982e+000

1.55624791585964e+005,-1.94265749356664e+001,-2.10043900298527e+000

1.57797232718936e+005,-1.94266840450537e+001,-2.12966645726981e+000

1.59999999999999e+005,-1.94267960726960e+001,-2.15929813536568e+000

1.62233516766403e+005,-1.94269110926306e+001,-2.18933953318304e+000

1.64498212264969e+005,-1.94270291805610e+001,-2.21979621802045e+000

1.66794521734578e+005,-1.94271504138835e+001,-2.25067382939371e+000

1.69122886489819e+005,-1.94272748717137e+001,-2.28197807987277e+000

1.71483754005805e+005,-1.94274026349118e+001,-2.31371475592736e+000

1.73877578004168e+005,-1.94275337861096e+001,-2.34588971877860e+000

1.76304818540256e+005,-1.94276684097354e+001,-2.37850890526323e+000

1.78765942091554e+005,-1.94278065920395e+001,-2.41157832870357e+000

1.81261421647326e+005,-1.94279484211191e+001,-2.44510407978726e+000

1.83791736799524e+005,-1.94280939869431e+001,-2.47909232745708e+000

1.86357373834951e+005,-1.94282433813760e+001,-2.51354931980879e+000

1.88958825828723e+005,-1.94283966982014e+001,-2.54848138500193e+000

1.91596592739027e+005,-1.94285540331457e+001,-2.58389493217600e+000

1.94271181503206e+005,-1.94287154838998e+001,-2.61979645238296e+000

1.96983106135185e+005,-1.94288811501415e+001,-2.65619251952534e+000

1.99732887824256e+005,-1.94290511335564e+001,-2.69308979130908e+000

2.02521055035243e+005,-1.94292255378587e+001,-2.73049501020696e+000

2.05348143610063e+005,-1.94294044688103e+001,-2.76841500443450e+000

2.08214696870707e+005,-1.94295880342403e+001,-2.80685668893780e+000

2.11121265723661e+005,-1.94297763440623e+001,-2.84582706639551e+000

2.14068408765776e+005,-1.94299695102917e+001,-2.88533322823474e+000

2.17056692391625e+005,-1.94301676470617e+001,-2.92538235566025e+000

2.20086690902357e+005,-1.94303708706378e+001,-2.96598172069897e+000

2.23158986616063e+005,-1.94305792994324e+001,-3.00713868726130e+000

2.26274169979693e+005,-1.94307930540166e+001,-3.04886071221701e+000

2.29432839682530e+005,-1.94310122571322e+001,-3.09115534649051e+000

2.32635602771247e+005,-1.94312370337019e+001,-3.13403023617092e+000

2.35883074766574e+005,-1.94314675108378e+001,-3.17749312364436e+000

2.39175879781588e+005,-1.94317038178496e+001,-3.22155184874317e+000

2.42514650641661e+005,-1.94319460862502e+001,-3.26621434991783e+000

2.45900029006080e+005,-1.94321944497609e+001,-3.31148866542809e+000

2.49332665491357e+005,-1.94324490443148e+001,-3.35738293455931e+000

2.52813219796278e+005,-1.94327100080581e+001,-3.40390539886075e+000

2.56342360828676e+005,-1.94329774813511e+001,-3.45106440340892e+000

2.59920766833993e+005,-1.94332516067669e+001,-3.49886839809707e+000

2.63549125525621e+005,-1.94335325290885e+001,-3.54732593895320e+000

2.67228134217075e+005,-1.94338203953049e+001,-3.59644568948397e+000

2.70958499956006e+005,-1.94341153546051e+001,-3.64623642205109e+000

2.74740939660078e+005,-1.94344175583710e+001,-3.69670701927679e+000

2.78576180254757e+005,-1.94347271601688e+001,-3.74786647548384e+000

2.82464958813007e+005,-1.94350443157383e+001,-3.79972389816872e+000

2.86408022696948e+005,-1.94353691829819e+001,-3.85228850951056e+000

2.90406129701488e+005,-1.94357019219508e+001,-3.90556964791808e+000

2.94460048199957e+005,-1.94360426948315e+001,-3.95957676961408e+000

2.98570557291775e+005,-1.94363916659293e+001,-4.01431945026211e+000

3.02738446952187e+005,-1.94367490016523e+001,-4.06980738663453e+000

3.06964518184081e+005,-1.94371148704928e+001,-4.12605039832515e+000

3.11249583171928e+005,-1.94374894430093e+001,-4.18305842950657e+000

3.15594465437872e+005,-1.94378728918063e+001,-4.24084155073667e+000

3.19999999999997e+005,-1.94382653915143e+001,-4.29940996081384e+000

3.24467033532806e+005,-1.94386671187688e+001,-4.35877398868294e+000

3.28996424529938e+005,-1.94390782521898e+001,-4.41894409539494e+000

3.33589043469155e+005,-1.94394989723599e+001,-4.47993087612250e+000

3.38245772979638e+005,-1.94399294618037e+001,-4.54174506223033e+000

3.42967508011610e+005,-1.94403699049666e+001,-4.60439752340590e+000

3.47755156008335e+005,-1.94408204881954e+001,-4.66789926984977e+000

3.52609637080511e+005,-1.94412813997185e+001,-4.73226145452880e+000

3.57531884183106e+005,-1.94417528296278e+001,-4.79749537549335e+000

3.62522843294651e+005,-1.94422349698627e+001,-4.86361247825963e+000

3.67583473599047e+005,-1.94427280141952e+001,-4.93062435826016e+000

3.72714747669902e+005,-1.94432321582177e+001,-4.99854276336338e+000

3.77917651657445e+005,-1.94437475993329e+001,-5.06737959646337e+000

3.83193185478053e+005,-1.94442745367477e+001,-5.13714691814154e+000

3.88542363006410e+005,-1.94448131714696e+001,-5.20785694940266e+000

3.93966212270369e+005,-1.94453637063078e+001,-5.27952207448354e+000

3.99465775648511e+005,-1.94459263458783e+001,-5.35215484373985e+000

4.05042110070485e+005,-1.94465012966143e+001,-5.42576797660708e+000

4.10696287220124e+005,-1.94470887667818e+001,-5.50037436464114e+000

4.16429393741414e+005,-1.94476889665009e+001,-5.57598707463546e+000

4.22242531447321e+005,-1.94483021077751e+001,-5.65261935181742e+000

4.28136817531551e+005,-1.94489284045255e+001,-5.73028462312335e+000

4.34113384783250e+005,-1.94495680726351e+001,-5.80899650055306e+000

4.40173381804713e+005,-1.94502213299996e+001,-5.88876878460233e+000

4.46317973232124e+005,-1.94508883965882e+001,-5.96961546777518e+000

4.52548339959385e+005,-1.94515694945139e+001,-6.05155073817250e+000

4.58865679365059e+005,-1.94522648481136e+001,-6.13458898315884e+000

4.65271205542494e+005,-1.94529746840398e+001,-6.21874479310577e+000

4.71766149533147e+005,-1.94536992313629e+001,-6.30403296520858e+000

4.78351759563174e+005,-1.94544387216867e+001,-6.39046850737752e+000

4.85029301283321e+005,-1.94551933892763e+001,-6.47806664219995e+000

4.91800058012158e+005,-1.94559634711989e+001,-6.56684281097121e+000

4.98665330982714e+005,-1.94567492074800e+001,-6.65681267779351e+000

5.05626439592555e+005,-1.94575508412732e+001,-6.74799213373752e+000

5.12684721657352e+005,-1.94583686190458e+001,-6.84039730106662e+000

5.19841533667984e+005,-1.94592027907806e+001,-6.93404453751833e+000

5.27098251051240e+005,-1.94600536101935e+001,-7.02895044064037e+000

5.34456268434150e+005,-1.94609213349694e+001,-7.12513185217735e+000

5.41916999912011e+005,-1.94618062270140e+001,-7.22260586250465e+000

