Freq.,VOut,OutRef

1.00000000000000e+004,-9.91929281593865e+000,-8.23812935531522e-002

1.01395947979003e+004,-9.91929293414898e+000,-8.35312805812347e-002

1.02811382665607e+004,-9.91929305568127e+000,-8.46973202784942e-002

1.04246576084112e+004,-9.91929318062883e+000,-8.58796367090125e-002

1.05701804056138e+004,-9.91929330908741e+000,-8.70784570637331e-002

1.07177346253629e+004,-9.91929344115593e+000,-8.82940117017588e-002

1.08673486252606e+004,-9.91929357693532e+000,-8.95265342013134e-002

1.10190511587661e+004,-9.91929371653026e+000,-9.07762613945873e-002

1.11728713807222e+004,-9.91929386004771e+000,-9.20434334226095e-002

1.13288388529580e+004,-9.91929400759786e+000,-9.33282937756911e-002

1.14869835499703e+004,-9.91929415929384e+000,-9.46310893435933e-002

1.16473358646846e+004,-9.91929431525229e+000,-9.59520704584530e-002

1.18099266142953e+004,-9.91929447559291e+000,-9.72914909468530e-002

1.19747870461893e+004,-9.91929464043836e+000,-9.86496081803061e-002

1.21419488439505e+004,-9.91929480991574e+000,-1.00026683114618e-001

1.23114441334492e+004,-9.91929498415472e+000,-1.01422980353317e-001

1.24833054890161e+004,-9.91929516328899e+000,-1.02838768189777e-001

1.26575659397028e+004,-9.91929534745606e+000,-1.04274318660499e-001

1.28342589756290e+004,-9.91929553679720e+000,-1.05729907598164e-001

1.30134185544193e+004,-9.91929573145780e+000,-1.07205814682990e-001

1.31950791077289e+004,-9.91929593158721e+000,-1.08702323498065e-001

1.33792755478611e+004,-9.91929613733881e+000,-1.10219721584678e-001

1.35660432744767e+004,-9.91929634887049e+000,-1.11758300493946e-001

1.37554181813974e+004,-9.91929656634459e+000,-1.13318355845297e-001

1.39474366635040e+004,-9.91929678992758e+000,-1.14900187384443e-001

1.41421356237309e+004,-9.91929701979126e+000,-1.16504099035282e-001

1.43395524801583e+004,-9.91929725611175e+000,-1.18130398964980e-001

1.45397251732031e+004,-9.91929749907056e+000,-1.19779399636989e-001

1.47426921729110e+004,-9.91929774885354e+000,-1.21451417878408e-001

1.49484924863494e+004,-9.91929800565241e+000,-1.23146774932454e-001

1.51571656651040e+004,-9.91929826966417e+000,-1.24865796524294e-001

1.53687518128801e+004,-9.91929854109087e+000,-1.26608812925703e-001

1.55832915932100e+004,-9.91929882014098e+000,-1.28376159011194e-001

1.58008262372675e+004,-9.91929910702797e+000,-1.30168174331741e-001

1.60213975517924e+004,-9.91929940197210e+000,-1.31985203169961e-001

1.62450479271247e+004,-9.91929970519901e+000,-1.33827594615127e-001

1.64718203453514e+004,-9.91930001694141e+000,-1.35695702622223e-001

1.67017583885674e+004,-9.91930033743805e+000,-1.37589886085314e-001

1.69349062472505e+004,-9.91930066693437e+000,-1.39510508904768e-001

1.71713087287550e+004,-9.91930100568282e+000,-1.41457940056056e-001

1.74110112659224e+004,-9.91930135394270e+000,-1.43432553661454e-001

1.76540599258131e+004,-9.91930171198117e+000,-1.45434729057754e-001

1.79005014185594e+004,-9.91930208007207e+000,-1.47464850877529e-001

1.81503831063432e+004,-9.91930245849726e+000,-1.49523309114810e-001

1.84037530124975e+004,-9.91930284754664e+000,-1.51610499202195e-001

1.86606598307361e+004,-9.91930324751794e+000,-1.53726822087821e-001

1.89211529345119e+004,-9.91930365871748e+000,-1.55872684309896e-001

1.91852823865052e+004,-9.91930408145971e+000,-1.58048498078731e-001

1.94530989482457e+004,-9.91930451606845e+000,-1.60254681348585e-001

1.97246540898671e+004,-9.91930496287597e+000,-1.62491657905793e-001

1.99999999999999e+004,-9.91930542222421e+000,-1.64759857443147e-001

2.02791895958005e+004,-9.91930589446465e+000,-1.67059715644874e-001

2.05622765331213e+004,-9.91930637995853e+000,-1.69391674270484e-001

2.08493152168224e+004,-9.91930687907680e+000,-1.71756181240471e-001

2.11403608112276e+004,-9.91930739220141e+000,-1.74153690716540e-001

2.14354692507258e+004,-9.91930791972464e+000,-1.76584663194165e-001

2.17346972505211e+004,-9.91930846204968e+000,-1.79049565587928e-001

2.20381023175322e+004,-9.91930901959098e+000,-1.81548871322421e-001

2.23457427614443e+004,-9.91930959277468e+000,-1.84083060419939e-001

2.26576777059159e+004,-9.91931018203854e+000,-1.86652619595925e-001

2.29739670999406e+004,-9.91931078783291e+000,-1.89258042347479e-001

2.32946717293690e+004,-9.91931141062025e+000,-1.91899829053152e-001

2.36198532285905e+004,-9.91931205087624e+000,-1.94578487062861e-001

2.39495740923785e+004,-9.91931270908979e+000,-1.97294530797883e-001

2.42838976879009e+004,-9.91931338576328e+000,-2.00048481849508e-001

2.46228882668982e+004,-9.91931408141286e+000,-2.02840869078975e-001

2.49666109780322e+004,-9.91931479656979e+000,-2.05672228712465e-001

2.53151318794055e+004,-9.91931553177920e+000,-2.08543104454022e-001

2.56685179512580e+004,-9.91931628760213e+000,-2.11454047578241e-001

2.60268371088386e+004,-9.91931706461467e+000,-2.14405617044626e-001

2.63901582154578e+004,-9.91931786340927e+000,-2.17398379597513e-001

2.67585510957221e+004,-9.91931868459484e+000,-2.20432909876605e-001

2.71320865489533e+004,-9.91931952879687e+000,-2.23509790529445e-001

2.75108363627948e+004,-9.91932039665873e+000,-2.26629612315750e-001

2.78948733270080e+004,-9.91932128884106e+000,-2.29792974227990e-001

2.82842712474618e+004,-9.91932220602340e+000,-2.33000483597866e-001

2.86791049603164e+004,-9.91932314890382e+000,-2.36252756217300e-001

2.90794503464061e+004,-9.91932411819974e+000,-2.39550416453959e-001

2.94853843458219e+004,-9.91932511464853e+000,-2.42894097370004e-001

2.98969849726987e+004,-9.91932613900811e+000,-2.46284440841424e-001

3.03143313302078e+004,-9.91932719205728e+000,-2.49722097682335e-001

3.07375036257601e+004,-9.91932827459638e+000,-2.53207727767633e-001

3.11665831864199e+004,-9.91932938744790e+000,-2.56742000158820e-001

3.16016524745350e+004,-9.91933053145709e+000,-2.60325593230732e-001

3.20427951035848e+004,-9.91933170749253e+000,-2.63959194800788e-001

3.24900958542493e+004,-9.91933291644698e+000,-2.67643502259107e-001

3.29436406907028e+004,-9.91933415923763e+000,-2.71379222701801e-001

3.34035167771346e+004,-9.91933543680730e+000,-2.75167073063452e-001

3.38698124945009e+004,-9.91933675012434e+000,-2.79007780257797e-001

3.43426174575100e+004,-9.91933810018437e+000,-2.82902081308205e-001

3.48220225318448e+004,-9.91933948800993e+000,-2.86850723495332e-001

3.53081198516260e+004,-9.91934091465211e+000,-2.90854464492537e-001

3.58010028371187e+004,-9.91934238119058e+000,-2.94914072513864e-001

3.63007662126863e+004,-9.91934388873522e+000,-2.99030326455067e-001

3.68075060249948e+004,-9.91934543842607e+000,-3.03204016045986e-001

3.73213196614721e+004,-9.91934703143439e+000,-3.07435941997778e-001

3.78423058690237e+004,-9.91934866896399e+000,-3.11726916152928e-001

3.83705647730104e+004,-9.91935035225137e+000,-3.16077761641765e-001

3.89061978964912e+004,-9.91935208256724e+000,-3.20489313034684e-001

3.94493081797342e+004,-9.91935386121684e+000,-3.24962416504152e-001

3.99999999999998e+004,-9.91935568954128e+000,-3.29497929980541e-001

4.05583791916010e+004,-9.91935756891853e+000,-3.34096723315154e-001

4.11245530662425e+004,-9.91935950076389e+000,-3.38759678446656e-001

4.16986304336447e+004,-9.91936148653167e+000,-3.43487689563886e-001

4.22807216224550e+004,-9.91936352771581e+000,-3.48281663276037e-001

4.28709385014515e+004,-9.91936562585062e+000,-3.53142518785842e-001

4.34693945010421e+004,-9.91936778251278e+000,-3.58071188057230e-001

4.40762046350642e+004,-9.91936999932173e+000,-3.63068615994493e-001

4.46914855228886e+004,-9.91937227794048e+000,-3.68135760622251e-001

4.53153554118317e+004,-9.91937462007806e+000,-3.73273593257522e-001

4.59479341998812e+004,-9.91937702748933e+000,-3.78483098700857e-001

4.65893434587380e+004,-9.91937950197678e+000,-3.83765275416808e-001

4.72397064571810e+004,-9.91938204539204e+000,-3.89121135720854e-001

4.78991481847569e+004,-9.91938465963641e+000,-3.94551705972474e-001

4.85677953758016e+004,-9.91938734666310e+000,-4.00058026762551e-001

4.92457765337964e+004,-9.91939010847762e+000,-4.05641153113376e-001

4.99332219560642e+004,-9.91939294713988e+000,-4.11302154671899e-001

5.06302637588109e+004,-9.91939586476515e+000,-4.17042115912491e-001

5.13370359025159e+004,-9.91939886352551e+000,-4.22862136338671e-001

5.20536742176771e+004,-9.91940194565168e+000,-4.28763330686804e-001

5.27803164309155e+004,-9.91940511343404e+000,-4.34746829136664e-001

5.35171021914442e+004,-9.91940836922436e+000,-4.40813777521055e-001

5.42641730979066e+004,-9.91941171543748e+000,-4.46965337537678e-001

5.50216727255895e+004,-9.91941515455255e+000,-4.53202686968255e-001

5.57897466540159e+004,-9.91941868911515e+000,-4.59527019894086e-001

5.65685424949235e+004,-9.91942232173852e+000,-4.65939546920500e-001

5.73582099206328e+004,-9.91942605510539e+000,-4.72441495401294e-001

5.81589006928121e+004,-9.91942989196987e+000,-4.79034109664013e-001

5.89707686916437e+004,-9.91943383515894e+000,-4.85718651243564e-001

5.97939699453972e+004,-9.91943788757442e+000,-4.92496399113994e-001

6.06286626604156e+004,-9.91944205219495e+000,-4.99368649923881e-001

6.14750072515201e+004,-9.91944633207750e+000,-5.06336718238185e-001

6.23331663728396e+004,-9.91945073035977e+000,-5.13401936778460e-001

6.32033049490698e+004,-9.91945525026168e+000,-5.20565656670275e-001

6.40855902071694e+004,-9.91945989508751e+000,-5.27829247691679e-001

6.49801917084985e+004,-9.91946466822826e+000,-5.35194098522989e-001

6.58872813814055e+004,-9.91946957316307e+000,-5.42661617005325e-001

6.68070335542691e+004,-9.91947461346213e+000,-5.50233230394836e-001

6.77396249890018e+004,-9.91947979278818e+000,-5.57910385627267e-001

6.86852349150199e+004,-9.91948511489884e+000,-5.65694549582235e-001

6.96440450636895e+004,-9.91949058364899e+000,-5.73587209350183e-001

7.06162397032520e+004,-9.91949620299305e+000,-5.81589872504201e-001

7.16020056742374e+004,-9.91950197698722e+000,-5.89704067374376e-001

7.26015324253724e+004,-9.91950790979150e+000,-5.97931343328339e-001

7.36150120499896e+004,-9.91951400567255e+000,-6.06273271049754e-001

7.46426393229441e+004,-9.91952026900612e+000,-6.14731442823874e-001

7.56846117380472e+004,-9.91952670427886e+000,-6.23307472828852e-001

7.67411295460207e+004,-9.91953331609141e+000,-6.32002997425166e-001

7.78123957929823e+004,-9.91954010916077e+000,-6.40819675451740e-001

7.88986163594682e+004,-9.91954708832286e+000,-6.49759188525106e-001

7.99999999999995e+004,-9.91955425853480e+000,-6.58823241344196e-001

8.11167583832018e+004,-9.91956162487812e+000,-6.68013561993519e-001

8.22491061324848e+004,-9.91956919256075e+000,-6.77331902257011e-001

8.33972608672892e+004,-9.91957696692028e+000,-6.86780037928388e-001

8.45614432449099e+004,-9.91958495342624e+000,-6.96359769131603e-001

8.57418770029029e+004,-9.91959315768298e+000,-7.06072920641644e-001

8.69387890020841e+004,-9.91960158543257e+000,-7.15921342208242e-001

8.81524092701283e+004,-9.91961024255721e+000,-7.25906908887586e-001

8.93829710457770e+004,-9.91961913508242e+000,-7.36031521372857e-001

9.06307108236633e+004,-9.91962826917961e+000,-7.46297106332766e-001

9.18958683997622e+004,-9.91963765116891e+000,-7.56705616751977e-001

9.31786869174758e+004,-9.91964728752223e+000,-7.67259032274699e-001

9.44794129143618e+004,-9.91965718486565e+000,-7.77959359556209e-001

9.57982963695136e+004,-9.91966734998279e+000,-7.88808632612829e-001

9.71355907516031e+004,-9.91967778981742e+000,-7.99808913179402e-001

9.84915530675926e+004,-9.91968851147606e+000,-8.10962291072796e-001

9.98664439121282e+004,-9.91969952223138e+000,-8.22270884552815e-001

1.01260527517622e+005,-9.91971082952457e+000,-8.33736840694246e-001

1.02674071805032e+005,-9.91972244096812e+000,-8.45362335761035e-001

1.04107348435354e+005,-9.91973436434911e+000,-8.57149575580030e-001

1.05560632861831e+005,-9.91974660763148e+000,-8.69100795926367e-001

1.07034204382888e+005,-9.91975917895878e+000,-8.81218262909395e-001

1.08528346195813e+005,-9.91977208665721e+000,-8.93504273360744e-001

1.10043345451179e+005,-9.91978533923803e+000,-9.05961155230540e-001

1.11579493308032e+005,-9.91979894539995e+000,-9.18591267987824e-001

1.13137084989847e+005,-9.91981291403213e+000,-9.31397003020670e-001

1.14716419841265e+005,-9.91982725421622e+000,-9.44380784047998e-001

1.16317801385624e+005,-9.91984197522887e+000,-9.57545067528970e-001

1.17941537383287e+005,-9.91985708654412e+000,-9.70892343081889e-001

1.19587939890794e+005,-9.91987259783546e+000,-9.84425133903850e-001

1.21257325320831e+005,-9.91988851897790e+000,-9.98145997198417e-001

1.22950014503040e+005,-9.91990486005011e+000,-1.01205752460502e+000

1.24666332745679e+005,-9.91992163133597e+000,-1.02616234263527e+000

1.26406609898139e+005,-9.91993884332650e+000,-1.04046311311158e+000

1.28171180414339e+005,-9.91995650672141e+000,-1.05496253361212e+000

1.29960383416997e+005,-9.91997463243003e+000,-1.06966333792230e+000

1.31774562762811e+005,-9.91999323157319e+000,-1.08456829648546e+000

1.33614067108538e+005,-9.92001231548359e+000,-1.09968021686426e+000

1.35479249978003e+005,-9.92003189570693e+000,-1.11500194420409e+000

1.37370469830040e+005,-9.92005198400216e+000,-1.13053636170182e+000

1.39288090127379e+005,-9.92007259234207e+000,-1.14628639107978e+000

1.41232479406504e+005,-9.92009373291312e+000,-1.16225499306417e+000

1.43204011348474e+005,-9.92011541811499e+000,-1.17844516787111e+000

1.45203064850745e+005,-9.92013766056053e+000,-1.19485995569213e+000

1.47230024099979e+005,-9.92016047307431e+000,-1.21150243719237e+000

1.49285278645888e+005,-9.92018386869161e+000,-1.22837573400820e+000

1.51369223476094e+005,-9.92020786065683e+000,-1.24548300925228e+000

1.53482259092041e+005,-9.92023246242143e+000,-1.26282746802516e+000

1.55624791585964e+005,-9.92025768764123e+000,-1.28041235793107e+000

1.57797232718936e+005,-9.92028355017391e+000,-1.29824096959917e+000

1.59999999999999e+005,-9.92031006407540e+000,-1.31631663721075e+000

1.62233516766403e+005,-9.92033724359591e+000,-1.33464273903374e+000

1.64498212264969e+005,-9.92036510317580e+000,-1.35322269795987e+000

1.66794521734578e+005,-9.92039365744040e+000,-1.37205998205167e+000

1.69122886489819e+005,-9.92042292119434e+000,-1.39115810509317e+000

1.71483754005805e+005,-9.92045290941561e+000,-1.41052062714665e+000

1.73877578004168e+005,-9.92048363724844e+000,-1.43015115511796e+000

1.76304818540256e+005,-9.92051511999584e+000,-1.45005334332607e+000

1.78765942091554e+005,-9.92054737311124e+000,-1.47023089408115e+000

1.81261421647326e+005,-9.92058041218958e+000,-1.49068755826740e+000

1.83791736799524e+005,-9.92061425295702e+000,-1.51142713593609e+000

1.86357373834951e+005,-9.92064891126065e+000,-1.53245347690272e+000

1.88958825828723e+005,-9.92068440305655e+000,-1.55377048135272e+000

1.91596592739027e+005,-9.92072074439729e+000,-1.57538210045645e+000

1.94271181503206e+005,-9.92075795141829e+000,-1.59729233698981e+000

1.96983106135185e+005,-9.92079604032356e+000,-1.61950524596284e+000

1.99732887824256e+005,-9.92083502736954e+000,-1.64202493526010e+000

2.02521055035243e+005,-9.92087492884883e+000,-1.66485556628498e+000

2.05348143610063e+005,-9.92091576107193e+000,-1.68800135461712e+000

2.08214696870707e+005,-9.92095754034814e+000,-1.71146657067698e+000

2.11121265723661e+005,-9.92100028296552e+000,-1.73525554039896e+000

2.14068408765776e+005,-9.92104400516863e+000,-1.75937264591852e+000

2.17056692391625e+005,-9.92108872313595e+000,-1.78382232626508e+000

2.20086690902357e+005,-9.92113445295518e+000,-1.80860907806817e+000

2.23158986616063e+005,-9.92118121059730e+000,-1.83373745627496e+000

2.26274169979693e+005,-9.92122901188943e+000,-1.85921207487692e+000

2.29432839682530e+005,-9.92127787248544e+000,-1.88503760765227e+000

2.32635602771247e+005,-9.92132780783570e+000,-1.91121878891735e+000

2.35883074766574e+005,-9.92137883315466e+000,-1.93776041429351e+000

2.39175879781588e+005,-9.92143096338693e+000,-1.96466734148596e+000

2.42514650641661e+005,-9.92148421317169e+000,-1.99194449107795e+000

2.45900029006080e+005,-9.92153859680498e+000,-2.01959684733928e+000

2.49332665491357e+005,-9.92159412820049e+000,-2.04762945904988e+000

2.52813219796278e+005,-9.92165082084831e+000,-2.07604744033947e+000

2.56342360828676e+005,-9.92170868777165e+000,-2.10485597154437e+000

2.59920766833993e+005,-9.92176774148175e+000,-2.13406030008176e+000

2.63549125525621e+005,-9.92182799393068e+000,-2.16366574134076e+000

2.67228134217075e+005,-9.92188945646203e+000,-2.19367767959412e+000

2.70958499956006e+005,-9.92195213975973e+000,-2.22410156892884e+000

2.74740939660078e+005,-9.92201605379445e+000,-2.25494293419698e+000

2.78576180254757e+005,-9.92208120776810e+000,-2.28620737198867e+000

2.82464958813007e+005,-9.92214761005599e+000,-2.31790055162626e+000

2.86408022696948e+005,-9.92221526814688e+000,-2.35002821618386e+000

2.90406129701488e+005,-9.92228418858096e+000,-2.38259618352726e+000

2.94460048199957e+005,-9.92235437688529e+000,-2.41561034738288e+000

2.98570557291775e+005,-9.92242583750718e+000,-2.44907667843128e+000

3.02738446952187e+005,-9.92249857374553e+000,-2.48300122542654e+000

3.06964518184081e+005,-9.92257258767988e+000,-2.51739011634504e+000

3.11249583171928e+005,-9.92264788009689e+000,-2.55224955956432e+000

3.15594465437872e+005,-9.92272445041507e+000,-2.58758584507073e+000

3.19999999999997e+005,-9.92280229660740e+000,-2.62340534569892e+000

3.24467033532806e+005,-9.92288141512147e+000,-2.65971451840382e+000

3.28996424529938e+005,-9.92296180079785e+000,-2.69651990556717e+000

3.33589043469155e+005,-9.92304344678619e+000,-2.73382813633810e+000

3.38245772979638e+005,-9.92312634445977e+000,-2.77164592800889e+000

3.42967508011610e+005,-9.92321048332775e+000,-2.80998008742959e+000

3.47755156008335e+005,-9.92329585094575e+000,-2.84883751245941e+000

3.52609637080511e+005,-9.92338243282464e+000,-2.88822519345925e+000

3.57531884183106e+005,-9.92347021233813e+000,-2.92815021482140e+000

3.62522843294651e+005,-9.92355917062803e+000,-2.96861975654571e+000

3.67583473599047e+005,-9.92364928650900e+000,-3.00964109585342e+000

3.72714747669902e+005,-9.92374053637116e+000,-3.05122160884968e+000

3.77917651657445e+005,-9.92383289408245e+000,-3.09336877222602e+000

3.83193185478053e+005,-9.92392633088914e+000,-3.13609016501363e+000

3.88542363006410e+005,-9.92402081531612e+000,-3.17939347037919e+000

3.93966212270369e+005,-9.92411631306638e+000,-3.22328647747102e+000

3.99465775648511e+005,-9.92421278691962e+000,-3.26777708331348e+000

4.05042110070485e+005,-9.92431019663099e+000,-3.31287329475031e+000

4.10696287220124e+005,-9.92440849882972e+000,-3.35858323043810e+000

4.16429393741414e+005,-9.92450764691742e+000,-3.40491512289105e+000

4.22242531447321e+005,-9.92460759096702e+000,-3.45187732057737e+000

4.28136817531551e+005,-9.92470827762209e+000,-3.49947829006742e+000

4.34113384783250e+005,-9.92480964999701e+000,-3.54772661823350e+000

4.40173381804713e+005,-9.92491164757770e+000,-3.59663101450482e+000

4.46317973232124e+005,-9.92501420612419e+000,-3.64620031317189e+000

4.52548339959385e+005,-9.92511725757389e+000,-3.69644347574814e+000

4.58865679365059e+005,-9.92522072994705e+000,-3.74736959338126e+000

4.65271205542494e+005,-9.92532454725387e+000,-3.79898788931997e+000

4.71766149533147e+005,-9.92542862940365e+000,-3.85130772143268e+000

4.78351759563174e+005,-9.92553289211664e+000,-3.90433858477922e+000

4.85029301283321e+005,-9.92563724683805e+000,-3.95809011423439e+000

4.91800058012158e+005,-9.92574160065518e+000,-4.01257208716411e+000

4.98665330982714e+005,-9.92584585621752e+000,-4.06779442615153e+000

5.05626439592555e+005,-9.92594991166001e+000,-4.12376720177418e+000

5.12684721657352e+005,-9.92605366052992e+000,-4.18050063542945e+000

5.19841533667984e+005,-9.92615699171728e+000,-4.23800510221004e+000

5.27098251051240e+005,-9.92625978938911e+000,-4.29629113382522e+000

5.34456268434150e+005,-9.92636193292767e+000,-4.35536942156825e+000

5.41916999912011e+005,-9.92646329687302e+000,-4.41525081932896e+000

