Freq.,VOut,OutRef

1.00000000000000e+004,-2.16760310139419e+001,-3.65038275070573e-001

1.01395947979003e+004,-2.16760331362353e+001,-3.70133940701738e-001

1.02811382665607e+004,-2.16760353181878e+001,-3.75300735828535e-001

1.04246576084112e+004,-2.16760375614761e+001,-3.80539653240443e-001

1.05701804056138e+004,-2.16760398678244e+001,-3.85851699578110e-001

1.07177346253629e+004,-2.16760422390049e+001,-3.91237895528932e-001

1.08673486252606e+004,-2.16760446768398e+001,-3.96699276023616e-001

1.10190511587661e+004,-2.16760471832026e+001,-4.02236890429971e-001

1.11728713807222e+004,-2.16760497600195e+001,-4.07851802759468e-001

1.13288388529580e+004,-2.16760524092705e+001,-4.13545091868503e-001

1.14869835499703e+004,-2.16760551329916e+001,-4.19317851665999e-001

1.16473358646846e+004,-2.16760579332757e+001,-4.25171191323842e-001

1.18099266142953e+004,-2.16760608122746e+001,-4.31106235488519e-001

1.19747870461893e+004,-2.16760637722009e+001,-4.37124124496519e-001

1.21419488439505e+004,-2.16760668153287e+001,-4.43226014595038e-001

1.23114441334492e+004,-2.16760699439965e+001,-4.49413078161579e-001

1.24833054890161e+004,-2.16760731606084e+001,-4.55686503929545e-001

1.26575659397028e+004,-2.16760764676360e+001,-4.62047497216349e-001

1.28342589756290e+004,-2.16760798676204e+001,-4.68497280153357e-001

1.30134185544193e+004,-2.16760833631740e+001,-4.75037091922731e-001

1.31950791077289e+004,-2.16760869569824e+001,-4.81668188991804e-001

1.33792755478611e+004,-2.16760906518071e+001,-4.88391845355949e-001

1.35660432744767e+004,-2.16760944504870e+001,-4.95209352781077e-001

1.37554181813974e+004,-2.16760983559405e+001,-5.02122021054332e-001

1.39474366635040e+004,-2.16761023711683e+001,-5.09131178230852e-001

1.41421356237309e+004,-2.16761064992553e+001,-5.16238170891050e-001

1.43395524801583e+004,-2.16761107433729e+001,-5.23444364398591e-001

1.45397251732031e+004,-2.16761151067818e+001,-5.30751143159952e-001

1.47426921729110e+004,-2.16761195928341e+001,-5.38159910892006e-001

1.49484924863494e+004,-2.16761242049762e+001,-5.45672090888898e-001

1.51571656651040e+004,-2.16761289467512e+001,-5.53289126295948e-001

1.53687518128801e+004,-2.16761338218019e+001,-5.61012480385252e-001

1.55832915932100e+004,-2.16761388338729e+001,-5.68843636837060e-001

1.58008262372675e+004,-2.16761439868148e+001,-5.76784100020952e-001

1.60213975517924e+004,-2.16761492845856e+001,-5.84835395287616e-001

1.62450479271247e+004,-2.16761547312546e+001,-5.92999069258769e-001

1.64718203453514e+004,-2.16761603310057e+001,-6.01276690121908e-001

1.67017583885674e+004,-2.16761660881400e+001,-6.09669847933529e-001

1.69349062472505e+004,-2.16761720070796e+001,-6.18180154920795e-001

1.71713087287550e+004,-2.16761780923704e+001,-6.26809245791452e-001

1.74110112659224e+004,-2.16761843486863e+001,-6.35558778046053e-001

1.76540599258131e+004,-2.16761907808321e+001,-6.44430432294758e-001

1.79005014185594e+004,-2.16761973937480e+001,-6.53425912578200e-001

1.81503831063432e+004,-2.16762041925123e+001,-6.62546946695850e-001

1.84037530124975e+004,-2.16762111823464e+001,-6.71795286532776e-001

1.86606598307361e+004,-2.16762183686178e+001,-6.81172708397643e-001

1.89211529345119e+004,-2.16762257568452e+001,-6.90681013359870e-001

1.91852823865052e+004,-2.16762333527016e+001,-7.00322027596313e-001

1.94530989482457e+004,-2.16762411620199e+001,-7.10097602737514e-001

1.97246540898671e+004,-2.16762491907961e+001,-7.20009616223696e-001

1.99999999999999e+004,-2.16762574451949e+001,-7.30059971661582e-001

2.02791895958005e+004,-2.16762659315539e+001,-7.40250599189572e-001

2.05622765331213e+004,-2.16762746563884e+001,-7.50583455845622e-001

2.08493152168224e+004,-2.16762836263969e+001,-7.61060525939728e-001

2.11403608112276e+004,-2.16762928484655e+001,-7.71683821435265e-001

2.14354692507258e+004,-2.16763023296738e+001,-7.82455382330172e-001

2.17346972505211e+004,-2.16763120772998e+001,-7.93377277047907e-001

2.20381023175322e+004,-2.16763220988259e+001,-8.04451602831726e-001

2.23457427614443e+004,-2.16763324019442e+001,-8.15680486145396e-001

2.26576777059159e+004,-2.16763429945629e+001,-8.27066083076145e-001

2.29739670999406e+004,-2.16763538848118e+001,-8.38610579748396e-001

2.32946717293690e+004,-2.16763650810487e+001,-8.50316192739918e-001

2.36198532285905e+004,-2.16763765918661e+001,-8.62185169502956e-001

2.39495740923785e+004,-2.16763884260971e+001,-8.74219788794050e-001

2.42838976879009e+004,-2.16764005928230e+001,-8.86422361105838e-001

2.46228882668982e+004,-2.16764131013794e+001,-8.98795229110164e-001

2.49666109780322e+004,-2.16764259613637e+001,-9.11340768101249e-001

2.53151318794055e+004,-2.16764391826426e+001,-9.24061386449022e-001

2.56685179512580e+004,-2.16764527753592e+001,-9.36959526057647e-001

2.60268371088386e+004,-2.16764667499411e+001,-9.50037662828476e-001

2.63901582154578e+004,-2.16764811171082e+001,-9.63298307133025e-001

2.67585510957221e+004,-2.16764958878808e+001,-9.76744004288064e-001

2.71320865489533e+004,-2.16765110735882e+001,-9.90377335041359e-001

2.75108363627948e+004,-2.16765266858771e+001,-1.00420091606035e+000

2.78948733270080e+004,-2.16765427367205e+001,-1.01821740042987e+000

2.82842712474618e+004,-2.16765592384270e+001,-1.03242947815603e+000

2.86791049603164e+004,-2.16765762036501e+001,-1.04683987667615e+000

2.90794503464061e+004,-2.16765936453977e+001,-1.06145136137626e+000

2.94853843458219e+004,-2.16766115770421e+001,-1.07626673611676e+000

2.98969849726987e+004,-2.16766300123301e+001,-1.09128884376252e+000

3.03143313302078e+004,-2.16766489653936e+001,-1.10652056672242e+000

3.07375036257601e+004,-2.16766684507601e+001,-1.12196482749556e+000

3.11665831864199e+004,-2.16766884833641e+001,-1.13762458922401e+000

3.16016524745350e+004,-2.16767090785578e+001,-1.15350285625485e+000

3.20427951035848e+004,-2.16767302521235e+001,-1.16960267470689e+000

3.24900958542493e+004,-2.16767520202854e+001,-1.18592713304828e+000

3.29436406907028e+004,-2.16767743997213e+001,-1.20247936268002e+000

3.34035167771346e+004,-2.16767974075760e+001,-1.21926253852764e+000

3.38698124945009e+004,-2.16768210614740e+001,-1.23627987964012e+000

3.43426174575100e+004,-2.16768453795328e+001,-1.25353464979881e+000

3.48220225318448e+004,-2.16768703803767e+001,-1.27103015813219e+000

3.53081198516260e+004,-2.16768960831507e+001,-1.28876975974094e+000

3.58010028371187e+004,-2.16769225075356e+001,-1.30675685632883e+000

3.63007662126863e+004,-2.16769496737620e+001,-1.32499489684546e+000

3.68075060249948e+004,-2.16769776026264e+001,-1.34348737813373e+000

3.73213196614721e+004,-2.16770063155064e+001,-1.36223784558978e+000

3.78423058690237e+004,-2.16770358343771e+001,-1.38124989382772e+000

3.83705647730104e+004,-2.16770661818276e+001,-1.40052716735670e+000

3.89061978964912e+004,-2.16770973810780e+001,-1.42007336126538e+000

3.94493081797342e+004,-2.16771294559973e+001,-1.43989222191383e+000

3.99999999999998e+004,-2.16771624311206e+001,-1.45998754763941e+000

4.05583791916010e+004,-2.16771963316685e+001,-1.48036318946549e+000

4.11245530662425e+004,-2.16772311835655e+001,-1.50102305182504e+000

4.16986304336447e+004,-2.16772670134595e+001,-1.52197109329138e+000

4.22807216224550e+004,-2.16773038487423e+001,-1.54321132731714e+000

4.28709385014515e+004,-2.16773417175699e+001,-1.56474782298634e+000

4.34693945010421e+004,-2.16773806488835e+001,-1.58658470577308e+000

4.40762046350642e+004,-2.16774206724314e+001,-1.60872615831218e+000

4.46914855228886e+004,-2.16774618187916e+001,-1.63117642117873e+000

4.53153554118317e+004,-2.16775041193942e+001,-1.65393979367876e+000

4.59479341998812e+004,-2.16775476065451e+001,-1.67702063464901e+000

4.65893434587380e+004,-2.16775923134506e+001,-1.70042336326761e+000

4.72397064571810e+004,-2.16776382742417e+001,-1.72415245987595e+000

4.78991481847569e+004,-2.16776855240000e+001,-1.74821246680967e+000

4.85677953758016e+004,-2.16777340987836e+001,-1.77260798924217e+000

4.92457765337964e+004,-2.16777840356543e+001,-1.79734369603676e+000

4.99332219560642e+004,-2.16778353727050e+001,-1.82242432061144e+000

5.06302637588109e+004,-2.16778881490883e+001,-1.84785466181459e+000

5.13370359025159e+004,-2.16779424050456e+001,-1.87363958481025e+000

5.20536742176771e+004,-2.16779981819367e+001,-1.89978402197743e+000

5.27803164309155e+004,-2.16780555222712e+001,-1.92629297381752e+000

5.35171021914442e+004,-2.16781144697395e+001,-1.95317150987606e+000

5.42641730979066e+004,-2.16781750692454e+001,-1.98042476967383e+000

5.50216727255895e+004,-2.16782373669394e+001,-2.00805796365247e+000

5.57897466540159e+004,-2.16783014102528e+001,-2.03607637412817e+000

5.65685424949235e+004,-2.16783672479327e+001,-2.06448535626041e+000

5.73582099206328e+004,-2.16784349300786e+001,-2.09329033903104e+000

5.81589006928121e+004,-2.16785045081782e+001,-2.12249682623732e+000

5.89707686916437e+004,-2.16785760351466e+001,-2.15211039749503e+000

5.97939699453972e+004,-2.16786495653645e+001,-2.18213670925433e+000

6.06286626604156e+004,-2.16787251547182e+001,-2.21258149583046e+000

6.14750072515201e+004,-2.16788028606411e+001,-2.24345057044417e+000

6.23331663728396e+004,-2.16788827421555e+001,-2.27474982627601e+000

6.32033049490698e+004,-2.16789648599157e+001,-2.30648523753384e+000

6.40855902071694e+004,-2.16790492762526e+001,-2.33866286053266e+000

6.49801917084985e+004,-2.16791360552193e+001,-2.37128883478669e+000

6.58872813814055e+004,-2.16792252626376e+001,-2.40436938411731e+000

6.68070335542691e+004,-2.16793169661461e+001,-2.43791081777057e+000

6.77396249890018e+004,-2.16794112352494e+001,-2.47191953155080e+000

6.86852349150199e+004,-2.16795081413681e+001,-2.50640200896644e+000

6.96440450636895e+004,-2.16796077578916e+001,-2.54136482238893e+000

7.06162397032520e+004,-2.16797101602303e+001,-2.57681463422679e+000

7.16020056742374e+004,-2.16798154258703e+001,-2.61275819811169e+000

7.26015324253724e+004,-2.16799236344295e+001,-2.64920236009944e+000

7.36150120499896e+004,-2.16800348677149e+001,-2.68615405988376e+000

7.46426393229441e+004,-2.16801492097814e+001,-2.72362033202538e+000

7.56846117380472e+004,-2.16802667469918e+001,-2.76160830719348e+000

7.67411295460207e+004,-2.16803875680792e+001,-2.80012521342327e+000

7.78123957929823e+004,-2.16805117642099e+001,-2.83917837738540e+000

7.88986163594682e+004,-2.16806394290487e+001,-2.87877522567169e+000

7.99999999999995e+004,-2.16807706588256e+001,-2.91892328609386e+000

8.11167583832018e+004,-2.16809055524039e+001,-2.95963018899719e+000

8.22491061324848e+004,-2.16810442113505e+001,-3.00090366858859e+000

8.33972608672892e+004,-2.16811867400078e+001,-3.04275156427870e+000

8.45614432449099e+004,-2.16813332455669e+001,-3.08518182203910e+000

8.57418770029029e+004,-2.16814838381435e+001,-3.12820249577427e+000

8.69387890020841e+004,-2.16816386308549e+001,-3.17182174870742e+000

8.81524092701283e+004,-2.16817977398996e+001,-3.21604785478108e+000

8.93829710457770e+004,-2.16819612846379e+001,-3.26088920007385e+000

9.06307108236633e+004,-2.16821293876757e+001,-3.30635428422964e+000

9.18958683997622e+004,-2.16823021749491e+001,-3.35245172190366e+000

9.31786869174758e+004,-2.16824797758123e+001,-3.39919024422195e+000

9.44794129143618e+004,-2.16826623231263e+001,-3.44657870025683e+000

9.57982963695136e+004,-2.16828499533511e+001,-3.49462605851565e+000

9.71355907516031e+004,-2.16830428066388e+001,-3.54334140844607e+000

9.84915530675926e+004,-2.16832410269302e+001,-3.59273396195500e+000

9.98664439121282e+004,-2.16834447620525e+001,-3.64281305494311e+000

1.01260527517622e+005,-2.16836541638203e+001,-3.69358814885353e+000

1.02674071805032e+005,-2.16838693881383e+001,-3.74506883223616e+000

1.04107348435354e+005,-2.16840905951068e+001,-3.79726482232608e+000

1.05560632861831e+005,-2.16843179491297e+001,-3.85018596663622e+000

1.07034204382888e+005,-2.16845516190240e+001,-3.90384224456751e+000

1.08528346195813e+005,-2.16847917781340e+001,-3.95824376902945e+000

1.10043345451179e+005,-2.16850386044456e+001,-4.01340078807886e+000

1.11579493308032e+005,-2.16852922807050e+001,-4.06932368657238e+000

1.13137084989847e+005,-2.16855529945393e+001,-4.12602298783223e+000

1.14716419841265e+005,-2.16858209385799e+001,-4.18350935532747e+000

1.16317801385624e+005,-2.16860963105889e+001,-4.24179359437002e+000

1.17941537383287e+005,-2.16863793135882e+001,-4.30088665382443e+000

1.19587939890794e+005,-2.16866701559912e+001,-4.36079962783158e+000

1.21257325320831e+005,-2.16869690517377e+001,-4.42154375754707e+000

1.22950014503040e+005,-2.16872762204319e+001,-4.48313043289423e+000

1.24666332745679e+005,-2.16875918874825e+001,-4.54557119432960e+000

1.26406609898139e+005,-2.16879162842471e+001,-4.60887773462316e+000

1.28171180414339e+005,-2.16882496481788e+001,-4.67306190065227e+000

1.29960383416997e+005,-2.16885922229757e+001,-4.73813569520971e+000

1.31774562762811e+005,-2.16889442587345e+001,-4.80411127882380e+000

1.33614067108538e+005,-2.16893060121064e+001,-4.87100097159283e+000

1.35479249978003e+005,-2.16896777464567e+001,-4.93881725503309e+000

1.37370469830040e+005,-2.16900597320273e+001,-5.00757277393866e+000

1.39288090127379e+005,-2.16904522461028e+001,-5.07728033825604e+000

1.41232479406504e+005,-2.16908555731799e+001,-5.14795292496913e+000

1.43204011348474e+005,-2.16912700051401e+001,-5.21960367999884e+000

1.45203064850745e+005,-2.16916958414254e+001,-5.29224592011529e+000

1.47230024099979e+005,-2.16921333892184e+001,-5.36589313485952e+000

1.49285278645888e+005,-2.16925829636245e+001,-5.44055898848140e+000

1.51369223476094e+005,-2.16930448878592e+001,-5.51625732188633e+000

1.53482259092041e+005,-2.16935194934375e+001,-5.59300215459542e+000

1.55624791585964e+005,-2.16940071203674e+001,-5.67080768671666e+000

1.57797232718936e+005,-2.16945081173474e+001,-5.74968830092822e+000

1.59999999999999e+005,-2.16950228419669e+001,-5.82965856447258e+000

1.62233516766403e+005,-2.16955516609101e+001,-5.91073323116207e+000

1.64498212264969e+005,-2.16960949501649e+001,-5.99292724339563e+000

1.66794521734578e+005,-2.16966530952337e+001,-6.07625573418625e+000

1.69122886489819e+005,-2.16972264913487e+001,-6.16073402919988e+000

1.71483754005805e+005,-2.16978155436914e+001,-6.24637764880377e+000

1.73877578004168e+005,-2.16984206676148e+001,-6.33320231012703e+000

1.76304818540256e+005,-2.16990422888697e+001,-6.42122392913016e+000

1.78765942091554e+005,-2.16996808438355e+001,-6.51045862268594e+000

1.81261421647326e+005,-2.17003367797533e+001,-6.60092271067029e+000

1.83791736799524e+005,-2.17010105549640e+001,-6.69263271806351e+000

1.86357373834951e+005,-2.17017026391495e+001,-6.78560537706158e+000

1.88958825828723e+005,-2.17024135135781e+001,-6.87985762919782e+000

1.91596592739027e+005,-2.17031436713534e+001,-6.97540662747435e+000

1.94271181503206e+005,-2.17038936176668e+001,-7.07226973850481e+000

1.96983106135185e+005,-2.17046638700543e+001,-7.17046454466549e+000

1.99732887824256e+005,-2.17054549586570e+001,-7.27000884625939e+000

2.02521055035243e+005,-2.17062674264850e+001,-7.37092066368807e+000

2.05348143610063e+005,-2.17071018296856e+001,-7.47321823963573e+000

2.08214696870707e+005,-2.17079587378148e+001,-7.57692004126360e+000

2.11121265723661e+005,-2.17088387341135e+001,-7.68204476241522e+000

2.14068408765776e+005,-2.17097424157864e+001,-7.78861132583295e+000

2.17056692391625e+005,-2.17106703942861e+001,-7.89663888538544e+000

2.20086690902357e+005,-2.17116232955995e+001,-8.00614682830815e+000

2.23158986616063e+005,-2.17126017605397e+001,-8.11715477745415e+000

2.26274169979693e+005,-2.17136064450404e+001,-8.22968259355950e+000

2.29432839682530e+005,-2.17146380204556e+001,-8.34375037751913e+000

2.32635602771247e+005,-2.17156971738618e+001,-8.45937847267864e+000

2.35883074766574e+005,-2.17167846083658e+001,-8.57658746713827e+000

2.39175879781588e+005,-2.17179010434148e+001,-8.69539819607218e+000

2.42514650641661e+005,-2.17190472151124e+001,-8.81583174406292e+000

2.45900029006080e+005,-2.17202238765374e+001,-8.93790944745123e+000

2.49332665491357e+005,-2.17214317980674e+001,-9.06165289670270e+000

2.52813219796278e+005,-2.17226717677067e+001,-9.18708393879201e+000

2.56342360828676e+005,-2.17239445914183e+001,-9.31422467960504e+000

2.59920766833993e+005,-2.17252510934610e+001,-9.44309748635918e+000

2.63549125525621e+005,-2.17265921167303e+001,-9.57372499004577e+000

2.67228134217075e+005,-2.17279685231045e+001,-9.70613008789058e+000

2.70958499956006e+005,-2.17293811937959e+001,-9.84033594583773e+000

2.74740939660078e+005,-2.17308310297063e+001,-9.97636600105687e+000

2.78576180254757e+005,-2.17323189517886e+001,-1.01142439644723e+001

2.82464958813007e+005,-2.17338459014127e+001,-1.02539938233192e+001

2.86408022696948e+005,-2.17354128407386e+001,-1.03956398437246e+001

2.90406129701488e+005,-2.17370207530936e+001,-1.05392065733157e+001

2.94460048199957e+005,-2.17386706433567e+001,-1.06847188438569e+001

2.98570557291775e+005,-2.17403635383494e+001,-1.08322017739151e+001

3.02738446952187e+005,-2.17421004872328e+001,-1.09816807715573e+001

3.06964518184081e+005,-2.17438825619119e+001,-1.11331815370777e+001

3.11249583171928e+005,-2.17457108574474e+001,-1.12867300657587e+001

3.15594465437872e+005,-2.17475864924754e+001,-1.14423526506649e+001

3.19999999999997e+005,-2.17495106096352e+001,-1.16000758854722e+001

3.24467033532806e+005,-2.17514843760059e+001,-1.17599266673311e+001

3.28996424529938e+005,-2.17535089835520e+001,-1.19219321997672e+001

3.33589043469155e+005,-2.17555856495794e+001,-1.20861199956184e+001

3.38245772979638e+005,-2.17577156172005e+001,-1.22525178800089e+001

3.42967508011610e+005,-2.17599001558119e+001,-1.24211539933607e+001

3.47755156008335e+005,-2.17621405615815e+001,-1.25920567944444e+001

3.52609637080511e+005,-2.17644381579499e+001,-1.27652550634668e+001

3.57531884183106e+005,-2.17667942961434e+001,-1.29407779051961e+001

3.62522843294651e+005,-2.17692103557010e+001,-1.31186547521258e+001

3.67583473599047e+005,-2.17716877450159e+001,-1.32989153676739e+001

3.72714747669902e+005,-2.17742279018920e+001,-1.34815898494193e+001

3.77917651657445e+005,-2.17768322941171e+001,-1.36667086323709e+001

3.83193185478053e+005,-2.17795024200520e+001,-1.38543024922719e+001

3.88542363006410e+005,-2.17822398092389e+001,-1.40444025489328e+001

3.93966212270369e+005,-2.17850460230269e+001,-1.42370402695948e+001

3.99465775648511e+005,-2.17879226552190e+001,-1.44322474723174e+001

4.05042110070485e+005,-2.17908713327386e+001,-1.46300563293900e+001

4.10696287220124e+005,-2.17938937163187e+001,-1.48304993707610e+001

4.16429393741414e+005,-2.17969915012130e+001,-1.50336094874828e+001

4.22242531447321e+005,-2.18001664179318e+001,-1.52394199351645e+001

4.28136817531551e+005,-2.18034202330020e+001,-1.54479643374314e+001

4.34113384783250e+005,-2.18067547497541e+001,-1.56592766893812e+001

4.40173381804713e+005,-2.18101718091348e+001,-1.58733913610327e+001

4.46317973232124e+005,-2.18136732905493e+001,-1.60903431007586e+001

4.52548339959385e+005,-2.18172611127315e+001,-1.63101670386960e+001

4.58865679365059e+005,-2.18209372346450e+001,-1.65328986901238e+001

4.65271205542494e+005,-2.18247036564151e+001,-1.67585739587998e+001

4.71766149533147e+005,-2.18285624202931e+001,-1.69872291402456e+001

4.78351759563174e+005,-2.18325156116528e+001,-1.72189009249712e+001

4.85029301283321e+005,-2.18365653600225e+001,-1.74536264016240e+001

4.91800058012158e+005,-2.18407138401503e+001,-1.76914430600539e+001

4.98665330982714e+005,-2.18449632731054e+001,-1.79323887942781e+001

5.05626439592555e+005,-2.18493159274156e+001,-1.81765019053344e+001

5.12684721657352e+005,-2.18537741202418e+001,-1.84238211040073e+001

5.19841533667984e+005,-2.18583402185887e+001,-1.86743855134112e+001

5.27098251051240e+005,-2.18630166405544e+001,-1.89282346714158e+001

5.34456268434150e+005,-2.18678058566173e+001,-1.91854085328968e+001

5.41916999912011e+005,-2.18727103909603e+001,-1.94459474717936e+001

