Freq.,VOut,OutRef

1.00000000000000e+004,-1.46751181494055e+001,-1.26882822939616e-001

1.01395947979003e+004,-1.46751184040379e+001,-1.28654023792470e-001

1.02811382665607e+004,-1.46751186658272e+001,-1.30449948950425e-001

1.04246576084112e+004,-1.46751189349744e+001,-1.32270943521431e-001

1.05701804056138e+004,-1.46751192116862e+001,-1.34117357429477e-001

1.07177346253629e+004,-1.46751194961750e+001,-1.35989545481074e-001

1.08673486252606e+004,-1.46751197886597e+001,-1.37887867433946e-001

1.10190511587661e+004,-1.46751200893648e+001,-1.39812688065430e-001

1.11728713807222e+004,-1.46751203985211e+001,-1.41764377248085e-001

1.13288388529580e+004,-1.46751207163663e+001,-1.43743310009986e-001

1.14869835499703e+004,-1.46751210431444e+001,-1.45749866616510e-001

1.16473358646846e+004,-1.46751213791062e+001,-1.47784432639440e-001

1.18099266142953e+004,-1.46751217245100e+001,-1.49847399028824e-001

1.19747870461893e+004,-1.46751220796209e+001,-1.51939162191935e-001

1.21419488439505e+004,-1.46751224447116e+001,-1.54060124067871e-001

1.23114441334492e+004,-1.46751228200626e+001,-1.56210692203773e-001

1.24833054890161e+004,-1.46751232059620e+001,-1.58391279833331e-001

1.26575659397028e+004,-1.46751236027061e+001,-1.60602305958087e-001

1.28342589756290e+004,-1.46751240105998e+001,-1.62844195424206e-001

1.30134185544193e+004,-1.46751244299559e+001,-1.65117379008548e-001

1.31950791077289e+004,-1.46751248610966e+001,-1.67422293495644e-001

1.33792755478611e+004,-1.46751253043529e+001,-1.69759381767804e-001

1.35660432744767e+004,-1.46751257600651e+001,-1.72129092884598e-001

1.37554181813974e+004,-1.46751262285830e+001,-1.74531882172270e-001

1.39474366635040e+004,-1.46751267102663e+001,-1.76968211311049e-001

1.41421356237309e+004,-1.46751272054849e+001,-1.79438548419862e-001

1.43395524801583e+004,-1.46751277146187e+001,-1.81943368152563e-001

1.45397251732031e+004,-1.46751282380587e+001,-1.84483151783364e-001

1.47426921729110e+004,-1.46751287762066e+001,-1.87058387301478e-001

1.49484924863494e+004,-1.46751293294755e+001,-1.89669569504169e-001

1.51571656651040e+004,-1.46751298982898e+001,-1.92317200094508e-001

1.53687518128801e+004,-1.46751304830863e+001,-1.95001787771438e-001

1.55832915932100e+004,-1.46751310843136e+001,-1.97723848332167e-001

1.58008262372675e+004,-1.46751317024333e+001,-2.00483904769815e-001

1.60213975517924e+004,-1.46751323379194e+001,-2.03282487375053e-001

1.62450479271247e+004,-1.46751329912596e+001,-2.06120133834020e-001

1.64718203453514e+004,-1.46751336629554e+001,-2.08997389333888e-001

1.67017583885674e+004,-1.46751343535219e+001,-2.11914806668782e-001

1.69349062472505e+004,-1.46751350634889e+001,-2.14872946342866e-001

1.71713087287550e+004,-1.46751357934011e+001,-2.17872376679603e-001

1.74110112659224e+004,-1.46751365438183e+001,-2.20913673929547e-001

1.76540599258131e+004,-1.46751373153162e+001,-2.23997422381210e-001

1.79005014185594e+004,-1.46751381084865e+001,-2.27124214473342e-001

1.81503831063432e+004,-1.46751389239374e+001,-2.30294650908283e-001

1.84037530124975e+004,-1.46751397622943e+001,-2.33509340766626e-001

1.86606598307361e+004,-1.46751406242002e+001,-2.36768901623588e-001

1.89211529345119e+004,-1.46751415103159e+001,-2.40073959668367e-001

1.91852823865052e+004,-1.46751424213205e+001,-2.43425149824869e-001

1.94530989482457e+004,-1.46751433579129e+001,-2.46823115869456e-001

1.97246540898671e+004,-1.46751443208109e+001,-2.50268510557428e-001

1.99999999999999e+004,-1.46751453107524e+001,-2.53761995749130e-001

2.02791895958005e+004,-1.46751463284964e+001,-2.57304242532324e-001

2.05622765331213e+004,-1.46751473748228e+001,-2.60895931354709e-001

2.08493152168224e+004,-1.46751484505335e+001,-2.64537752151128e-001

2.11403608112276e+004,-1.46751495564527e+001,-2.68230404478547e-001

2.14354692507258e+004,-1.46751506934278e+001,-2.71974597647883e-001

2.17346972505211e+004,-1.46751518623298e+001,-2.75771050859430e-001

2.20381023175322e+004,-1.46751530640544e+001,-2.79620493340899e-001

2.23457427614443e+004,-1.46751542995215e+001,-2.83523664490188e-001

2.26576777059159e+004,-1.46751555696781e+001,-2.87481314008774e-001

2.29739670999406e+004,-1.46751568754964e+001,-2.91494202055045e-001

2.32946717293690e+004,-1.46751582179764e+001,-2.95563099381782e-001

2.36198532285905e+004,-1.46751595981460e+001,-2.99688787486683e-001

2.39495740923785e+004,-1.46751610170618e+001,-3.03872058762233e-001

2.42838976879009e+004,-1.46751624758099e+001,-3.08113716645835e-001

2.46228882668982e+004,-1.46751639755069e+001,-3.12414575773115e-001

2.49666109780322e+004,-1.46751655173003e+001,-3.16775462136221e-001

2.53151318794055e+004,-1.46751671023701e+001,-3.21197213236917e-001

2.56685179512580e+004,-1.46751687319288e+001,-3.25680678251023e-001

2.60268371088386e+004,-1.46751704072230e+001,-3.30226718189261e-001

2.63901582154578e+004,-1.46751721295343e+001,-3.34836206059095e-001

2.67585510957221e+004,-1.46751739001795e+001,-3.39510027035405e-001

2.71320865489533e+004,-1.46751757205128e+001,-3.44249078625816e-001

2.75108363627948e+004,-1.46751775919259e+001,-3.49054270843804e-001

2.78948733270080e+004,-1.46751795158492e+001,-3.53926526383126e-001

2.82842712474618e+004,-1.46751814937531e+001,-3.58866780792016e-001

2.86791049603164e+004,-1.46751835271493e+001,-3.63875982651432e-001

2.90794503464061e+004,-1.46751856175911e+001,-3.68955093757911e-001

2.94853843458219e+004,-1.46751877666756e+001,-3.74105089304755e-001

2.98969849726987e+004,-1.46751899760441e+001,-3.79326958069508e-001

3.03143313302078e+004,-1.46751922473839e+001,-3.84621702600398e-001

3.07375036257601e+004,-1.46751945824290e+001,-3.89990339409875e-001

3.11665831864199e+004,-1.46751969829618e+001,-3.95433899165840e-001

3.16016524745350e+004,-1.46751994508144e+001,-4.00953426888855e-001

3.20427951035848e+004,-1.46752019878698e+001,-4.06549982151727e-001

3.24900958542493e+004,-1.46752045960634e+001,-4.12224639279271e-001

3.29436406907028e+004,-1.46752072773848e+001,-4.17978487553366e-001

3.34035167771346e+004,-1.46752100338781e+001,-4.23812631422149e-001

3.38698124945009e+004,-1.46752128676450e+001,-4.29728190706907e-001

3.43426174575100e+004,-1.46752157808453e+001,-4.35726300815962e-001

3.48220225318448e+004,-1.46752187756989e+001,-4.41808112961407e-001

3.53081198516260e+004,-1.46752218544871e+001,-4.47974794377128e-001

3.58010028371187e+004,-1.46752250195550e+001,-4.54227528538630e-001

3.63007662126863e+004,-1.46752282733121e+001,-4.60567515391863e-001

3.68075060249948e+004,-1.46752316182356e+001,-4.66995971575685e-001

3.73213196614721e+004,-1.46752350568707e+001,-4.73514130657088e-001

3.78423058690237e+004,-1.46752385918335e+001,-4.80123243361900e-001

3.83705647730104e+004,-1.46752422258124e+001,-4.86824577814322e-001

3.89061978964912e+004,-1.46752459615705e+001,-4.93619419775091e-001

3.94493081797342e+004,-1.46752498019472e+001,-5.00509072886307e-001

3.99999999999998e+004,-1.46752537498606e+001,-5.07494858917659e-001

4.05583791916010e+004,-1.46752578083096e+001,-5.14578118016461e-001

4.11245530662425e+004,-1.46752619803756e+001,-5.21760208961741e-001

4.16986304336447e+004,-1.46752662692258e+001,-5.29042509420249e-001

4.22807216224550e+004,-1.46752706781144e+001,-5.36426416207960e-001

4.28709385014515e+004,-1.46752752103857e+001,-5.43913345551778e-001

4.34693945010421e+004,-1.46752798694762e+001,-5.51504733360042e-001

4.40762046350642e+004,-1.46752846589170e+001,-5.59202035491162e-001

4.46914855228886e+004,-1.46752895823370e+001,-5.67006728027967e-001

4.53153554118317e+004,-1.46752946434648e+001,-5.74920307557839e-001

4.59479341998812e+004,-1.46752998461316e+001,-5.82944291453728e-001

4.65893434587380e+004,-1.46753051942742e+001,-5.91080218159363e-001

4.72397064571810e+004,-1.46753106919374e+001,-5.99329647479732e-001

4.78991481847569e+004,-1.46753163432778e+001,-6.07694160873182e-001

4.85677953758016e+004,-1.46753221525654e+001,-6.16175361750291e-001

4.92457765337964e+004,-1.46753281241879e+001,-6.24774875775225e-001

4.99332219560642e+004,-1.46753342626533e+001,-6.33494351168637e-001

5.06302637588109e+004,-1.46753405725930e+001,-6.42335459018618e-001

5.13370359025159e+004,-1.46753470587655e+001,-6.51299893595282e-001

5.20536742176771e+004,-1.46753537260594e+001,-6.60389372665923e-001

5.27803164309155e+004,-1.46753605794970e+001,-6.69605637817841e-001

5.35171021914442e+004,-1.46753676242380e+001,-6.78950454784098e-001

5.42641730979066e+004,-1.46753748655828e+001,-6.88425613774270e-001

5.50216727255895e+004,-1.46753823089766e+001,-6.98032929808129e-001

5.57897466540159e+004,-1.46753899600131e+001,-7.07774243054822e-001

5.65685424949235e+004,-1.46753978244382e+001,-7.17651419176322e-001

5.73582099206328e+004,-1.46754059081542e+001,-7.27666349676338e-001

5.81589006928121e+004,-1.46754142172239e+001,-7.37820952250089e-001

5.89707686916437e+004,-1.46754227578750e+001,-7.48117171143894e-001

5.97939699453972e+004,-1.46754315365039e+001,-7.58556977514830e-001

6.06286626604156e+004,-1.46754405596804e+001,-7.69142369799296e-001

6.14750072515201e+004,-1.46754498341524e+001,-7.79875374081271e-001

6.23331663728396e+004,-1.46754593668503e+001,-7.90758044470438e-001

6.32033049490698e+004,-1.46754691648918e+001,-8.01792463480668e-001

6.40855902071694e+004,-1.46754792355866e+001,-8.12980742417425e-001

6.49801917084985e+004,-1.46754895864415e+001,-8.24325021768201e-001

6.58872813814055e+004,-1.46755002251656e+001,-8.35827471596308e-001

6.68070335542691e+004,-1.46755111596751e+001,-8.47490291943190e-001

6.77396249890018e+004,-1.46755223980990e+001,-8.59315713232458e-001

6.86852349150199e+004,-1.46755339487844e+001,-8.71305996682784e-001

6.96440450636895e+004,-1.46755458203019e+001,-8.83463434721390e-001

7.06162397032520e+004,-1.46755580214513e+001,-8.95790351408044e-001

7.16020056742374e+004,-1.46755705612677e+001,-9.08289102858830e-001

7.26015324253724e+004,-1.46755834490271e+001,-9.20962077680133e-001

7.36150120499896e+004,-1.46755966942525e+001,-9.33811697405873e-001

7.46426393229441e+004,-1.46756103067203e+001,-9.46840416939387e-001

7.56846117380472e+004,-1.46756242964664e+001,-9.60050725001630e-001

7.67411295460207e+004,-1.46756386737926e+001,-9.73445144587345e-001

7.78123957929823e+004,-1.46756534492736e+001,-9.87026233422322e-001

7.88986163594682e+004,-1.46756686337629e+001,-1.00079658443018e+000

7.99999999999995e+004,-1.46756842384009e+001,-1.01475882620169e+000

8.11167583832018e+004,-1.46757002746205e+001,-1.02891562347461e+000

8.22491061324848e+004,-1.46757167541556e+001,-1.04326967761285e+000

8.33972608672892e+004,-1.46757336890472e+001,-1.05782372709828e+000

8.45614432449099e+004,-1.46757510916515e+001,-1.07258054802369e+000

8.57418770029029e+004,-1.46757689746474e+001,-1.08754295459320e+000

8.69387890020841e+004,-1.46757873510441e+001,-1.10271379963011e+000

8.81524092701283e+004,-1.46758062341890e+001,-1.11809597508923e+000

8.93829710457770e+004,-1.46758256377756e+001,-1.13369241257535e+000

9.06307108236633e+004,-1.46758455758518e+001,-1.14950608386940e+000

9.18958683997622e+004,-1.46758660628280e+001,-1.16554000145967e+000

9.31786869174758e+004,-1.46758871134858e+001,-1.18179721907963e+000

9.44794129143618e+004,-1.46759087429865e+001,-1.19828083225211e+000

9.57982963695136e+004,-1.46759309668794e+001,-1.21499397884086e+000

9.71355907516031e+004,-1.46759538011114e+001,-1.23193983960662e+000

9.84915530675926e+004,-1.46759772620355e+001,-1.24912163877200e+000

9.98664439121282e+004,-1.46760013664199e+001,-1.26654264459200e+000

1.01260527517622e+005,-1.46760261314575e+001,-1.28420616992996e+000

1.02674071805032e+005,-1.46760515747754e+001,-1.30211557284298e+000

1.04107348435354e+005,-1.46760777144442e+001,-1.32027425717183e+000

1.05560632861831e+005,-1.46761045689875e+001,-1.33868567313892e+000

1.07034204382888e+005,-1.46761321573924e+001,-1.35735331795142e+000

1.08528346195813e+005,-1.46761604991188e+001,-1.37628073641492e+000

1.10043345451179e+005,-1.46761896141096e+001,-1.39547152154989e+000

1.11579493308032e+005,-1.46762195228010e+001,-1.41492931521846e+000

1.13137084989847e+005,-1.46762502461326e+001,-1.43465780875564e+000

1.14716419841265e+005,-1.46762818055577e+001,-1.45466074361102e+000

1.16317801385624e+005,-1.46763142230542e+001,-1.47494191199458e+000

1.17941537383287e+005,-1.46763475211347e+001,-1.49550515753092e+000

1.19587939890794e+005,-1.46763817228575e+001,-1.51635437592173e+000

1.21257325320831e+005,-1.46764168518368e+001,-1.53749351561517e+000

1.22950014503040e+005,-1.46764529322542e+001,-1.55892657848164e+000

1.24666332745679e+005,-1.46764899888690e+001,-1.58065762049898e+000

1.26406609898139e+005,-1.46765280470294e+001,-1.60269075244349e+000

1.28171180414339e+005,-1.46765671326832e+001,-1.62503014059132e+000

1.29960383416997e+005,-1.46766072723892e+001,-1.64768000742313e+000

1.31774562762811e+005,-1.46766484933277e+001,-1.67064463234229e+000

1.33614067108538e+005,-1.46766908233119e+001,-1.69392835239570e+000

1.35479249978003e+005,-1.46767342907984e+001,-1.71753556300654e+000

1.37370469830040e+005,-1.46767789248989e+001,-1.74147071871301e+000

1.39288090127379e+005,-1.46768247553905e+001,-1.76573833391575e+000

1.41232479406504e+005,-1.46768718127267e+001,-1.79034298363391e+000

1.43204011348474e+005,-1.46769201280484e+001,-1.81528930426921e+000

1.45203064850745e+005,-1.46769697331948e+001,-1.84058199437752e+000

1.47230024099979e+005,-1.46770206607132e+001,-1.86622581545176e+000

1.49285278645888e+005,-1.46770729438706e+001,-1.89222559271043e+000

1.51369223476094e+005,-1.46771266166631e+001,-1.91858621589648e+000

1.53482259092041e+005,-1.46771817138265e+001,-1.94531264008547e+000

1.55624791585964e+005,-1.46772382708464e+001,-1.97240988649996e+000

1.57797232718936e+005,-1.46772963239676e+001,-1.99988304333851e+000

1.59999999999999e+005,-1.46773559102039e+001,-2.02773726660729e+000

1.62233516766403e+005,-1.46774170673472e+001,-2.05597778096658e+000

1.64498212264969e+005,-1.46774798339767e+001,-2.08460988058383e+000

1.66794521734578e+005,-1.46775442494670e+001,-2.11363892999844e+000

1.69122886489819e+005,-1.46776103539971e+001,-2.14307036499374e+000

1.71483754005805e+005,-1.46776781885577e+001,-2.17290969348203e+000

1.73877578004168e+005,-1.46777477949588e+001,-2.20316249639857e+000

1.76304818540256e+005,-1.46778192158372e+001,-2.23383442860591e+000

1.78765942091554e+005,-1.46778924946621e+001,-2.26493121980940e+000

1.81261421647326e+005,-1.46779676757420e+001,-2.29645867548413e+000

1.83791736799524e+005,-1.46780448042295e+001,-2.32842267781126e+000

1.86357373834951e+005,-1.46781239261269e+001,-2.36082918662817e+000

1.88958825828723e+005,-1.46782050882895e+001,-2.39368424038932e+000

1.91596592739027e+005,-1.46782883384299e+001,-2.42699395713848e+000

1.94271181503206e+005,-1.46783737251202e+001,-2.46076453549494e+000

1.96983106135185e+005,-1.46784612977945e+001,-2.49500225565115e+000

1.99732887824256e+005,-1.46785511067502e+001,-2.52971348038380e+000

2.02521055035243e+005,-1.46786432031480e+001,-2.56490465607865e+000

2.05348143610063e+005,-1.46787376390117e+001,-2.60058231376894e+000

2.08214696870707e+005,-1.46788344672267e+001,-2.63675307018791e+000

2.11121265723661e+005,-1.46789337415376e+001,-2.67342362883662e+000

2.14068408765776e+005,-1.46790355165449e+001,-2.71060078106667e+000

2.17056692391625e+005,-1.46791398477002e+001,-2.74829140717820e+000

2.20086690902357e+005,-1.46792467913010e+001,-2.78650247753446e+000

2.23158986616063e+005,-1.46793564044834e+001,-2.82524105369325e+000

2.26274169979693e+005,-1.46794687452145e+001,-2.86451428955590e+000

2.29432839682530e+005,-1.46795838722831e+001,-2.90432943253353e+000

2.32635602771247e+005,-1.46797018452891e+001,-2.94469382473222e+000

2.35883074766574e+005,-1.46798227246314e+001,-2.98561490415759e+000

2.39175879781588e+005,-1.46799465714950e+001,-3.02710020593993e+000

2.42514650641661e+005,-1.46800734478361e+001,-3.06915736357847e+000

2.45900029006080e+005,-1.46802034163661e+001,-3.11179411020866e+000

2.49332665491357e+005,-1.46803365405336e+001,-3.15501827989098e+000

2.52813219796278e+005,-1.46804728845056e+001,-3.19883780892413e+000

2.56342360828676e+005,-1.46806125131467e+001,-3.24326073717954e+000

2.59920766833993e+005,-1.46807554919968e+001,-3.28829520946451e+000

2.63549125525621e+005,-1.46809018872467e+001,-3.33394947690874e+000

2.67228134217075e+005,-1.46810517657134e+001,-3.38023189837816e+000

2.70958499956006e+005,-1.46812051948121e+001,-3.42715094191768e+000

2.74740939660078e+005,-1.46813622425278e+001,-3.47471518622245e+000

2.78576180254757e+005,-1.46815229773845e+001,-3.52293332213907e+000

2.82464958813007e+005,-1.46816874684135e+001,-3.57181415419867e+000

2.86408022696948e+005,-1.46818557851188e+001,-3.62136660218151e+000

2.90406129701488e+005,-1.46820279974425e+001,-3.67159970271680e+000

2.94460048199957e+005,-1.46822041757270e+001,-3.72252261091693e+000

2.98570557291775e+005,-1.46823843906767e+001,-3.77414460204631e+000

3.02738446952187e+005,-1.46825687133178e+001,-3.82647507323072e+000

3.06964518184081e+005,-1.46827572149566e+001,-3.87952354520352e+000

3.11249583171928e+005,-1.46829499671359e+001,-3.93329966409217e+000

3.15594465437872e+005,-1.46831470415913e+001,-3.98781320324793e+000

3.19999999999997e+005,-1.46833485102044e+001,-4.04307406511749e+000

3.24467033532806e+005,-1.46835544449566e+001,-4.09909228315814e+000

3.28996424529938e+005,-1.46837649178806e+001,-4.15587802380207e+000

3.33589043469155e+005,-1.46839800010108e+001,-4.21344158846453e+000

3.38245772979638e+005,-1.46841997663341e+001,-4.27179341560303e+000

3.42967508011610e+005,-1.46844242857385e+001,-4.33094408282623e+000

3.47755156008335e+005,-1.46846536309619e+001,-4.39090430905454e+000

3.52609637080511e+005,-1.46848878735403e+001,-4.45168495673396e+000

3.57531884183106e+005,-1.46851270847556e+001,-4.51329703410478e+000

3.62522843294651e+005,-1.46853713355839e+001,-4.57575169752545e+000

3.67583473599047e+005,-1.46856206966428e+001,-4.63906025385559e+000

3.72714747669902e+005,-1.46858752381404e+001,-4.70323416289549e+000

3.77917651657445e+005,-1.46861350298239e+001,-4.76828503988751e+000

3.83193185478053e+005,-1.46864001409297e+001,-4.83422465807704e+000

3.88542363006410e+005,-1.46866706401339e+001,-4.90106495133832e+000

3.93966212270369e+005,-1.46869465955052e+001,-4.96881801686046e+000

3.99465775648511e+005,-1.46872280744582e+001,-5.03749611790089e+000

4.05042110070485e+005,-1.46875151437097e+001,-5.10711168660326e+000

4.10696287220124e+005,-1.46878078692370e+001,-5.17767732688109e+000

4.16429393741414e+005,-1.46881063162385e+001,-5.24920581737024e+000

4.22242531447321e+005,-1.46884105490978e+001,-5.32171011444720e+000

4.28136817531551e+005,-1.46887206313506e+001,-5.39520335531726e+000

4.34113384783250e+005,-1.46890366256554e+001,-5.46969886117148e+000

4.40173381804713e+005,-1.46893585937687e+001,-5.54521014041128e+000

4.46317973232124e+005,-1.46896865965240e+001,-5.62175089194427e+000

4.52548339959385e+005,-1.46900206938157e+001,-5.69933500854807e+000

4.58865679365059e+005,-1.46903609445888e+001,-5.77797658030365e+000

4.65271205542494e+005,-1.46907074068333e+001,-5.85768989809739e+000

4.71766149533147e+005,-1.46910601375850e+001,-5.93848945719267e+000

4.78351759563174e+005,-1.46914191929329e+001,-6.02038996086755e+000

4.85029301283321e+005,-1.46917846280332e+001,-6.10340632412069e+000

4.91800058012158e+005,-1.46921564971297e+001,-6.18755367744377e+000

4.98665330982714e+005,-1.46925348535830e+001,-6.27284737065762e+000

5.05626439592555e+005,-1.46929197499070e+001,-6.35930297681318e+000

5.12684721657352e+005,-1.46933112378132e+001,-6.44693629615454e+000

5.19841533667984e+005,-1.46937093682642e+001,-6.53576336014301e+000

5.27098251051240e+005,-1.46941141915364e+001,-6.62580043553871e+000

5.34456268434150e+005,-1.46945257572910e+001,-6.71706402854177e+000

5.41916999912011e+005,-1.46949441146556e+001,-6.80957088898508e+000

