Freq.,VOut,OutRef

1.00000000000000e+004,-2.04603749641613e+001,-3.52998970820730e-001

1.01395947979003e+004,-2.04603767248227e+001,-3.57926593570843e-001

1.02811382665607e+004,-2.04603785349782e+001,-3.62923000854853e-001

1.04246576084112e+004,-2.04603803960189e+001,-3.67989152763556e-001

1.05701804056138e+004,-2.04603823093749e+001,-3.73126022784025e-001

1.07177346253629e+004,-2.04603842765172e+001,-3.78334597987255e-001

1.08673486252606e+004,-2.04603862989571e+001,-3.83615879220418e-001

1.10190511587661e+004,-2.04603883782492e+001,-3.88970881294392e-001

1.11728713807222e+004,-2.04603905159913e+001,-3.94400633183984e-001

1.13288388529580e+004,-2.04603927138263e+001,-3.99906178219732e-001

1.14869835499703e+004,-2.04603949734433e+001,-4.05488574291510e-001

1.16473358646846e+004,-2.04603972965788e+001,-4.11148894050717e-001

1.18099266142953e+004,-2.04603996850179e+001,-4.16888225117291e-001

1.19747870461893e+004,-2.04604021405962e+001,-4.22707670285482e-001

1.21419488439505e+004,-2.04604046652007e+001,-4.28608347737503e-001

1.23114441334492e+004,-2.04604072607715e+001,-4.34591391257974e-001

1.24833054890161e+004,-2.04604099293031e+001,-4.40657950451659e-001

1.26575659397028e+004,-2.04604126728462e+001,-4.46809190961740e-001

1.28342589756290e+004,-2.04604154935089e+001,-4.53046294697157e-001

1.30134185544193e+004,-2.04604183934586e+001,-4.59370460055683e-001

1.31950791077289e+004,-2.04604213749238e+001,-4.65782902155877e-001

1.33792755478611e+004,-2.04604244401955e+001,-4.72284853069220e-001

1.35660432744767e+004,-2.04604275916288e+001,-4.78877562057102e-001

1.37554181813974e+004,-2.04604308316453e+001,-4.85562295809925e-001

1.39474366635040e+004,-2.04604341627347e+001,-4.92340338689029e-001

1.41421356237309e+004,-2.04604375874561e+001,-4.99212992976371e-001

1.43395524801583e+004,-2.04604411084412e+001,-5.06181579118873e-001

1.45397251732031e+004,-2.04604447283951e+001,-5.13247435986048e-001

1.47426921729110e+004,-2.04604484500992e+001,-5.20411921124891e-001

1.49484924863494e+004,-2.04604522764128e+001,-5.27676411019813e-001

1.51571656651040e+004,-2.04604562102756e+001,-5.35042301357422e-001

1.53687518128801e+004,-2.04604602547100e+001,-5.42511007293590e-001

1.55832915932100e+004,-2.04604644128232e+001,-5.50083963723020e-001

1.58008262372675e+004,-2.04604686878097e+001,-5.57762625557218e-001

1.60213975517924e+004,-2.04604730829536e+001,-5.65548468001691e-001

1.62450479271247e+004,-2.04604776016314e+001,-5.73442986837887e-001

1.64718203453514e+004,-2.04604822473144e+001,-5.81447698710863e-001

1.67017583885674e+004,-2.04604870235713e+001,-5.89564141419532e-001

1.69349062472505e+004,-2.04604919340712e+001,-5.97793874210342e-001

1.71713087287550e+004,-2.04604969825862e+001,-6.06138478076932e-001

1.74110112659224e+004,-2.04605021729940e+001,-6.14599556063741e-001

1.76540599258131e+004,-2.04605075092817e+001,-6.23178733570107e-001

1.79005014185594e+004,-2.04605129955480e+001,-6.31877658664232e-001

1.81503831063432e+004,-2.04605186360069e+001,-6.40698002396552e-001

1.84037530124975e+004,-2.04605244349907e+001,-6.49641459121653e-001

1.86606598307361e+004,-2.04605303969531e+001,-6.58709746821003e-001

1.89211529345119e+004,-2.04605365264732e+001,-6.67904607432834e-001

1.91852823865052e+004,-2.04605428282584e+001,-6.77227807183956e-001

1.94530989482457e+004,-2.04605493071484e+001,-6.86681136929391e-001

1.97246540898671e+004,-2.04605559681187e+001,-6.96266412493734e-001

1.99999999999999e+004,-2.04605628162846e+001,-7.05985475018888e-001

2.02791895958005e+004,-2.04605698569049e+001,-7.15840191316621e-001

2.05622765331213e+004,-2.04605770953859e+001,-7.25832454224989e-001

2.08493152168224e+004,-2.04605845372859e+001,-7.35964182970290e-001

2.11403608112276e+004,-2.04605921883191e+001,-7.46237323534375e-001

2.14354692507258e+004,-2.04606000543600e+001,-7.56653849025607e-001

2.17346972505211e+004,-2.04606081414480e+001,-7.67215760057427e-001

2.20381023175322e+004,-2.04606164557921e+001,-7.77925085129338e-001

2.23457427614443e+004,-2.04606250037755e+001,-7.88783881015459e-001

2.26576777059159e+004,-2.04606337919605e+001,-7.99794233156521e-001

2.29739670999406e+004,-2.04606428270935e+001,-8.10958256058850e-001

2.32946717293690e+004,-2.04606521161103e+001,-8.22278093697268e-001

2.36198532285905e+004,-2.04606616661412e+001,-8.33755919925284e-001

2.39495740923785e+004,-2.04606714845164e+001,-8.45393938890935e-001

2.42838976879009e+004,-2.04606815787723e+001,-8.57194385453768e-001

2.46228882668982e+004,-2.04606919566560e+001,-8.69159525616699e-001

2.49666109780322e+004,-2.04607026261323e+001,-8.81291656953641e-001

2.53151318794055e+004,-2.04607135953895e+001,-8.93593109049457e-001

2.56685179512580e+004,-2.04607248728451e+001,-9.06066243945352e-001

2.60268371088386e+004,-2.04607364671534e+001,-9.18713456586201e-001

2.63901582154578e+004,-2.04607483872105e+001,-9.31537175281383e-001

2.67585510957221e+004,-2.04607606421627e+001,-9.44539862162875e-001

2.71320865489533e+004,-2.04607732414123e+001,-9.57724013657947e-001

2.75108363627948e+004,-2.04607861946255e+001,-9.71092160962628e-001

2.78948733270080e+004,-2.04607995117393e+001,-9.84646870524507e-001

2.82842712474618e+004,-2.04608132029694e+001,-9.98390744531335e-001

2.86791049603164e+004,-2.04608272788176e+001,-1.01232642140547e+000

2.90794503464061e+004,-2.04608417500805e+001,-1.02645657630711e+000

2.94853843458219e+004,-2.04608566278567e+001,-1.04078392164313e+000

2.98969849726987e+004,-2.04608719235563e+001,-1.05531120758112e+000

3.03143313302078e+004,-2.04608876489089e+001,-1.07004122257418e+000

3.07375036257601e+004,-2.04609038159726e+001,-1.08497679389080e+000

3.11665831864199e+004,-2.04609204371438e+001,-1.10012078815004e+000

3.16016524745350e+004,-2.04609375251655e+001,-1.11547611186866e+000

3.20427951035848e+004,-2.04609550931382e+001,-1.13104571201047e+000

3.24900958542493e+004,-2.04609731545290e+001,-1.14683257654799e+000

3.29436406907028e+004,-2.04609917231821e+001,-1.16283973502839e+000

3.34035167771346e+004,-2.04610108133295e+001,-1.17907025914677e+000

3.38698124945009e+004,-2.04610304396017e+001,-1.19552726333097e+000

3.43426174575100e+004,-2.04610506170385e+001,-1.21221390533041e+000

3.48220225318448e+004,-2.04610713611008e+001,-1.22913338681495e+000

3.53081198516260e+004,-2.04610926876825e+001,-1.24628895398068e+000

3.58010028371187e+004,-2.04611146131218e+001,-1.26368389816454e+000

3.63007662126863e+004,-2.04611371542144e+001,-1.28132155646766e+000

3.68075060249948e+004,-2.04611603282257e+001,-1.29920531238603e+000

3.73213196614721e+004,-2.04611841529042e+001,-1.31733859645086e+000

3.78423058690237e+004,-2.04612086464947e+001,-1.33572488687616e+000

3.83705647730104e+004,-2.04612338277521e+001,-1.35436771021556e+000

3.89061978964912e+004,-2.04612597159561e+001,-1.37327064202895e+000

3.94493081797342e+004,-2.04612863309249e+001,-1.39243730755697e+000

3.99999999999998e+004,-2.04613136930310e+001,-1.41187138240422e+000

4.05583791916010e+004,-2.04613418232161e+001,-1.43157659323289e+000

4.11245530662425e+004,-2.04613707430071e+001,-1.45155671846347e+000

4.16986304336447e+004,-2.04614004745325e+001,-1.47181558898868e+000

4.22807216224550e+004,-2.04614310405385e+001,-1.49235708889236e+000

4.28709385014515e+004,-2.04614624644070e+001,-1.51318515618082e+000

4.34693945010421e+004,-2.04614947701726e+001,-1.53430378352216e+000

4.40762046350642e+004,-2.04615279825409e+001,-1.55571701899866e+000

4.46914855228886e+004,-2.04615621269069e+001,-1.57742896686453e+000

4.53153554118317e+004,-2.04615972293748e+001,-1.59944378831587e+000

4.59479341998812e+004,-2.04616333167765e+001,-1.62176570227325e+000

4.65893434587380e+004,-2.04616704166929e+001,-1.64439898616956e+000

4.72397064571810e+004,-2.04617085574738e+001,-1.66734797675216e+000

4.78991481847569e+004,-2.04617477682596e+001,-1.69061707089427e+000

4.85677953758016e+004,-2.04617880790029e+001,-1.71421072641699e+000

4.92457765337964e+004,-2.04618295204913e+001,-1.73813346292170e+000

4.99332219560642e+004,-2.04618721243699e+001,-1.76238986263436e+000

5.06302637588109e+004,-2.04619159231656e+001,-1.78698457126000e+000

5.13370359025159e+004,-2.04619609503110e+001,-1.81192229884747e+000

5.20536742176771e+004,-2.04620072401696e+001,-1.83720782066871e+000

5.27803164309155e+004,-2.04620548280612e+001,-1.86284597810542e+000

5.35171021914442e+004,-2.04621037502886e+001,-1.88884167954950e+000

5.42641730979066e+004,-2.04621540441644e+001,-1.91519990131494e+000

5.50216727255895e+004,-2.04622057480389e+001,-1.94192568856060e+000

5.57897466540159e+004,-2.04622589013285e+001,-1.96902415622585e+000

5.65685424949235e+004,-2.04623135445453e+001,-1.99650048997734e+000

5.73582099206328e+004,-2.04623697193269e+001,-2.02435994716861e+000

5.81589006928121e+004,-2.04624274684673e+001,-2.05260785781141e+000

5.89707686916437e+004,-2.04624868359487e+001,-2.08124962555995e+000

5.97939699453972e+004,-2.04625478669745e+001,-2.11029072870621e+000

6.06286626604156e+004,-2.04626106080018e+001,-2.13973672119122e+000

6.14750072515201e+004,-2.04626751067765e+001,-2.16959323362417e+000

6.23331663728396e+004,-2.04627414123682e+001,-2.19986597431855e+000

6.32033049490698e+004,-2.04628095752067e+001,-2.23056073033963e+000

6.40855902071694e+004,-2.04628796471187e+001,-2.26168336856504e+000

6.49801917084985e+004,-2.04629516813663e+001,-2.29323983675825e+000

6.58872813814055e+004,-2.04630257326858e+001,-2.32523616465753e+000

6.68070335542691e+004,-2.04631018573283e+001,-2.35767846507424e+000

6.77396249890018e+004,-2.04631801131004e+001,-2.39057293501008e+000

6.86852349150199e+004,-2.04632605594070e+001,-2.42392585678300e+000

6.96440450636895e+004,-2.04633432572944e+001,-2.45774359917051e+000

7.06162397032520e+004,-2.04634282694950e+001,-2.49203261856518e+000

7.16020056742374e+004,-2.04635156604729e+001,-2.52679946014503e+000

7.26015324253724e+004,-2.04636054964709e+001,-2.56205075905806e+000

7.36150120499896e+004,-2.04636978455589e+001,-2.59779324161954e+000

7.46426393229441e+004,-2.04637927776825e+001,-2.63403372652734e+000

7.56846117380472e+004,-2.04638903647148e+001,-2.67077912608730e+000

7.67411295460207e+004,-2.04639906805071e+001,-2.70803644745740e+000

7.78123957929823e+004,-2.04640938009435e+001,-2.74581279390347e+000

7.88986163594682e+004,-2.04641998039945e+001,-2.78411536607241e+000

7.99999999999995e+004,-2.04643087697739e+001,-2.82295146327765e+000

8.11167583832018e+004,-2.04644207805959e+001,-2.86232848480279e+000

8.22491061324848e+004,-2.04645359210341e+001,-2.90225393121859e+000

8.33972608672892e+004,-2.04646542779825e+001,-2.94273540571423e+000

8.45614432449099e+004,-2.04647759407166e+001,-2.98378061544763e+000

8.57418770029029e+004,-2.04649010009580e+001,-3.02539737290699e+000

8.69387890020841e+004,-2.04650295529393e+001,-3.06759359729075e+000

8.81524092701283e+004,-2.04651616934706e+001,-3.11037731590281e+000

8.93829710457770e+004,-2.04652975220084e+001,-3.15375666556290e+000

9.06307108236633e+004,-2.04654371407260e+001,-3.19773989403229e+000

9.18958683997622e+004,-2.04655806545853e+001,-3.24233536145767e+000

9.31786869174758e+004,-2.04657281714103e+001,-3.28755154182894e+000

9.44794129143618e+004,-2.04658798019635e+001,-3.33339702445377e+000

9.57982963695136e+004,-2.04660356600229e+001,-3.37988051544832e+000

9.71355907516031e+004,-2.04661958624614e+001,-3.42701083924515e+000

9.84915530675926e+004,-2.04663605293283e+001,-3.47479694011581e+000

9.98664439121282e+004,-2.04665297839329e+001,-3.52324788371081e+000

1.01260527517622e+005,-2.04667037529293e+001,-3.57237285861657e+000

1.02674071805032e+005,-2.04668825664043e+001,-3.62218117792739e+000

1.04107348435354e+005,-2.04670663579670e+001,-3.67268228083513e+000

1.05560632861831e+005,-2.04672552648401e+001,-3.72388573423566e+000

1.07034204382888e+005,-2.04674494279543e+001,-3.77580123435053e+000

1.08528346195813e+005,-2.04676489920442e+001,-3.82843860836759e+000

1.10043345451179e+005,-2.04678541057467e+001,-3.88180781609577e+000

1.11579493308032e+005,-2.04680649217018e+001,-3.93591895163913e+000

1.13137084989847e+005,-2.04682815966560e+001,-3.99078224508550e+000

1.14716419841265e+005,-2.04685042915673e+001,-4.04640806421368e+000

1.16317801385624e+005,-2.04687331717137e+001,-4.10280691621663e+000

1.17941537383287e+005,-2.04689684068034e+001,-4.15998944944139e+000

1.19587939890794e+005,-2.04692101710879e+001,-4.21796645514633e+000

1.21257325320831e+005,-2.04694586434777e+001,-4.27674886927476e+000

1.22950014503040e+005,-2.04697140076606e+001,-4.33634777424640e+000

1.24666332745679e+005,-2.04699764522224e+001,-4.39677440076422e+000

1.26406609898139e+005,-2.04702461707708e+001,-4.45804012963938e+000

1.28171180414339e+005,-2.04705233620617e+001,-4.52015649363242e+000

1.29960383416997e+005,-2.04708082301285e+001,-4.58313517931172e+000

1.31774562762811e+005,-2.04711009844144e+001,-4.64698802892753e+000

1.33614067108538e+005,-2.04714018399069e+001,-4.71172704230520e+000

1.35479249978003e+005,-2.04717110172761e+001,-4.77736437875248e+000

1.37370469830040e+005,-2.04720287430158e+001,-4.84391235898530e+000

1.39288090127379e+005,-2.04723552495869e+001,-4.91138346706909e+000

1.41232479406504e+005,-2.04726907755653e+001,-4.97979035237820e+000

1.43204011348474e+005,-2.04730355657910e+001,-5.04914583157029e+000

1.45203064850745e+005,-2.04733898715224e+001,-5.11946289057880e+000

1.47230024099979e+005,-2.04737539505925e+001,-5.19075468661960e+000

1.49285278645888e+005,-2.04741280675684e+001,-5.26303455021785e+000

1.51369223476094e+005,-2.04745124939148e+001,-5.33631598724744e+000

1.53482259092041e+005,-2.04749075081603e+001,-5.41061268098859e+000

1.55624791585964e+005,-2.04753133960672e+001,-5.48593849420227e+000

1.57797232718936e+005,-2.04757304508045e+001,-5.56230747122007e+000

1.59999999999999e+005,-2.04761589731251e+001,-5.63973384004937e+000

1.62233516766403e+005,-2.04765992715454e+001,-5.71823201449705e+000

1.64498212264969e+005,-2.04770516625292e+001,-5.79781659630701e+000

1.66794521734578e+005,-2.04775164706753e+001,-5.87850237731527e+000

1.69122886489819e+005,-2.04779940289079e+001,-5.96030434161975e+000

1.71483754005805e+005,-2.04784846786714e+001,-6.04323766776769e+000

1.73877578004168e+005,-2.04789887701289e+001,-6.12731773095712e+000

1.76304818540256e+005,-2.04795066623637e+001,-6.21256010525604e+000

1.78765942091554e+005,-2.04800387235851e+001,-6.29898056583602e+000

1.81261421647326e+005,-2.04805853313383e+001,-6.38659509122268e+000

1.83791736799524e+005,-2.04811468727174e+001,-6.47541986556181e+000

1.86357373834951e+005,-2.04817237445830e+001,-6.56547128090089e+000

1.88958825828723e+005,-2.04823163537830e+001,-6.65676593948688e+000

1.91596592739027e+005,-2.04829251173779e+001,-6.74932065608034e+000

1.94271181503206e+005,-2.04835504628699e+001,-6.84315246028490e+000

1.96983106135185e+005,-2.04841928284360e+001,-6.93827859889262e+000

1.99732887824256e+005,-2.04848526631651e+001,-7.03471653824606e+000

2.02521055035243e+005,-2.04855304272997e+001,-7.13248396661633e+000

2.05348143610063e+005,-2.04862265924805e+001,-7.23159879659738e+000

2.08214696870707e+005,-2.04869416419969e+001,-7.33207916751620e+000

2.11121265723661e+005,-2.04876760710404e+001,-7.43394344786047e+000

2.14068408765776e+005,-2.04884303869625e+001,-7.53721023772197e+000

2.17056692391625e+005,-2.04892051095378e+001,-7.64189837125797e+000

2.20086690902357e+005,-2.04900007712301e+001,-7.74802691916866e+000

2.23158986616063e+005,-2.04908179174640e+001,-7.85561519119241e+000

2.26274169979693e+005,-2.04916571069004e+001,-7.96468273861874e+000

2.29432839682530e+005,-2.04925189117170e+001,-8.07524935681882e+000

2.32635602771247e+005,-2.04934039178928e+001,-8.18733508779424e+000

2.35883074766574e+005,-2.04943127254980e+001,-8.30096022274462e+000

2.39175879781588e+005,-2.04952459489876e+001,-8.41614530465330e+000

2.42514650641661e+005,-2.04962042175014e+001,-8.53291113089304e+000

2.45900029006080e+005,-2.04971881751670e+001,-8.65127875585144e+000

2.49332665491357e+005,-2.04981984814095e+001,-8.77126949357539e+000

2.52813219796278e+005,-2.04992358112654e+001,-8.89290492043710e+000

2.56342360828676e+005,-2.05003008557016e+001,-9.01620687782119e+000

2.59920766833993e+005,-2.05013943219406e+001,-9.14119747483227e+000

2.63549125525621e+005,-2.05025169337901e+001,-9.26789909102586e+000

2.67228134217075e+005,-2.05036694319791e+001,-9.39633437916116e+000

2.70958499956006e+005,-2.05048525744992e+001,-9.52652626797717e+000

2.74740939660078e+005,-2.05060671369521e+001,-9.65849796499270e+000

2.78576180254757e+005,-2.05073139129030e+001,-9.79227295933064e+000

2.82464958813007e+005,-2.05085937142406e+001,-9.92787502456696e+000

2.86408022696948e+005,-2.05099073715434e+001,-1.00653282216057e+001

2.90406129701488e+005,-2.05112557344528e+001,-1.02046569015799e+001

2.94460048199957e+005,-2.05126396720528e+001,-1.03458857087786e+001

2.98570557291775e+005,-2.05140600732580e+001,-1.04890395836027e+001

3.02738446952187e+005,-2.05155178472077e+001,-1.06341437655467e+001

3.06964518184081e+005,-2.05170139236691e+001,-1.07812237962102e+001

3.11249583171928e+005,-2.05185492534476e+001,-1.09303055223379e+001

3.15594465437872e+005,-2.05201248088065e+001,-1.10814150988879e+001

3.19999999999997e+005,-2.05217415838950e+001,-1.12345789921308e+001

3.24467033532806e+005,-2.05234005951853e+001,-1.13898239827786e+001

3.28996424529938e+005,-2.05251028819199e+001,-1.15471771691423e+001

3.33589043469155e+005,-2.05268495065690e+001,-1.17066659703215e+001

3.38245772979638e+005,-2.05286415552974e+001,-1.18683181294227e+001

3.42967508011610e+005,-2.05304801384440e+001,-1.20321617168090e+001

3.47755156008335e+005,-2.05323663910117e+001,-1.21982251333782e+001

3.52609637080511e+005,-2.05343014731698e+001,-1.23665371138712e+001

3.57531884183106e+005,-2.05362865707694e+001,-1.25371267302096e+001

3.62522843294651e+005,-2.05383228958712e+001,-1.27100233948594e+001

3.67583473599047e+005,-2.05404116872882e+001,-1.28852568642239e+001

3.72714747669902e+005,-2.05425542111424e+001,-1.30628572420611e+001

3.77917651657445e+005,-2.05447517614364e+001,-1.32428549829255e+001

3.83193185478053e+005,-2.05470056606416e+001,-1.34252808956329e+001

3.88542363006410e+005,-2.05493172603024e+001,-1.36101661467450e+001

3.93966212270369e+005,-2.05516879416581e+001,-1.37975422640725e+001

3.99465775648511e+005,-2.05541191162829e+001,-1.39874411401939e+001

4.05042110070485e+005,-2.05566122267442e+001,-1.41798950359859e+001

4.10696287220124e+005,-2.05591687472813e+001,-1.43749365841635e+001

4.16429393741414e+005,-2.05617901845043e+001,-1.45725987928246e+001

4.22242531447321e+005,-2.05644780781139e+001,-1.47729150489956e+001

4.28136817531551e+005,-2.05672340016433e+001,-1.49759191221731e+001

4.34113384783250e+005,-2.05700595632240e+001,-1.51816451678572e+001

4.40173381804713e+005,-2.05729564063735e+001,-1.53901277310684e+001

4.46317973232124e+005,-2.05759262108091e+001,-1.56014017498455e+001

4.52548339959385e+005,-2.05789706932860e+001,-1.58155025587144e+001

4.58865679365059e+005,-2.05820916084620e+001,-1.60324658921233e+001

4.65271205542494e+005,-2.05852907497886e+001,-1.62523278878344e+001

4.71766149533147e+005,-2.05885699504301e+001,-1.64751250902652e+001

4.78351759563174e+005,-2.05919310842104e+001,-1.67008944537690e+001

4.85029301283321e+005,-2.05953760665891e+001,-1.69296733458480e+001

4.91800058012158e+005,-2.05989068556673e+001,-1.71614995502846e+001

4.98665330982714e+005,-2.06025254532226e+001,-1.73964112701841e+001

5.05626439592555e+005,-2.06062339057758e+001,-1.76344471309154e+001

5.12684721657352e+005,-2.06100343056877e+001,-1.78756461829386e+001

5.19841533667984e+005,-2.06139287922878e+001,-1.81200479045065e+001

5.27098251051240e+005,-2.06179195530345e+001,-1.83676922042275e+001

5.34456268434150e+005,-2.06220088247067e+001,-1.86186194234764e+001

5.41916999912011e+005,-2.06261988946283e+001,-1.88728703386383e+001

