Freq.,VOut,OutRef

1.00000000000000e+004,-1.01711675001492e+001,-2.56784370709567e-002

1.01395947979003e+004,-1.01711682445934e+001,-2.60368317597716e-002

1.02811382665607e+004,-1.01711690099595e+001,-2.64002267811966e-002

1.04246576084112e+004,-1.01711697968358e+001,-2.67686918223070e-002

1.05701804056138e+004,-1.01711706058269e+001,-2.71422975362643e-002

1.07177346253629e+004,-1.01711714375529e+001,-2.75211155696481e-002

1.08673486252606e+004,-1.01711722926537e+001,-2.79052185473001e-002

1.10190511587661e+004,-1.01711731717851e+001,-2.82946801156043e-002

1.11728713807222e+004,-1.01711740756228e+001,-2.86895749341591e-002

1.13288388529580e+004,-1.01711750048603e+001,-2.90899787064347e-002

1.14869835499703e+004,-1.01711759602116e+001,-2.94959681791975e-002

1.16473358646846e+004,-1.01711769424101e+001,-2.99076211692280e-002

1.18099266142953e+004,-1.01711779522098e+001,-3.03250165711318e-002

1.19747870461893e+004,-1.01711789903858e+001,-3.07482343767248e-002

1.21419488439505e+004,-1.01711800577356e+001,-3.11773556804652e-002

1.23114441334492e+004,-1.01711811550780e+001,-3.16124627101924e-002

1.24833054890161e+004,-1.01711822832561e+001,-3.20536388234063e-002

1.26575659397028e+004,-1.01711834431357e+001,-3.25009685403466e-002

1.28342589756290e+004,-1.01711846356063e+001,-3.29545375558198e-002

1.30134185544193e+004,-1.01711858615847e+001,-3.34144327379489e-002

1.31950791077289e+004,-1.01711871220110e+001,-3.38807421711549e-002

1.33792755478611e+004,-1.01711884178524e+001,-3.43535551577874e-002

1.35660432744767e+004,-1.01711897501043e+001,-3.48329622286754e-002

1.37554181813974e+004,-1.01711911197882e+001,-3.53190551784841e-002

1.39474366635040e+004,-1.01711925279561e+001,-3.58119270618373e-002

1.41421356237309e+004,-1.01711939756876e+001,-3.63116722321220e-002

1.43395524801583e+004,-1.01711954640940e+001,-3.68183863396702e-002

1.45397251732031e+004,-1.01711969943173e+001,-3.73321663593594e-002

1.47426921729110e+004,-1.01711985675318e+001,-3.78531106055320e-002

1.49484924863494e+004,-1.01712001849445e+001,-3.83813187541197e-002

1.51571656651040e+004,-1.01712018477957e+001,-3.89168918583700e-002

1.53687518128801e+004,-1.01712035573612e+001,-3.94599323657810e-002

1.55832915932100e+004,-1.01712053149524e+001,-4.00105441380992e-002

1.58008262372675e+004,-1.01712071219179e+001,-4.05688324693974e-002

1.60213975517924e+004,-1.01712089796426e+001,-4.11349041148699e-002

1.62450479271247e+004,-1.01712108895517e+001,-4.17088672933431e-002

1.64718203453514e+004,-1.01712128531094e+001,-4.22908317231183e-002

1.67017583885674e+004,-1.01712148718223e+001,-4.28809086255966e-002

1.69349062472505e+004,-1.01712169472381e+001,-4.34792107620595e-002

1.71713087287550e+004,-1.01712190809471e+001,-4.40858524526429e-002

1.74110112659224e+004,-1.01712212745857e+001,-4.47009495807155e-002

1.76540599258131e+004,-1.01712235298352e+001,-4.53246196315537e-002

1.79005014185594e+004,-1.01712258484247e+001,-4.59569817040207e-002

1.81503831063432e+004,-1.01712282321310e+001,-4.65981565374575e-002

1.84037530124975e+004,-1.01712306827809e+001,-4.72482665312232e-002

1.86606598307361e+004,-1.01712332022525e+001,-4.79074357656662e-002

1.89211529345119e+004,-1.01712357924765e+001,-4.85757900240443e-002

1.91852823865052e+004,-1.01712384554369e+001,-4.92534568242942e-002

1.94530989482457e+004,-1.01712411931742e+001,-4.99405654259111e-002

1.97246540898671e+004,-1.01712440077862e+001,-5.06372468615927e-002

1.99999999999999e+004,-1.01712469014273e+001,-5.13436339726304e-002

2.02791895958005e+004,-1.01712498763150e+001,-5.20598614044555e-002

2.05622765331213e+004,-1.01712529347267e+001,-5.27860656598335e-002

2.08493152168224e+004,-1.01712560790046e+001,-5.35223851015397e-002

2.11403608112276e+004,-1.01712593115556e+001,-5.42689599934175e-002

2.14354692507258e+004,-1.01712626348551e+001,-5.50259325067606e-002

2.17346972505211e+004,-1.01712660514458e+001,-5.57934467697863e-002

2.20381023175322e+004,-1.01712695639436e+001,-5.65716488656150e-002

2.23457427614443e+004,-1.01712731750361e+001,-5.73606868789672e-002

2.26576777059159e+004,-1.01712768874858e+001,-5.81607109161702e-002

2.29739670999406e+004,-1.01712807041338e+001,-5.89718731218464e-002

2.32946717293690e+004,-1.01712846278993e+001,-5.97943277199309e-002

2.36198532285905e+004,-1.01712886617831e+001,-6.06282310333874e-002

2.39495740923785e+004,-1.01712928088702e+001,-6.14737415093809e-002

2.42838976879009e+004,-1.01712970723317e+001,-6.23310197487018e-002

2.46228882668982e+004,-1.01713014554265e+001,-6.32002285396085e-002

2.49666109780322e+004,-1.01713059615054e+001,-6.40815328698079e-002

2.53151318794055e+004,-1.01713105940123e+001,-6.49750999709642e-002

2.56685179512580e+004,-1.01713153564867e+001,-6.58810993409675e-002

2.60268371088386e+004,-1.01713202525674e+001,-6.67997027694358e-002

2.63901582154578e+004,-1.01713252859940e+001,-6.77310843736874e-002

2.67585510957221e+004,-1.01713304606107e+001,-6.86754206218121e-002

2.71320865489533e+004,-1.01713357803693e+001,-6.96328903622044e-002

2.75108363627948e+004,-1.01713412493302e+001,-7.06036748628912e-002

2.78948733270080e+004,-1.01713468716691e+001,-7.15879578227822e-002

2.82842712474618e+004,-1.01713526516753e+001,-7.25859254291495e-002

2.86791049603164e+004,-1.01713585937592e+001,-7.35977663626876e-002

2.90794503464061e+004,-1.01713647024540e+001,-7.46236718385722e-002

2.94853843458219e+004,-1.01713709824182e+001,-7.56638356424697e-002

2.98969849726987e+004,-1.01713774384401e+001,-7.67184541551093e-002

3.03143313302078e+004,-1.01713840754411e+001,-7.77877263867290e-002

3.07375036257601e+004,-1.01713908984795e+001,-7.88718540089836e-002

3.11665831864199e+004,-1.01713979127535e+001,-7.99710413892484e-002

3.16016524745350e+004,-1.01714051236071e+001,-8.10854956114892e-002

3.20427951035848e+004,-1.01714125365308e+001,-8.22154265302696e-002

3.24900958542493e+004,-1.01714201571687e+001,-8.33610467844414e-002

3.29436406907028e+004,-1.01714279913212e+001,-8.45225718382116e-002

3.34035167771346e+004,-1.01714360449496e+001,-8.57002200128472e-002

3.38698124945009e+004,-1.01714443241798e+001,-8.68942125272548e-002

3.43426174575100e+004,-1.01714528353081e+001,-8.81047735186915e-002

3.48220225318448e+004,-1.01714615848053e+001,-8.93321300859346e-002

3.53081198516260e+004,-1.01714705793209e+001,-9.05765123216127e-002

3.58010028371187e+004,-1.01714798256882e+001,-9.18381533490207e-002

3.63007662126863e+004,-1.01714893309302e+001,-9.31172893497581e-002

3.68075060249948e+004,-1.01714991022635e+001,-9.44141596048276e-002

3.73213196614721e+004,-1.01715091471046e+001,-9.57290065266100e-002

3.78423058690237e+004,-1.01715194730741e+001,-9.70620756965148e-002

3.83705647730104e+004,-1.01715300880038e+001,-9.84136158946547e-002

3.89061978964912e+004,-1.01715409999408e+001,-9.97838791430267e-002

3.94493081797342e+004,-1.01715522171550e+001,-1.01173120732292e-001

3.99999999999998e+004,-1.01715637481433e+001,-1.02581599264521e-001

4.05583791916010e+004,-1.01715756016376e+001,-1.04009576681965e-001

4.11245530662425e+004,-1.01715877866090e+001,-1.05457318312196e-001

4.16986304336447e+004,-1.01716003122769e+001,-1.06925092889665e-001

4.22807216224550e+004,-1.01716131881127e+001,-1.08413172607910e-001

4.28709385014515e+004,-1.01716264238491e+001,-1.09921833139337e-001

4.34693945010421e+004,-1.01716400294855e+001,-1.11451353683920e-001

4.40762046350642e+004,-1.01716540152966e+001,-1.13002016991689e-001

4.46914855228886e+004,-1.01716683918372e+001,-1.14574109415570e-001

4.53153554118317e+004,-1.01716831699532e+001,-1.16167920925540e-001

4.59479341998812e+004,-1.01716983607862e+001,-1.17783745164211e-001

4.65893434587380e+004,-1.01717139757835e+001,-1.19421879466054e-001

4.72397064571810e+004,-1.01717300267046e+001,-1.21082624904371e-001

4.78991481847569e+004,-1.01717465256306e+001,-1.22766286319156e-001

4.85677953758016e+004,-1.01717634849733e+001,-1.24473172347861e-001

4.92457765337964e+004,-1.01717809174813e+001,-1.26203595475654e-001

4.99332219560642e+004,-1.01717988362519e+001,-1.27957872049967e-001

5.06302637588109e+004,-1.01718172547389e+001,-1.29736322326018e-001

5.13370359025159e+004,-1.01718361867614e+001,-1.31539270499624e-001

5.20536742176771e+004,-1.01718556465145e+001,-1.33367044735183e-001

5.27803164309155e+004,-1.01718756485789e+001,-1.35219977200437e-001

5.35171021914442e+004,-1.01718962079302e+001,-1.37098404102633e-001

5.42641730979066e+004,-1.01719173399502e+001,-1.39002665711114e-001

5.50216727255895e+004,-1.01719390604369e+001,-1.40933106397789e-001

5.57897466540159e+004,-1.01719613856152e+001,-1.42890074661971e-001

5.65685424949235e+004,-1.01719843321486e+001,-1.44873923159458e-001

5.73582099206328e+004,-1.01720079171497e+001,-1.46885008734811e-001

5.81589006928121e+004,-1.01720321581925e+001,-1.48923692447690e-001

5.89707686916437e+004,-1.01720570733232e+001,-1.50990339602555e-001

5.97939699453972e+004,-1.01720826810738e+001,-1.53085319769913e-001

6.06286626604156e+004,-1.01721090004731e+001,-1.55209006818146e-001

6.14750072515201e+004,-1.01721360510606e+001,-1.57361778931441e-001

6.23331663728396e+004,-1.01721638528979e+001,-1.59544018642022e-001

6.32033049490698e+004,-1.01721924265833e+001,-1.61756112845207e-001

6.40855902071694e+004,-1.01722217932653e+001,-1.63998452819146e-001

6.49801917084985e+004,-1.01722519746549e+001,-1.66271434255723e-001

6.58872813814055e+004,-1.01722829930417e+001,-1.68575457265331e-001

6.68070335542691e+004,-1.01723148713070e+001,-1.70910926403894e-001

6.77396249890018e+004,-1.01723476329392e+001,-1.73278250682246e-001

6.86852349150199e+004,-1.01723813020480e+001,-1.75677843586757e-001

6.96440450636895e+004,-1.01724159033809e+001,-1.78110123082958e-001

7.06162397032520e+004,-1.01724514623377e+001,-1.80575511634398e-001

7.16020056742374e+004,-1.01724880049876e+001,-1.83074436204838e-001

7.26015324253724e+004,-1.01725255580847e+001,-1.85607328267373e-001

7.36150120499896e+004,-1.01725641490844e+001,-1.88174623812341e-001

7.46426393229441e+004,-1.01726038061613e+001,-1.90776763343051e-001

7.56846117380472e+004,-1.01726445582259e+001,-1.93414191878537e-001

7.67411295460207e+004,-1.01726864349420e+001,-1.96087358953606e-001

7.78123957929823e+004,-1.01727294667446e+001,-1.98796718612815e-001

7.88986163594682e+004,-1.01727736848591e+001,-2.01542729396837e-001

7.99999999999995e+004,-1.01728191213184e+001,-2.04325854342163e-001

8.11167583832018e+004,-1.01728658089826e+001,-2.07146560960363e-001

8.22491061324848e+004,-1.01729137815587e+001,-2.10005321222273e-001

8.33972608672892e+004,-1.01729630736188e+001,-2.12902611543198e-001

8.45614432449099e+004,-1.01730137206212e+001,-2.15838912753206e-001

8.57418770029029e+004,-1.01730657589297e+001,-2.18814710076685e-001

8.69387890020841e+004,-1.01731192258346e+001,-2.21830493097933e-001

8.81524092701283e+004,-1.01731741595732e+001,-2.24886755730265e-001

8.93829710457770e+004,-1.01732305993517e+001,-2.27983996171640e-001

9.06307108236633e+004,-1.01732885853647e+001,-2.31122716873858e-001

9.18958683997622e+004,-1.01733481588193e+001,-2.34303424484379e-001

9.31786869174758e+004,-1.01734093619550e+001,-2.37526629804063e-001

9.44794129143618e+004,-1.01734722380673e+001,-2.40792847724781e-001

9.57982963695136e+004,-1.01735368315291e+001,-2.44102597176168e-001

9.71355907516031e+004,-1.01736031878149e+001,-2.47456401050322e-001

9.84915530675926e+004,-1.01736713535222e+001,-2.50854786142184e-001

9.98664439121282e+004,-1.01737413763957e+001,-2.54298283063790e-001

1.01260527517622e+005,-1.01738133053504e+001,-2.57787426167672e-001

1.02674071805032e+005,-1.01738871904956e+001,-2.61322753456457e-001

1.04107348435354e+005,-1.01739630831583e+001,-2.64904806488664e-001

1.05560632861831e+005,-1.01740410359071e+001,-2.68534130282001e-001

1.07034204382888e+005,-1.01741211025770e+001,-2.72211273199673e-001

1.08528346195813e+005,-1.01742033382925e+001,-2.75936786843999e-001

1.10043345451179e+005,-1.01742877994932e+001,-2.79711225931026e-001

1.11579493308032e+005,-1.01743745439573e+001,-2.83535148161765e-001

1.13137084989847e+005,-1.01744636308263e+001,-2.87409114091403e-001

1.14716419841265e+005,-1.01745551206295e+001,-2.91333686980538e-001

1.16317801385624e+005,-1.01746490753084e+001,-2.95309432648424e-001

1.17941537383287e+005,-1.01747455582412e+001,-2.99336919309047e-001

1.19587939890794e+005,-1.01748446342670e+001,-3.03416717405058e-001

1.21257325320831e+005,-1.01749463697091e+001,-3.07549399435294e-001

1.22950014503040e+005,-1.01750508324009e+001,-3.11735539757919e-001

1.24666332745679e+005,-1.01751580917076e+001,-3.15975714407709e-001

1.26406609898139e+005,-1.01752682185512e+001,-3.20270500880029e-001

1.28171180414339e+005,-1.01753812854329e+001,-3.24620477924285e-001

1.29960383416997e+005,-1.01754973664558e+001,-3.29026225317430e-001

1.31774562762811e+005,-1.01756165373479e+001,-3.33488323625845e-001

1.33614067108538e+005,-1.01757388754836e+001,-3.38007353961459e-001

1.35479249978003e+005,-1.01758644599050e+001,-3.42583897728345e-001

1.37370469830040e+005,-1.01759933713432e+001,-3.47218536347929e-001

1.39288090127379e+005,-1.01761256922371e+001,-3.51911850989467e-001

1.41232479406504e+005,-1.01762615067542e+001,-3.56664422271861e-001

1.43204011348474e+005,-1.01764009008083e+001,-3.61476829963549e-001

1.45203064850745e+005,-1.01765439620771e+001,-3.66349652669631e-001

1.47230024099979e+005,-1.01766907800185e+001,-3.71283467506909e-001

1.49285278645888e+005,-1.01768414458867e+001,-3.76278849758654e-001

1.51369223476094e+005,-1.01769960527462e+001,-3.81336372527944e-001

1.53482259092041e+005,-1.01771546954845e+001,-3.86456606373403e-001

1.55624791585964e+005,-1.01773174708239e+001,-3.91640118928905e-001

1.57797232718936e+005,-1.01774844773317e+001,-3.96887474515895e-001

1.59999999999999e+005,-1.01776558154288e+001,-4.02199233736817e-001

1.62233516766403e+005,-1.01778315873962e+001,-4.07575953059263e-001

1.64498212264969e+005,-1.01780118973805e+001,-4.13018184385418e-001

1.66794521734578e+005,-1.01781968513954e+001,-4.18526474610885e-001

1.69122886489819e+005,-1.01783865573249e+001,-4.24101365159852e-001

1.71483754005805e+005,-1.01785811249197e+001,-4.29743391521639e-001

1.73877578004168e+005,-1.01787806657949e+001,-4.35453082762037e-001

1.76304818540256e+005,-1.01789852934232e+001,-4.41230961024695e-001

1.78765942091554e+005,-1.01791951231257e+001,-4.47077541024487e-001

1.81261421647326e+005,-1.01794102720607e+001,-4.52993329516997e-001

1.83791736799524e+005,-1.01796308592084e+001,-4.58978824766146e-001

1.86357373834951e+005,-1.01798570053535e+001,-4.65034515991084e-001

1.88958825828723e+005,-1.01800888330633e+001,-4.71160882806502e-001

1.91596592739027e+005,-1.01803264666633e+001,-4.77358394644907e-001

1.94271181503206e+005,-1.01805700322090e+001,-4.83627510171853e-001

1.96983106135185e+005,-1.01808196574532e+001,-4.89968676689883e-001

1.99732887824256e+005,-1.01810754718098e+001,-4.96382329526415e-001

2.02521055035243e+005,-1.01813376063130e+001,-5.02868891421704e-001

2.05348143610063e+005,-1.01816061935729e+001,-5.09428771894004e-001

2.08214696870707e+005,-1.01818813677251e+001,-5.16062366608993e-001

2.11121265723661e+005,-1.01821632643767e+001,-5.22770056732774e-001

2.14068408765776e+005,-1.01824520205466e+001,-5.29552208280458e-001

2.17056692391625e+005,-1.01827477746009e+001,-5.36409171459348e-001

2.20086690902357e+005,-1.01830506661831e+001,-5.43341280006102e-001

2.23158986616063e+005,-1.01833608361376e+001,-5.50348850522458e-001

2.26274169979693e+005,-1.01836784264283e+001,-5.57432181805809e-001

2.29432839682530e+005,-1.01840035800516e+001,-5.64591554178249e-001

2.32635602771247e+005,-1.01843364409420e+001,-5.71827228817968e-001

2.35883074766574e+005,-1.01846771538720e+001,-5.79139447091468e-001

2.39175879781588e+005,-1.01850258643450e+001,-5.86528429892442e-001

2.42514650641661e+005,-1.01853827184819e+001,-5.93994376979108e-001

2.45900029006080e+005,-1.01857478629003e+001,-6.01537466324888e-001

2.49332665491357e+005,-1.01861214445867e+001,-6.09157853476614e-001

2.52813219796278e+005,-1.01865036107613e+001,-6.16855670924374e-001

2.56342360828676e+005,-1.01868945087357e+001,-6.24631027483791e-001

2.59920766833993e+005,-1.01872942857620e+001,-6.32484007696254e-001

2.63549125525621e+005,-1.01877030888756e+001,-6.40414671246467e-001

2.67228134217075e+005,-1.01881210647287e+001,-6.48423052402707e-001

2.70958499956006e+005,-1.01885483594169e+001,-6.56509159480209e-001

2.74740939660078e+005,-1.01889851182968e+001,-6.64672974331454e-001

2.78576180254757e+005,-1.01894314857965e+001,-6.72914451866941e-001

2.82464958813007e+005,-1.01898876052170e+001,-6.81233519608897e-001

2.86408022696948e+005,-1.01903536185258e+001,-6.89630077281983e-001

2.90406129701488e+005,-1.01908296661426e+001,-6.98103996441747e-001

2.94460048199957e+005,-1.01913158867155e+001,-7.06655120151539e-001

2.98570557291775e+005,-1.01918124168914e+001,-7.15283262696449e-001

3.02738446952187e+005,-1.01923193910758e+001,-7.23988209359776e-001

3.06964518184081e+005,-1.01928369411861e+001,-7.32769716245717e-001

3.11249583171928e+005,-1.01933651963970e+001,-7.41627510161027e-001

3.15594465437872e+005,-1.01939042828776e+001,-7.50561288562466e-001

3.19999999999997e+005,-1.01944543235222e+001,-7.59570719565432e-001

3.24467033532806e+005,-1.01950154376723e+001,-7.68655442026047e-001

3.28996424529938e+005,-1.01955877408332e+001,-7.77815065697890e-001

3.33589043469155e+005,-1.01961713443839e+001,-7.87049171460257e-001

3.38245772979638e+005,-1.01967663552792e+001,-7.96357311638480e-001

3.42967508011610e+005,-1.01973728757485e+001,-8.05739010402555e-001

3.47755156008335e+005,-1.01979910029874e+001,-8.15193764259870e-001

3.52609637080511e+005,-1.01986208288453e+001,-8.24721042639840e-001

3.57531884183106e+005,-1.01992624395089e+001,-8.34320288577660e-001

3.62522843294651e+005,-1.01999159151818e+001,-8.43990919499883e-001

3.67583473599047e+005,-1.02005813297611e+001,-8.53732328115653e-001

3.72714747669902e+005,-1.02012587505120e+001,-8.63543883416116e-001

3.77917651657445e+005,-1.02019482377408e+001,-8.73424931785271e-001

3.83193185478053e+005,-1.02026498444672e+001,-8.83374798228334e-001

3.88542363006410e+005,-1.02033636160972e+001,-8.93392787714140e-001

3.93966212270369e+005,-1.02040895900961e+001,-9.03478186645242e-001

3.99465775648511e+005,-1.02048277956646e+001,-9.13630264443159e-001

4.05042110070485e+005,-1.02055782534171e+001,-9.23848275264873e-001

4.10696287220124e+005,-1.02063409750649e+001,-9.34131459842772e-001

4.16429393741414e+005,-1.02071159631038e+001,-9.44479047452258e-001

4.22242531447321e+005,-1.02079032105081e+001,-9.54890258012684e-001

4.28136817531551e+005,-1.02087027004325e+001,-9.65364304312949e-001

4.34113384783250e+005,-1.02095144059217e+001,-9.75900394367911e-001

4.40173381804713e+005,-1.02103382896309e+001,-9.86497733906127e-001

4.46317973232124e+005,-1.02111743035564e+001,-9.97155528981812e-001

4.52548339959385e+005,-1.02120223887789e+001,-1.00787298871650e+000

4.58865679365059e+005,-1.02128824752200e+001,-1.01864932816421e+000

4.65271205542494e+005,-1.02137544814144e+001,-1.02948377129568e+000

4.71766149533147e+005,-1.02146383142967e+001,-1.04037555410788e+000

4.78351759563174e+005,-1.02155338690072e+001,-1.05132392783959e+000

4.85029301283321e+005,-1.02164410287144e+001,-1.06232816230590e+000

4.91800058012158e+005,-1.02173596644595e+001,-1.07338754932929e+000

4.98665330982714e+005,-1.02182896350198e+001,-1.08450140628046e+000

5.05626439592555e+005,-1.02192307867960e+001,-1.09566907970141e+000

5.12684721657352e+005,-1.02201829537211e+001,-1.10688994902448e+000

5.19841533667984e+005,-1.02211459571960e+001,-1.11816343036290e+000

5.27098251051240e+005,-1.02221196060477e+001,-1.12948898037818e+000

5.34456268434150e+005,-1.02231036965163e+001,-1.14086610020402e+000

5.41916999912011e+005,-1.02240980122678e+001,-1.15229433942671e+000

