Freq.,VOut,OutRef

1.00000000000000e+004,-2.25135626581221e+001,-3.75797047011751e-001

1.01395947979003e+004,-2.25135647778918e+001,-3.81042911867549e-001

1.02811382665607e+004,-2.25135669572511e+001,-3.86362003447663e-001

1.04246576084112e+004,-2.25135691978752e+001,-3.91755343838878e-001

1.05701804056138e+004,-2.25135715014862e+001,-3.97223969390817e-001

1.07177346253629e+004,-2.25135738698545e+001,-4.02768930915886e-001

1.08673486252606e+004,-2.25135763048005e+001,-4.08391293887786e-001

1.10190511587661e+004,-2.25135788081952e+001,-4.14092138650535e-001

1.11728713807222e+004,-2.25135813819630e+001,-4.19872560620078e-001

1.13288388529580e+004,-2.25135840280817e+001,-4.25733670500517e-001

1.14869835499703e+004,-2.25135867485850e+001,-4.31676594492360e-001

1.16473358646846e+004,-2.25135895455636e+001,-4.37702474510788e-001

1.18099266142953e+004,-2.25135924211672e+001,-4.43812468405127e-001

1.19747870461893e+004,-2.25135953776057e+001,-4.50007750179963e-001

1.21419488439505e+004,-2.25135984171511e+001,-4.56289510219759e-001

1.23114441334492e+004,-2.25136015421393e+001,-4.62658955519784e-001

1.24833054890161e+004,-2.25136047549719e+001,-4.69117309914547e-001

1.26575659397028e+004,-2.25136080581177e+001,-4.75665814315181e-001

1.28342589756290e+004,-2.25136114541153e+001,-4.82305726944515e-001

1.30134185544193e+004,-2.25136149455742e+001,-4.89038323582087e-001

1.31950791077289e+004,-2.25136185351778e+001,-4.95864897804143e-001

1.33792755478611e+004,-2.25136222256843e+001,-5.02786761237325e-001

1.35660432744767e+004,-2.25136260199296e+001,-5.09805243804832e-001

1.37554181813974e+004,-2.25136299208294e+001,-5.16921693984889e-001

1.39474366635040e+004,-2.25136339313811e+001,-5.24137479068087e-001

1.41421356237309e+004,-2.25136380546667e+001,-5.31453985418157e-001

1.43395524801583e+004,-2.25136422938544e+001,-5.38872618740786e-001

1.45397251732031e+004,-2.25136466522015e+001,-5.46394804350627e-001

1.47426921729110e+004,-2.25136511330570e+001,-5.54021987445347e-001

1.49484924863494e+004,-2.25136557398637e+001,-5.61755633382117e-001

1.51571656651040e+004,-2.25136604761614e+001,-5.69597227959140e-001

1.53687518128801e+004,-2.25136653455893e+001,-5.77548277699276e-001

1.55832915932100e+004,-2.25136703518885e+001,-5.85610310141060e-001

1.58008262372675e+004,-2.25136754989057e+001,-5.93784874127203e-001

1.60213975517924e+004,-2.25136807905952e+001,-6.02073540106673e-001

1.62450479271247e+004,-2.25136862310227e+001,-6.10477900430110e-001

1.64718203453514e+004,-2.25136918243680e+001,-6.18999569659214e-001

1.67017583885674e+004,-2.25136975749283e+001,-6.27640184872085e-001

1.69349062472505e+004,-2.25137034871215e+001,-6.36401405980868e-001

1.71713087287550e+004,-2.25137095654894e+001,-6.45284916046765e-001

1.74110112659224e+004,-2.25137158147017e+001,-6.54292421601855e-001

1.76540599258131e+004,-2.25137222395593e+001,-6.63425652977573e-001

1.79005014185594e+004,-2.25137288449975e+001,-6.72686364636447e-001

1.81503831063432e+004,-2.25137356360905e+001,-6.82076335504840e-001

1.84037530124975e+004,-2.25137426180550e+001,-6.91597369316227e-001

1.86606598307361e+004,-2.25137497962541e+001,-7.01251294954929e-001

1.89211529345119e+004,-2.25137571762016e+001,-7.11039966807354e-001

1.91852823865052e+004,-2.25137647635661e+001,-7.20965265114304e-001

1.94530989482457e+004,-2.25137725641754e+001,-7.31029096333131e-001

1.97246540898671e+004,-2.25137805840209e+001,-7.41233393502297e-001

1.99999999999999e+004,-2.25137888292622e+001,-7.51580116607869e-001

2.02791895958005e+004,-2.25137973062320e+001,-7.62071252961917e-001

2.05622765331213e+004,-2.25138060214406e+001,-7.72708817581678e-001

2.08493152168224e+004,-2.25138149815813e+001,-7.83494853572394e-001

2.11403608112276e+004,-2.25138241935350e+001,-7.94431432521162e-001

2.14354692507258e+004,-2.25138336643762e+001,-8.05520654889410e-001

2.17346972505211e+004,-2.25138434013775e+001,-8.16764650416921e-001

2.20381023175322e+004,-2.25138534120161e+001,-8.28165578527740e-001

2.23457427614443e+004,-2.25138637039788e+001,-8.39725628741665e-001

2.26576777059159e+004,-2.25138742851682e+001,-8.51447021094189e-001

2.29739670999406e+004,-2.25138851637090e+001,-8.63332006558102e-001

2.32946717293690e+004,-2.25138963479533e+001,-8.75382867475899e-001

2.36198532285905e+004,-2.25139078464884e+001,-8.87601917992194e-001

2.39495740923785e+004,-2.25139196681417e+001,-8.99991504499029e-001

2.42838976879009e+004,-2.25139318219892e+001,-9.12554006079395e-001

2.46228882668982e+004,-2.25139443173609e+001,-9.25291834964018e-001

2.49666109780322e+004,-2.25139571638490e+001,-9.38207436991055e-001

2.53151318794055e+004,-2.25139703713146e+001,-9.51303292070387e-001

2.56685179512580e+004,-2.25139839498955e+001,-9.64581914659057e-001

2.60268371088386e+004,-2.25139979100141e+001,-9.78045854237851e-001

2.63901582154578e+004,-2.25140122623849e+001,-9.91697695799965e-001

2.67585510957221e+004,-2.25140270180232e+001,-1.00554006033938e+000

2.71320865489533e+004,-2.25140421882530e+001,-1.01957560535447e+000

2.75108363627948e+004,-2.25140577847161e+001,-1.03380702535090e+000

2.78948733270080e+004,-2.25140738193809e+001,-1.04823705235477e+000

2.82842712474618e+004,-2.25140903045511e+001,-1.06286845643443e+000

2.86791049603164e+004,-2.25141072528757e+001,-1.07770404622447e+000

2.90794503464061e+004,-2.25141246773582e+001,-1.09274666946320e+000

2.94853843458219e+004,-2.25141425913669e+001,-1.10799921353015e+000

2.98969849726987e+004,-2.25141610086446e+001,-1.12346460599872e+000

3.03143313302078e+004,-2.25141799433196e+001,-1.13914581518966e+000

3.07375036257601e+004,-2.25141994099162e+001,-1.15504585073639e+000

3.11665831864199e+004,-2.25142194233655e+001,-1.17116776415563e+000

3.16016524745350e+004,-2.25142399990174e+001,-1.18751464942688e+000

3.20427951035848e+004,-2.25142611526520e+001,-1.20408964357959e+000

3.24900958542493e+004,-2.25142829004912e+001,-1.22089592728802e+000

3.29436406907028e+004,-2.25143052592117e+001,-1.23793672547483e+000

3.34035167771346e+004,-2.25143282459574e+001,-1.25521530792114e+000

3.38698124945009e+004,-2.25143518783524e+001,-1.27273498988760e+000

3.43426174575100e+004,-2.25143761745144e+001,-1.29049913274084e+000

3.48220225318448e+004,-2.25144011530688e+001,-1.30851114459062e+000

3.53081198516260e+004,-2.25144268331621e+001,-1.32677448093488e+000

3.58010028371187e+004,-2.25144532344774e+001,-1.34529264531249e+000

3.63007662126863e+004,-2.25144803772487e+001,-1.36406918996638e+000

3.68075060249948e+004,-2.25145082822766e+001,-1.38310771651441e+000

3.73213196614721e+004,-2.25145369709435e+001,-1.40241187663086e+000

3.78423058690237e+004,-2.25145664652309e+001,-1.42198537273369e+000

3.83705647730104e+004,-2.25145967877349e+001,-1.44183195868503e+000

3.89061978964912e+004,-2.25146279616843e+001,-1.46195544049850e+000

3.94493081797342e+004,-2.25146600109575e+001,-1.48235967705664e+000

3.99999999999998e+004,-2.25146929601010e+001,-1.50304858083808e+000

4.05583791916010e+004,-2.25147268343477e+001,-1.52402611865445e+000

4.11245530662425e+004,-2.25147616596364e+001,-1.54529631239700e+000

4.16986304336447e+004,-2.25147974626312e+001,-1.56686323979182e+000

4.22807216224550e+004,-2.25148342707413e+001,-1.58873103516860e+000

4.28709385014515e+004,-2.25148721121425e+001,-1.61090389023480e+000

4.34693945010421e+004,-2.25149110157979e+001,-1.63338605486508e+000

4.40762046350642e+004,-2.25149510114798e+001,-1.65618183789690e+000

4.46914855228886e+004,-2.25149921297927e+001,-1.67929560793847e+000

4.53153554118317e+004,-2.25150344021958e+001,-1.70273179418808e+000

4.59479341998812e+004,-2.25150778610268e+001,-1.72649488726332e+000

4.65893434587380e+004,-2.25151225395268e+001,-1.75058944004030e+000

4.72397064571810e+004,-2.25151684718645e+001,-1.77502006850651e+000

4.78991481847569e+004,-2.25152156931628e+001,-1.79979145262089e+000

4.85677953758016e+004,-2.25152642395247e+001,-1.82490833718927e+000

4.92457765337964e+004,-2.25153141480603e+001,-1.85037553274914e+000

4.99332219560642e+004,-2.25153654569154e+001,-1.87619791646503e+000

5.06302637588109e+004,-2.25154182052995e+001,-1.90238043303748e+000

5.13370359025159e+004,-2.25154724335154e+001,-1.92892809562298e+000

5.20536742176771e+004,-2.25155281829895e+001,-1.95584598676573e+000

5.27803164309155e+004,-2.25155854963030e+001,-1.98313925934079e+000

5.35171021914442e+004,-2.25156444172234e+001,-2.01081313751149e+000

5.42641730979066e+004,-2.25157049907375e+001,-2.03887291769560e+000

5.50216727255895e+004,-2.25157672630853e+001,-2.06732396954807e+000

5.57897466540159e+004,-2.25158312817940e+001,-2.09617173695306e+000

5.65685424949235e+004,-2.25158970957140e+001,-2.12542173902991e+000

5.73582099206328e+004,-2.25159647550550e+001,-2.15507957115237e+000

5.81589006928121e+004,-2.25160343114238e+001,-2.18515090597879e+000

5.89707686916437e+004,-2.25161058178624e+001,-2.21564149449893e+000

5.97939699453972e+004,-2.25161793288875e+001,-2.24655716708954e+000

6.06286626604156e+004,-2.25162549005314e+001,-2.27790383458704e+000

6.14750072515201e+004,-2.25163325903833e+001,-2.30968748937133e+000

6.23331663728396e+004,-2.25164124576321e+001,-2.34191420646388e+000

6.32033049490698e+004,-2.25164945631104e+001,-2.37459014463970e+000

6.40855902071694e+004,-2.25165789693395e+001,-2.40772154755342e+000

6.49801917084985e+004,-2.25166657405756e+001,-2.44131474487756e+000

6.58872813814055e+004,-2.25167549428575e+001,-2.47537615345732e+000

6.68070335542691e+004,-2.25168466440552e+001,-2.50991227847793e+000

6.77396249890018e+004,-2.25169409139200e+001,-2.54492971464703e+000

6.86852349150199e+004,-2.25170378241360e+001,-2.58043514739007e+000

6.96440450636895e+004,-2.25171374483727e+001,-2.61643535406331e+000

7.06162397032520e+004,-2.25172398623393e+001,-2.65293720517764e+000

7.16020056742374e+004,-2.25173451438402e+001,-2.68994766564069e+000

7.26015324253724e+004,-2.25174533728322e+001,-2.72747379601067e+000

7.36150120499896e+004,-2.25175646314826e+001,-2.76552275376858e+000

7.46426393229441e+004,-2.25176790042302e+001,-2.80410179460245e+000

7.56846117380472e+004,-2.25177965778457e+001,-2.84321827370854e+000

7.67411295460207e+004,-2.25179174414963e+001,-2.88287964710797e+000

7.78123957929823e+004,-2.25180416868099e+001,-2.92309347297711e+000

7.88986163594682e+004,-2.25181694079416e+001,-2.96386741299658e+000

7.99999999999995e+004,-2.25183007016426e+001,-3.00520923371265e+000

8.11167583832018e+004,-2.25184356673300e+001,-3.04712680791598e+000

8.22491061324848e+004,-2.25185744071589e+001,-3.08962811603710e+000

8.33972608672892e+004,-2.25187170260961e+001,-3.13272124755522e+000

8.45614432449099e+004,-2.25188636319960e+001,-3.17641440242664e+000

8.57418770029029e+004,-2.25190143356780e+001,-3.22071589252543e+000

8.69387890020841e+004,-2.25191692510066e+001,-3.26563414310279e+000

8.81524092701283e+004,-2.25193284949727e+001,-3.31117769426324e+000

8.93829710457770e+004,-2.25194921877775e+001,-3.35735520245467e+000

9.06307108236633e+004,-2.25196604529187e+001,-3.40417544197625e+000

9.18958683997622e+004,-2.25198334172783e+001,-3.45164730650443e+000

9.31786869174758e+004,-2.25200112112129e+001,-3.49977981063153e+000

9.44794129143618e+004,-2.25201939686468e+001,-3.54858209142520e+000

9.57982963695136e+004,-2.25203818271664e+001,-3.59806341000177e+000

9.71355907516031e+004,-2.25205749281180e+001,-3.64823315311779e+000

9.84915530675926e+004,-2.25207734167073e+001,-3.69910083477705e+000

9.98664439121282e+004,-2.25209774421017e+001,-3.75067609785614e+000

1.01260527517622e+005,-2.25211871575354e+001,-3.80296871574523e+000

1.02674071805032e+005,-2.25214027204164e+001,-3.85598859400674e+000

1.04107348435354e+005,-2.25216242924371e+001,-3.90974577205039e+000

1.05560632861831e+005,-2.25218520396866e+001,-3.96425042482577e+000

1.07034204382888e+005,-2.25220861327665e+001,-4.01951286453097e+000

1.08528346195813e+005,-2.25223267469091e+001,-4.07554354233933e+000

1.10043345451179e+005,-2.25225740620991e+001,-4.13235305014146e+000

1.11579493308032e+005,-2.25228282631974e+001,-4.18995212230662e+000

1.13137084989847e+005,-2.25230895400683e+001,-4.24835163745811e+000

1.14716419841265e+005,-2.25233580877101e+001,-4.30756262026837e+000

1.16317801385624e+005,-2.25236341063882e+001,-4.36759624326845e+000

1.17941537383287e+005,-2.25239178017719e+001,-4.42846382867712e+000

1.19587939890794e+005,-2.25242093850740e+001,-4.49017685024331e+000

1.21257325320831e+005,-2.25245090731942e+001,-4.55274693510846e+000

1.22950014503040e+005,-2.25248170888654e+001,-4.61618586568420e+000

1.24666332745679e+005,-2.25251336608039e+001,-4.68050558154629e+000

1.26406609898139e+005,-2.25254590238623e+001,-4.74571818134589e+000

1.28171180414339e+005,-2.25257934191873e+001,-4.81183592473675e+000

1.29960383416997e+005,-2.25261370943798e+001,-4.87887123431983e+000

1.31774562762811e+005,-2.25264903036594e+001,-4.94683669760226e+000

1.33614067108538e+005,-2.25268533080323e+001,-5.01574506897448e+000

1.35479249978003e+005,-2.25272263754636e+001,-5.08560927170252e+000

1.37370469830040e+005,-2.25276097810530e+001,-5.15644239993659e+000

1.39288090127379e+005,-2.25280038072141e+001,-5.22825772073476e+000

1.41232479406504e+005,-2.25284087438590e+001,-5.30106867610338e+000

1.43204011348474e+005,-2.25288248885854e+001,-5.37488888505266e+000

1.45203064850745e+005,-2.25292525468694e+001,-5.44973214566713e+000

1.47230024099979e+005,-2.25296920322610e+001,-5.52561243719263e+000

1.49285278645888e+005,-2.25301436665853e+001,-5.60254392213684e+000

1.51369223476094e+005,-2.25306077801472e+001,-5.68054094838593e+000

1.53482259092041e+005,-2.25310847119405e+001,-5.75961805133547e+000

1.55624791585964e+005,-2.25315748098622e+001,-5.83978995603636e+000

1.57797232718936e+005,-2.25320784309306e+001,-5.92107157935414e+000

1.59999999999999e+005,-2.25325959415083e+001,-6.00347803214393e+000

1.62233516766403e+005,-2.25331277175302e+001,-6.08702462143795e+000

1.64498212264969e+005,-2.25336741447357e+001,-6.17172685264789e+000

1.66794521734578e+005,-2.25342356189064e+001,-6.25760043178006e+000

1.69122886489819e+005,-2.25348125461079e+001,-6.34466126766499e+000

1.71483754005805e+005,-2.25354053429372e+001,-6.43292547419863e+000

1.73877578004168e+005,-2.25360144367749e+001,-6.52240937259794e+000

1.76304818540256e+005,-2.25366402660426e+001,-6.61312949366840e+000

1.78765942091554e+005,-2.25372832804654e+001,-6.70510258008416e+000

1.81261421647326e+005,-2.25379439413393e+001,-6.79834558868040e+000

1.83791736799524e+005,-2.25386227218048e+001,-6.89287569275828e+000

1.86357373834951e+005,-2.25393201071248e+001,-6.98871028440049e+000

1.88958825828723e+005,-2.25400365949686e+001,-7.08586697679995e+000

1.91596592739027e+005,-2.25407726957014e+001,-7.18436360659814e+000

1.94271181503206e+005,-2.25415289326792e+001,-7.28421823623626e+000

1.96983106135185e+005,-2.25423058425491e+001,-7.38544915631625e+000

1.99732887824256e+005,-2.25431039755560e+001,-7.48807488797222e+000

2.02521055035243e+005,-2.25439238958545e+001,-7.59211418525415e+000

2.05348143610063e+005,-2.25447661818269e+001,-7.69758603751959e+000

2.08214696870707e+005,-2.25456314264070e+001,-7.80450967183707e+000

2.11121265723661e+005,-2.25465202374104e+001,-7.91290455539883e+000

2.14068408765776e+005,-2.25474332378701e+001,-8.02279039794302e+000

2.17056692391625e+005,-2.25483710663789e+001,-8.13418715418602e+000

2.20086690902357e+005,-2.25493343774379e+001,-8.24711502626400e+000

2.23158986616063e+005,-2.25503238418116e+001,-8.36159446618297e+000

2.26274169979693e+005,-2.25513401468885e+001,-8.47764617827911e+000

2.29432839682530e+005,-2.25523839970495e+001,-8.59529112168655e+000

2.32635602771247e+005,-2.25534561140422e+001,-8.71455051281553e+000

2.35883074766574e+005,-2.25545572373620e+001,-8.83544582783795e+000

2.39175879781588e+005,-2.25556881246401e+001,-8.95799880518202e+000

2.42514650641661e+005,-2.25568495520387e+001,-9.08223144803513e+000

2.45900029006080e+005,-2.25580423146528e+001,-9.20816602685510e+000

2.49332665491357e+005,-2.25592672269195e+001,-9.33582508189011e+000

2.52813219796278e+005,-2.25605251230347e+001,-9.46523142570595e+000

2.56342360828676e+005,-2.25618168573774e+001,-9.59640814572166e+000

2.59920766833993e+005,-2.25631433049406e+001,-9.72937860675382e+000

2.63549125525621e+005,-2.25645053617716e+001,-9.86416645356794e+000

2.67228134217075e+005,-2.25659039454192e+001,-1.00007956134370e+001

2.70958499956006e+005,-2.25673399953888e+001,-1.01392902987102e+001

2.74740939660078e+005,-2.25688144736070e+001,-1.02796750093862e+001

2.78576180254757e+005,-2.25703283648934e+001,-1.04219745356963e+001

2.82464958813007e+005,-2.25718826774421e+001,-1.05662139606935e+001

2.86408022696948e+005,-2.25734784433116e+001,-1.07124186628499e+001

2.90406129701488e+005,-2.25751167189241e+001,-1.08606143186597e+001

2.94460048199957e+005,-2.25767985855747e+001,-1.10108269052507e+001

2.98570557291775e+005,-2.25785251499491e+001,-1.11630827030009e+001

3.02738446952187e+005,-2.25802975446532e+001,-1.13174082981619e+001

3.06964518184081e+005,-2.25821169287512e+001,-1.14738305854886e+001

3.11249583171928e+005,-2.25839844883154e+001,-1.16323767708731e+001

3.15594465437872e+005,-2.25859014369870e+001,-1.17930743739849e+001

3.19999999999997e+005,-2.25878690165481e+001,-1.19559512309143e+001

3.24467033532806e+005,-2.25898884975051e+001,-1.21210354968199e+001

3.28996424529938e+005,-2.25919611796849e+001,-1.22883556485787e+001

3.33589043469155e+005,-2.25940883928435e+001,-1.24579404874377e+001

3.38245772979638e+005,-2.25962714972874e+001,-1.26298191416673e+001

3.42967508011610e+005,-2.25985118845087e+001,-1.28040210692125e+001

3.47755156008335e+005,-2.26008109778343e+001,-1.29805760603436e+001

3.52609637080511e+005,-2.26031702330894e+001,-1.31595142403025e+001

3.57531884183106e+005,-2.26055911392763e+001,-1.33408660719443e+001

3.62522843294651e+005,-2.26080752192686e+001,-1.35246623583709e+001

3.67583473599047e+005,-2.26106240305211e+001,-1.37109342455555e+001

3.72714747669902e+005,-2.26132391657978e+001,-1.38997132249541e+001

3.77917651657445e+005,-2.26159222539157e+001,-1.40910311361033e+001

3.83193185478053e+005,-2.26186749605078e+001,-1.42849201691991e+001

3.88542363006410e+005,-2.26214989888033e+001,-1.44814128676539e+001

3.93966212270369e+005,-2.26243960804292e+001,-1.46805421306292e+001

3.99465775648511e+005,-2.26273680162291e+001,-1.48823412155380e+001

4.05042110070485e+005,-2.26304166171053e+001,-1.50868437405138e+001

4.10696287220124e+005,-2.26335437448797e+001,-1.52940836868404e+001

4.16429393741414e+005,-2.26367513031787e+001,-1.55040954013369e+001

4.22242531447321e+005,-2.26400412383389e+001,-1.57169135986943e+001

4.28136817531551e+005,-2.26434155403376e+001,-1.59325733637542e+001

4.34113384783250e+005,-2.26468762437458e+001,-1.61511101537245e+001

4.40173381804713e+005,-2.26504254287070e+001,-1.63725598003260e+001

4.46317973232124e+005,-2.26540652219400e+001,-1.65969585118593e+001

4.52548339959385e+005,-2.26577977977685e+001,-1.68243428751869e+001

4.58865679365059e+005,-2.26616253791759e+001,-1.70547498576184e+001

4.65271205542494e+005,-2.26655502388883e+001,-1.72882168086921e+001

4.71766149533147e+005,-2.26695747004836e+001,-1.75247814618415e+001

4.78351759563174e+005,-2.26737011395289e+001,-1.77644819359361e+001

4.85029301283321e+005,-2.26779319847462e+001,-1.80073567366869e+001

4.91800058012158e+005,-2.26822697192061e+001,-1.82534447579027e+001

4.98665330982714e+005,-2.26867168815508e+001,-1.85027852825863e+001

5.05626439592555e+005,-2.26912760672456e+001,-1.87554179838571e+001

5.12684721657352e+005,-2.26959499298594e+001,-1.90113829256876e+001

5.19841533667984e+005,-2.27007411823743e+001,-1.92707205634378e+001

5.27098251051240e+005,-2.27056525985241e+001,-1.95334717441762e+001

5.34456268434150e+005,-2.27106870141612e+001,-1.97996777067679e+001

5.41916999912011e+005,-2.27158473286521e+001,-2.00693800817184e+001

