Freq.,VOut,OutRef

1.00000000000000e+004,-7.88442739875627e+000,-1.49333034711436e-001

1.01395947979003e+004,-7.88442728553746e+000,-1.51417640752722e-001

1.02811382665607e+004,-7.88442716913482e+000,-1.53531346579374e-001

1.04246576084112e+004,-7.88442704945887e+000,-1.55674558398868e-001

1.05701804056138e+004,-7.88442692641762e+000,-1.57847688088871e-001

1.07177346253629e+004,-7.88442679991621e+000,-1.60051153278034e-001

1.08673486252606e+004,-7.88442666985751e+000,-1.62285377421429e-001

1.10190511587661e+004,-7.88442653614117e+000,-1.64550789888716e-001

1.11728713807222e+004,-7.88442639866457e+000,-1.66847826038609e-001

1.13288388529580e+004,-7.88442625732204e+000,-1.69176927307997e-001

1.14869835499703e+004,-7.88442611200440e+000,-1.71538541299301e-001

1.16473358646846e+004,-7.88442596260011e+000,-1.73933121857125e-001

1.18099266142953e+004,-7.88442580899423e+000,-1.76361129163744e-001

1.19747870461893e+004,-7.88442565106842e+000,-1.78823029825108e-001

1.21419488439505e+004,-7.88442548870129e+000,-1.81319296958088e-001

1.23114441334492e+004,-7.88442532176782e+000,-1.83850410285383e-001

1.24833054890161e+004,-7.88442515013957e+000,-1.86416856224741e-001

1.26575659397028e+004,-7.88442497368429e+000,-1.89019127984465e-001

1.28342589756290e+004,-7.88442479226639e+000,-1.91657725654815e-001

1.30134185544193e+004,-7.88442460574630e+000,-1.94333156307229e-001

1.31950791077289e+004,-7.88442441398011e+000,-1.97045934093322e-001

1.33792755478611e+004,-7.88442421682067e+000,-1.99796580335965e-001

1.35660432744767e+004,-7.88442401411582e+000,-2.02585623640274e-001

1.37554181813974e+004,-7.88442380570986e+000,-2.05413599984600e-001

1.39474366635040e+004,-7.88442359144205e+000,-2.08281052832490e-001

1.41421356237309e+004,-7.88442337114774e+000,-2.11188533228970e-001

1.43395524801583e+004,-7.88442314465733e+000,-2.14136599912673e-001

1.45397251732031e+004,-7.88442291179620e+000,-2.17125819421862e-001

1.47426921729110e+004,-7.88442267238511e+000,-2.20156766200807e-001

1.49484924863494e+004,-7.88442242623997e+000,-2.23230022710125e-001

1.51571656651040e+004,-7.88442217317122e+000,-2.26346179541745e-001

1.53687518128801e+004,-7.88442191298376e+000,-2.29505835531937e-001

1.55832915932100e+004,-7.88442164547745e+000,-2.32709597872565e-001

1.58008262372675e+004,-7.88442137044633e+000,-2.35958082230910e-001

1.60213975517924e+004,-7.88442108767844e+000,-2.39251912868786e-001

1.62450479271247e+004,-7.88442079695603e+000,-2.42591722758991e-001

1.64718203453514e+004,-7.88442049805533e+000,-2.45978153709211e-001

1.67017583885674e+004,-7.88442019074612e+000,-2.49411856484599e-001

1.69349062472505e+004,-7.88441987479157e+000,-2.52893490934255e-001

1.71713087287550e+004,-7.88441954994840e+000,-2.56423726115275e-001

1.74110112659224e+004,-7.88441921596645e+000,-2.60003240422352e-001

1.76540599258131e+004,-7.88441887258820e+000,-2.63632721720385e-001

1.79005014185594e+004,-7.88441851954934e+000,-2.67312867471768e-001

1.81503831063432e+004,-7.88441815657774e+000,-2.71044384875051e-001

1.84037530124975e+004,-7.88441778339369e+000,-2.74827990998448e-001

1.86606598307361e+004,-7.88441739970983e+000,-2.78664412915722e-001

1.89211529345119e+004,-7.88441700523036e+000,-2.82554387850483e-001

1.91852823865052e+004,-7.88441659965128e+000,-2.86498663314031e-001

1.94530989482457e+004,-7.88441618265990e+000,-2.90497997250731e-001

1.97246540898671e+004,-7.88441575393506e+000,-2.94553158180636e-001

1.99999999999999e+004,-7.88441531314620e+000,-2.98664925350685e-001

2.02791895958005e+004,-7.88441485995351e+000,-3.02834088883342e-001

2.05622765331213e+004,-7.88441439400752e+000,-3.07061449927212e-001

2.08493152168224e+004,-7.88441391494914e+000,-3.11347820810496e-001

2.11403608112276e+004,-7.88441342240893e+000,-3.15694025198665e-001

2.14354692507258e+004,-7.88441291600713e+000,-3.20100898251115e-001

2.17346972505211e+004,-7.88441239535316e+000,-3.24569286782667e-001

2.20381023175322e+004,-7.88441186004551e+000,-3.29100049425086e-001

2.23457427614443e+004,-7.88441130967119e+000,-3.33694056792925e-001

2.26576777059159e+004,-7.88441074380569e+000,-3.38352191649423e-001

2.29739670999406e+004,-7.88441016201260e+000,-3.43075349075386e-001

2.32946717293690e+004,-7.88440956384294e+000,-3.47864436644127e-001

2.36198532285905e+004,-7.88440894883522e+000,-3.52720374592368e-001

2.39495740923785e+004,-7.88440831651461e+000,-3.57644095999568e-001

2.42838976879009e+004,-7.88440766639345e+000,-3.62636546962408e-001

2.46228882668982e+004,-7.88440699796972e+000,-3.67698686782464e-001

2.49666109780322e+004,-7.88440631072748e+000,-3.72831488145664e-001

2.53151318794055e+004,-7.88440560413609e+000,-3.78035937311846e-001

2.56685179512580e+004,-7.88440487765019e+000,-3.83313034299734e-001

2.60268371088386e+004,-7.88440413070853e+000,-3.88663793085558e-001

2.63901582154578e+004,-7.88440336273444e+000,-3.94089241789911e-001

2.67585510957221e+004,-7.88440257313451e+000,-3.99590422882358e-001

2.71320865489533e+004,-7.88440176129903e+000,-4.05168393374021e-001

2.75108363627948e+004,-7.88440092660059e+000,-4.10824225027783e-001

2.78948733270080e+004,-7.88440006839418e+000,-4.16559004558120e-001

2.82842712474618e+004,-7.88439918601665e+000,-4.22373833841654e-001

2.86791049603164e+004,-7.88439827878594e+000,-4.28269830128794e-001

2.90794503464061e+004,-7.88439734600063e+000,-4.34248126258373e-001

2.94853843458219e+004,-7.88439638693957e+000,-4.40309870872943e-001

2.98969849726987e+004,-7.88439540086112e+000,-4.46456228640887e-001

3.03143313302078e+004,-7.88439438700262e+000,-4.52688380478536e-001

3.07375036257601e+004,-7.88439334457979e+000,-4.59007523777764e-001

3.11665831864199e+004,-7.88439227278607e+000,-4.65414872634943e-001

3.16016524745350e+004,-7.88439117079216e+000,-4.71911658082778e-001

3.20427951035848e+004,-7.88439003774490e+000,-4.78499128329284e-001

3.24900958542493e+004,-7.88438887276750e+000,-4.85178548991366e-001

3.29436406907028e+004,-7.88438767495773e+000,-4.91951203344570e-001

3.34035167771346e+004,-7.88438644338816e+000,-4.98818392562609e-001

3.38698124945009e+004,-7.88438517710460e+000,-5.05781435972097e-001

3.43426174575100e+004,-7.88438387512630e+000,-5.12841671299641e-001

3.48220225318448e+004,-7.88438253644406e+000,-5.20000454934891e-001

3.53081198516260e+004,-7.88438116002057e+000,-5.27259162183054e-001

3.58010028371187e+004,-7.88437974478857e+000,-5.34619187535019e-001

3.63007662126863e+004,-7.88437828965064e+000,-5.42081944930429e-001

3.68075060249948e+004,-7.88437679347835e+000,-5.49648868028498e-001

3.73213196614721e+004,-7.88437525511075e+000,-5.57321410486091e-001

3.78423058690237e+004,-7.88437367335413e+000,-5.65101046231949e-001

3.83705647730104e+004,-7.88437204698081e+000,-5.72989269750727e-001

3.89061978964912e+004,-7.88437037472791e+000,-5.80987596370407e-001

3.94493081797342e+004,-7.88436865529679e+000,-5.89097562549795e-001

3.99999999999998e+004,-7.88436688735170e+000,-5.97320726174587e-001

4.05583791916010e+004,-7.88436506951891e+000,-6.05658666854304e-001

4.11245530662425e+004,-7.88436320038540e+000,-6.14112986225703e-001

4.16986304336447e+004,-7.88436127849790e+000,-6.22685308258379e-001

4.22807216224550e+004,-7.88435930236150e+000,-6.31377279566984e-001

4.28709385014515e+004,-7.88435727043891e+000,-6.40190569723230e-001

4.34693945010421e+004,-7.88435518114856e+000,-6.49126871579087e-001

4.40762046350642e+004,-7.88435303286400e+000,-6.58187901587298e-001

4.46914855228886e+004,-7.88435082391201e+000,-6.67375400131856e-001

4.53153554118317e+004,-7.88434855257169e+000,-6.76691131859717e-001

4.59479341998812e+004,-7.88434621707289e+000,-6.86136886017807e-001

4.65893434587380e+004,-7.88434381559452e+000,-6.95714476797510e-001

4.72397064571810e+004,-7.88434134626370e+000,-7.05425743677387e-001

4.78991481847569e+004,-7.88433880715363e+000,-7.15272551778108e-001

4.85677953758016e+004,-7.88433619628227e+000,-7.25256792218212e-001

4.92457765337964e+004,-7.88433351161079e+000,-7.35380382474017e-001

4.99332219560642e+004,-7.88433075104176e+000,-7.45645266747323e-001

5.06302637588109e+004,-7.88432791241756e+000,-7.56053416335750e-001

5.13370359025159e+004,-7.88432499351855e+000,-7.66606830010614e-001

5.20536742176771e+004,-7.88432199206133e+000,-7.77307534396212e-001

5.27803164309155e+004,-7.88431890569661e+000,-7.88157584359869e-001

5.35171021914442e+004,-7.88431573200759e+000,-7.99159063401463e-001

5.42641730979066e+004,-7.88431246850794e+000,-8.10314084051697e-001

5.50216727255895e+004,-7.88430911263946e+000,-8.21624788276440e-001

5.57897466540159e+004,-7.88430566177036e+000,-8.33093347882966e-001

5.65685424949235e+004,-7.88430211319266e+000,-8.44721964937345e-001

5.73582099206328e+004,-7.88429846412035e+000,-8.56512872181347e-001

5.81589006928121e+004,-7.88429471168689e+000,-8.68468333459229e-001

5.89707686916437e+004,-7.88429085294257e+000,-8.80590644151298e-001

5.97939699453972e+004,-7.88428688485265e+000,-8.92882131606706e-001

6.06286626604156e+004,-7.88428280429422e+000,-9.05345155591665e-001

6.14750072515201e+004,-7.88427860805396e+000,-9.17982108736169e-001

6.23331663728396e+004,-7.88427429282521e+000,-9.30795416990889e-001

6.32033049490698e+004,-7.88426985520545e+000,-9.43787540088106e-001

6.40855902071694e+004,-7.88426529169318e+000,-9.56960972010456e-001

6.49801917084985e+004,-7.88426059868499e+000,-9.70318241466716e-001

6.58872813814055e+004,-7.88425577247260e+000,-9.83861912370902e-001

6.68070335542691e+004,-7.88425080923989e+000,-9.97594584330501e-001

6.77396249890018e+004,-7.88424570505916e+000,-1.01151889314223e+000

6.86852349150199e+004,-7.88424045588826e+000,-1.02563751129175e+000

6.96440450636895e+004,-7.88423505756673e+000,-1.03995314846302e+000

7.06162397032520e+004,-7.88422950581271e+000,-1.05446855205032e+000

7.16020056742374e+004,-7.88422379621868e+000,-1.06918650768460e+000

7.26015324253724e+004,-7.88421792424819e+000,-1.08410983975825e+000

7.36150120499896e+004,-7.88421188523166e+000,-1.09924141196389e+000

7.46426393229441e+004,-7.88420567436226e+000,-1.11458412783777e+000

7.56846117380472e+004,-7.88419928669201e+000,-1.13014093130904e+000

7.67411295460207e+004,-7.88419271712723e+000,-1.14591480726051e+000

7.78123957929823e+004,-7.88418596042425e+000,-1.16190878209257e+000

7.88986163594682e+004,-7.88417901118455e+000,-1.17812592429925e+000

7.99999999999995e+004,-7.88417186385039e+000,-1.19456934504672e+000

8.11167583832018e+004,-7.88416451269956e+000,-1.21124219876621e+000

8.22491061324848e+004,-7.88415695184054e+000,-1.22814768374870e+000

8.33972608672892e+004,-7.88414917520720e+000,-1.24528904275170e+000

8.45614432449099e+004,-7.88414117655335e+000,-1.26266956361248e+000

8.57418770029029e+004,-7.88413294944714e+000,-1.28029257987159e+000

8.69387890020841e+004,-7.88412448726550e+000,-1.29816147140109e+000

8.81524092701283e+004,-7.88411578318798e+000,-1.31627966504481e+000

8.93829710457770e+004,-7.88410683019054e+000,-1.33465063526692e+000

9.06307108236633e+004,-7.88409762103951e+000,-1.35327790480660e+000

9.18958683997622e+004,-7.88408814828455e+000,-1.37216504534462e+000

9.31786869174758e+004,-7.88407840425240e+000,-1.39131567817705e+000

9.44794129143618e+004,-7.88406838103929e+000,-1.41073347489955e+000

9.57982963695136e+004,-7.88405807050409e+000,-1.43042215809905e+000

9.71355907516031e+004,-7.88404746426078e+000,-1.45038550205582e+000

9.84915530675926e+004,-7.88403655367041e+000,-1.47062733345604e+000

9.98664439121282e+004,-7.88402532983324e+000,-1.49115153211189e+000

1.01260527517622e+005,-7.88401378358060e+000,-1.51196203169274e+000

1.02674071805032e+005,-7.88400190546597e+000,-1.53306282046617e+000

1.04107348435354e+005,-7.88398968575647e+000,-1.55445794204760e+000

1.05560632861831e+005,-7.88397711442340e+000,-1.57615149616233e+000

1.07034204382888e+005,-7.88396418113276e+000,-1.59814763941610e+000

1.08528346195813e+005,-7.88395087523566e+000,-1.62045058607583e+000

1.10043345451179e+005,-7.88393718575784e+000,-1.64306460886302e+000

1.11579493308032e+005,-7.88392310138946e+000,-1.66599403975475e+000

1.13137084989847e+005,-7.88390861047386e+000,-1.68924327079870e+000

1.14716419841265e+005,-7.88389370099665e+000,-1.71281675493612e+000

1.16317801385624e+005,-7.88387836057378e+000,-1.73671900683835e+000

1.17941537383287e+005,-7.88386257643956e+000,-1.76095460375340e+000

1.19587939890794e+005,-7.88384633543429e+000,-1.78552818636290e+000

1.21257325320831e+005,-7.88382962399101e+000,-1.81044445965431e+000

1.22950014503040e+005,-7.88381242812246e+000,-1.83570819379960e+000

1.24666332745679e+005,-7.88379473340701e+000,-1.86132422505039e+000

1.26406609898139e+005,-7.88377652497426e+000,-1.88729745664302e+000

1.28171180414339e+005,-7.88375778749037e+000,-1.91363285971518e+000

1.29960383416997e+005,-7.88373850514244e+000,-1.94033547423748e+000

1.31774562762811e+005,-7.88371866162272e+000,-1.96741040995441e+000

1.33614067108538e+005,-7.88369824011198e+000,-1.99486284734088e+000

1.35479249978003e+005,-7.88367722326244e+000,-2.02269803856989e+000

1.37370469830040e+005,-7.88365559318008e+000,-2.05092130849365e+000

1.39288090127379e+005,-7.88363333140624e+000,-2.07953805563864e+000

1.41232479406504e+005,-7.88361041889856e+000,-2.10855375321369e+000

1.43204011348474e+005,-7.88358683601135e+000,-2.13797395013170e+000

1.45203064850745e+005,-7.88356256247514e+000,-2.16780427204529e+000

1.47230024099979e+005,-7.88353757737549e+000,-2.19805042239712e+000

1.49285278645888e+005,-7.88351185913107e+000,-2.22871818348381e+000

1.51369223476094e+005,-7.88348538547099e+000,-2.25981341753471e+000

1.53482259092041e+005,-7.88345813341121e+000,-2.29134206780563e+000

1.55624791585964e+005,-7.88343007923017e+000,-2.32331015968732e+000

1.57797232718936e+005,-7.88340119844357e+000,-2.35572380182918e+000

1.59999999999999e+005,-7.88337146577814e+000,-2.38858918727857e+000

1.62233516766403e+005,-7.88334085514435e+000,-2.42191259463700e+000

1.64498212264969e+005,-7.88330933960846e+000,-2.45570038922998e+000

1.66794521734578e+005,-7.88327689136345e+000,-2.48995902429450e+000

1.69122886489819e+005,-7.88324348169855e+000,-2.52469504218413e+000

1.71483754005805e+005,-7.88320908096805e+000,-2.55991507558956e+000

1.73877578004168e+005,-7.88317365855904e+000,-2.59562584877539e+000

1.76304818540256e+005,-7.88313718285749e+000,-2.63183417883765e+000

1.78765942091554e+005,-7.88309962121361e+000,-2.66854697697599e+000

1.81261421647326e+005,-7.88306093990570e+000,-2.70577124978527e+000

1.83791736799524e+005,-7.88302110410289e+000,-2.74351410056491e+000

1.86357373834951e+005,-7.88298007782611e+000,-2.78178273064909e+000

1.88958825828723e+005,-7.88293782390835e+000,-2.82058444075259e+000

1.91596592739027e+005,-7.88289430395255e+000,-2.85992663234040e+000

1.94271181503206e+005,-7.88284947828909e+000,-2.89981680901284e+000

1.96983106135185e+005,-7.88280330593072e+000,-2.94026257791463e+000

1.99732887824256e+005,-7.88275574452676e+000,-2.98127165116204e+000

2.02521055035243e+005,-7.88270675031474e+000,-3.02285184729434e+000

2.05348143610063e+005,-7.88265627807137e+000,-3.06501109274266e+000

2.08214696870707e+005,-7.88260428106081e+000,-3.10775742332477e+000

2.11121265723661e+005,-7.88255071098177e+000,-3.15109898575996e+000

2.14068408765776e+005,-7.88249551791245e+000,-3.19504403920841e+000

2.17056692391625e+005,-7.88243865025361e+000,-3.23960095683301e+000

2.20086690902357e+005,-7.88238005466967e+000,-3.28477822738665e+000

2.23158986616063e+005,-7.88231967602774e+000,-3.33058445682190e+000

2.26274169979693e+005,-7.88225745733456e+000,-3.37702836992883e+000

2.29432839682530e+005,-7.88219333967124e+000,-3.42411881199621e+000

2.32635602771247e+005,-7.88212726212584e+000,-3.47186475050001e+000

2.35883074766574e+005,-7.88205916172348e+000,-3.52027527681993e+000

2.39175879781588e+005,-7.88198897335438e+000,-3.56935960798109e+000

2.42514650641661e+005,-7.88191662969915e+000,-3.61912708842709e+000

2.45900029006080e+005,-7.88184206115174e+000,-3.66958719182062e+000

2.49332665491357e+005,-7.88176519573983e+000,-3.72074952287358e+000

2.52813219796278e+005,-7.88168595904268e+000,-3.77262381920861e+000

2.56342360828676e+005,-7.88160427410606e+000,-3.82521995325151e+000

2.59920766833993e+005,-7.88152006135459e+000,-3.87854793415660e+000

2.63549125525621e+005,-7.88143323850116e+000,-3.93261790976384e+000

2.67228134217075e+005,-7.88134372045369e+000,-3.98744016859058e+000

2.70958499956006e+005,-7.88125141921849e+000,-4.04302514185845e+000

2.74740939660078e+005,-7.88115624380091e+000,-4.09938340555585e+000

2.78576180254757e+005,-7.88105810010310e+000,-4.15652568253512e+000

2.82464958813007e+005,-7.88095689081792e+000,-4.21446284465068e+000

2.86408022696948e+005,-7.88085251532033e+000,-4.27320591493344e+000

2.90406129701488e+005,-7.88074486955528e+000,-4.33276606980470e+000

2.94460048199957e+005,-7.88063384592204e+000,-4.39315464133274e+000

2.98570557291775e+005,-7.88051933315532e+000,-4.45438311952943e+000

3.02738446952187e+005,-7.88040121620308e+000,-4.51646315468991e+000

3.06964518184081e+005,-7.88027937610036e+000,-4.57940655977755e+000

3.11249583171928e+005,-7.88015368984012e+000,-4.64322531285258e+000

3.15594465437872e+005,-7.88002403024002e+000,-4.70793155954847e+000

3.19999999999997e+005,-7.87989026580568e+000,-4.77353761559492e+000

3.24467033532806e+005,-7.87975226059027e+000,-4.84005596939101e+000

3.28996424529938e+005,-7.87960987405031e+000,-4.90749928462680e+000

3.33589043469155e+005,-7.87946296089751e+000,-4.97588040295865e+000

3.38245772979638e+005,-7.87931137094711e+000,-5.04521234673496e+000

3.42967508011610e+005,-7.87915494896202e+000,-5.11550832177825e+000

3.47755156008335e+005,-7.87899353449316e+000,-5.18678172022142e+000

3.52609637080511e+005,-7.87882696171588e+000,-5.25904612340164e+000

3.57531884183106e+005,-7.87865505926247e+000,-5.33231530481231e+000

3.62522843294651e+005,-7.87847765005061e+000,-5.40660323311428e+000

3.67583473599047e+005,-7.87829455110777e+000,-5.48192407520965e+000

3.72714747669902e+005,-7.87810557339169e+000,-5.55829219937725e+000

3.77917651657445e+005,-7.87791052160679e+000,-5.63572217847196e+000

3.83193185478053e+005,-7.87770919401655e+000,-5.71422879319051e+000

3.88542363006410e+005,-7.87750138225186e+000,-5.79382703540375e+000

3.93966212270369e+005,-7.87728687111535e+000,-5.87453211155756e+000

3.99465775648511e+005,-7.87706543838150e+000,-5.95635944614427e+000

4.05042110070485e+005,-7.87683685459296e+000,-6.03932468524466e+000

4.10696287220124e+005,-7.87660088285276e+000,-6.12344370014424e+000

4.16429393741414e+005,-7.87635727861235e+000,-6.20873259102254e+000

4.22242531447321e+005,-7.87610578945597e+000,-6.29520769071942e+000

4.28136817531551e+005,-7.87584615488054e+000,-6.38288556857887e+000

4.34113384783250e+005,-7.87557810607207e+000,-6.47178303437076e+000

4.40173381804713e+005,-7.87530136567779e+000,-6.56191714229390e+000

4.46317973232124e+005,-7.87501564757441e+000,-6.65330519506051e+000

4.52548339959385e+005,-7.87472065663247e+000,-6.74596474806343e+000

4.58865679365059e+005,-7.87441608847686e+000,-6.83991361362889e+000

4.65271205542494e+005,-7.87410162924317e+000,-6.93516986535479e+000

4.71766149533147e+005,-7.87377695533052e+000,-7.03175184253592e+000

4.78351759563174e+005,-7.87344173315020e+000,-7.12967815467880e+000

4.85029301283321e+005,-7.87309561887048e+000,-7.22896768610621e+000

4.91800058012158e+005,-7.87273825815776e+000,-7.32963960065344e+000

4.98665330982714e+005,-7.87236928591367e+000,-7.43171334645662e+000

5.05626439592555e+005,-7.87198832600812e+000,-7.53520866083653e+000

5.12684721657352e+005,-7.87159499100893e+000,-7.64014557527618e+000

5.19841533667984e+005,-7.87118888190694e+000,-7.74654442049732e+000

5.27098251051240e+005,-7.87076958783760e+000,-7.85442583163249e+000

5.34456268434150e+005,-7.87033668579835e+000,-7.96381075349898e+000

5.41916999912011e+005,-7.86988974036200e+000,-8.07472044597185e+000

