Freq.,VOut,OutRef

1.00000000000000e+004,-6.53363168357769e+000,-5.14300660096368e-002

1.01395947979003e+004,-6.53363175250101e+000,-5.21479951853058e-002

1.02811382665607e+004,-6.53363182336130e+000,-5.28759459471312e-002

1.04246576084112e+004,-6.53363189621258e+000,-5.36140581796637e-002

1.05701804056138e+004,-6.53363197111120e+000,-5.43624737142493e-002

1.07177346253629e+004,-6.53363204811451e+000,-5.51213363655489e-002

1.08673486252606e+004,-6.53363212728157e+000,-5.58907919542677e-002

1.10190511587661e+004,-6.53363220867311e+000,-5.66709883358141e-002

1.11728713807222e+004,-6.53363229235178e+000,-5.74620754277455e-002

1.13288388529580e+004,-6.53363237838149e+000,-5.82642052428541e-002

1.14869835499703e+004,-6.53363246682862e+000,-5.90775319106322e-002

1.16473358646846e+004,-6.53363255776085e+000,-5.99022117150873e-002

1.18099266142953e+004,-6.53363265124820e+000,-6.07384031180568e-002

1.19747870461893e+004,-6.53363274736221e+000,-6.15862667958075e-002

1.21419488439505e+004,-6.53363284617652e+000,-6.24459656655292e-002

1.23114441334492e+004,-6.53363294776692e+000,-6.33176649175347e-002

1.24833054890161e+004,-6.53363305221184e+000,-6.42015320434254e-002

1.26575659397028e+004,-6.53363315959127e+000,-6.50977368768765e-002

1.28342589756290e+004,-6.53363326998704e+000,-6.60064516226956e-002

1.30134185544193e+004,-6.53363338348461e+000,-6.69278508805623e-002

1.31950791077289e+004,-6.53363350017039e+000,-6.78621116956102e-002

1.33792755478611e+004,-6.53363362013411e+000,-6.88094135773058e-002

1.35660432744767e+004,-6.53363374346837e+000,-6.97699385374699e-002

1.37554181813974e+004,-6.53363387026679e+000,-7.07438711372041e-002

1.39474366635040e+004,-6.53363400062713e+000,-7.17313985037372e-002

1.41421356237309e+004,-6.53363413464923e+000,-7.27327103784371e-002

1.43395524801583e+004,-6.53363427243623e+000,-7.37479991469548e-002

1.45397251732031e+004,-6.53363441409318e+000,-7.47774598853188e-002

1.47426921729110e+004,-6.53363455972926e+000,-7.58212903835649e-002

1.49484924863494e+004,-6.53363470945572e+000,-7.68796911971843e-002

1.51571656651040e+004,-6.53363486338744e+000,-7.79528656764555e-002

1.53687518128801e+004,-6.53363502164245e+000,-7.90410200089855e-002

1.55832915932100e+004,-6.53363518434208e+000,-8.01443632587419e-002

1.58008262372675e+004,-6.53363535161089e+000,-8.12631074068144e-002

1.60213975517924e+004,-6.53363552357720e+000,-8.23974673901345e-002

1.62450479271247e+004,-6.53363570037296e+000,-8.35476611435723e-002

1.64718203453514e+004,-6.53363588213322e+000,-8.47139096456354e-002

1.67017583885674e+004,-6.53363606899764e+000,-8.58964369515361e-002

1.69349062472505e+004,-6.53363626110894e+000,-8.70954702479067e-002

1.71713087287550e+004,-6.53363645861446e+000,-8.83112398860951e-002

1.74110112659224e+004,-6.53363666166567e+000,-8.95439794298673e-002

1.76540599258131e+004,-6.53363687041791e+000,-9.07939257032196e-002

1.79005014185594e+004,-6.53363708503087e+000,-9.20613188331722e-002

1.81503831063432e+004,-6.53363730566912e+000,-9.33464022932225e-002

1.84037530124975e+004,-6.53363753250152e+000,-9.46494229545790e-002

1.86606598307361e+004,-6.53363776570166e+000,-9.59706311309214e-002

1.89211529345119e+004,-6.53363800544791e+000,-9.73102806275723e-002

1.91852823865052e+004,-6.53363825192385e+000,-9.86686287876478e-002

1.94530989482457e+004,-6.53363850531823e+000,-1.00045936542982e-001

1.97246540898671e+004,-6.53363876582475e+000,-1.01442468465494e-001

1.99999999999999e+004,-6.53363903364268e+000,-1.02858492816142e-001

2.02791895958005e+004,-6.53363930897701e+000,-1.04294281594574e-001

2.05622765331213e+004,-6.53363959203804e+000,-1.05750110596603e-001

2.08493152168224e+004,-6.53363988304243e+000,-1.07226259459760e-001

2.11403608112276e+004,-6.53364018221266e+000,-1.08723011721879e-001

2.14354692507258e+004,-6.53364048977751e+000,-1.10240654873468e-001

2.17346972505211e+004,-6.53364080597172e+000,-1.11779480415688e-001

2.20381023175322e+004,-6.53364113103705e+000,-1.13339783910716e-001

2.23457427614443e+004,-6.53364146522212e+000,-1.14921865040076e-001

2.26576777059159e+004,-6.53364180878202e+000,-1.16526027665611e-001

2.29739670999406e+004,-6.53364216197896e+000,-1.18152579885142e-001

2.32946717293690e+004,-6.53364252508309e+000,-1.19801834087005e-001

2.36198532285905e+004,-6.53364289837125e+000,-1.21474107018549e-001

2.39495740923785e+004,-6.53364328212847e+000,-1.23169719839128e-001

2.42838976879009e+004,-6.53364367664784e+000,-1.24888998183395e-001

2.46228882668982e+004,-6.53364408223013e+000,-1.26632272227198e-001

2.49666109780322e+004,-6.53364449918499e+000,-1.28399876744240e-001

2.53151318794055e+004,-6.53364492783020e+000,-1.30192151176797e-001

2.56685179512580e+004,-6.53364536849262e+000,-1.32009439695178e-001

2.60268371088386e+004,-6.53364582150854e+000,-1.33852091263368e-001

2.63901582154578e+004,-6.53364628722280e+000,-1.35720459712632e-001

2.67585510957221e+004,-6.53364676599051e+000,-1.37614903799217e-001

2.71320865489533e+004,-6.53364725817637e+000,-1.39535787279315e-001

2.75108363627948e+004,-6.53364776415514e+000,-1.41483478977361e-001

2.78948733270080e+004,-6.53364828431213e+000,-1.43458352854083e-001

2.82842712474618e+004,-6.53364881904338e+000,-1.45460788078820e-001

2.86791049603164e+004,-6.53364936875567e+000,-1.47491169104167e-001

2.90794503464061e+004,-6.53364993386714e+000,-1.49549885736642e-001

2.94853843458219e+004,-6.53365051480789e+000,-1.51637333208779e-001

2.98969849726987e+004,-6.53365111201921e+000,-1.53753912261539e-001

3.03143313302078e+004,-6.53365172595548e+000,-1.55900029210975e-001

3.07375036257601e+004,-6.53365235708281e+000,-1.58076096035741e-001

3.11665831864199e+004,-6.53365300588078e+000,-1.60282530446771e-001

3.16016524745350e+004,-6.53365367284182e+000,-1.62519755972821e-001

3.20427951035848e+004,-6.53365435847244e+000,-1.64788202035647e-001

3.24900958542493e+004,-6.53365506329291e+000,-1.67088304035890e-001

3.29436406907028e+004,-6.53365578783758e+000,-1.69420503436106e-001

3.34035167771346e+004,-6.53365653265606e+000,-1.71785247839641e-001

3.38698124945009e+004,-6.53365729831271e+000,-1.74182991081174e-001

3.43426174575100e+004,-6.53365808538754e+000,-1.76614193310365e-001

3.48220225318448e+004,-6.53365889447679e+000,-1.79079321077508e-001

3.53081198516260e+004,-6.53365972619289e+000,-1.81578847425505e-001

3.58010028371187e+004,-6.53366058116498e+000,-1.84113251978455e-001

3.63007662126863e+004,-6.53366146003989e+000,-1.86683021029969e-001

3.68075060249948e+004,-6.53366236348184e+000,-1.89288647639263e-001

3.73213196614721e+004,-6.53366329217360e+000,-1.91930631721119e-001

3.78423058690237e+004,-6.53366424681655e+000,-1.94609480142673e-001

3.83705647730104e+004,-6.53366522813126e+000,-1.97325706818847e-001

3.89061978964912e+004,-6.53366623685801e+000,-2.00079832810173e-001

3.94493081797342e+004,-6.53366727375755e+000,-2.02872386418923e-001

3.99999999999998e+004,-6.53366833961124e+000,-2.05703903291731e-001

4.05583791916010e+004,-6.53366943522210e+000,-2.08574926517967e-001

4.11245530662425e+004,-6.53367056141457e+000,-2.11486006737392e-001

4.16986304336447e+004,-6.53367171903619e+000,-2.14437702236758e-001

4.22807216224550e+004,-6.53367290895723e+000,-2.17430579061237e-001

4.28709385014515e+004,-6.53367413207190e+000,-2.20465211117626e-001

4.34693945010421e+004,-6.53367538929852e+000,-2.23542180285430e-001

4.40762046350642e+004,-6.53367668158058e+000,-2.26662076523395e-001

4.46914855228886e+004,-6.53367800988734e+000,-2.29825497981069e-001

4.53153554118317e+004,-6.53367937521386e+000,-2.33033051115608e-001

4.59479341998812e+004,-6.53368077858287e+000,-2.36285350797771e-001

4.65893434587380e+004,-6.53368222104434e+000,-2.39583020435766e-001

4.72397064571810e+004,-6.53368370367668e+000,-2.42926692087228e-001

4.78991481847569e+004,-6.53368522758768e+000,-2.46317006579200e-001

4.85677953758016e+004,-6.53368679391507e+000,-2.49754613627009e-001

4.92457765337964e+004,-6.53368840382698e+000,-2.53240171959964e-001

4.99332219560642e+004,-6.53369005852317e+000,-2.56774349440792e-001

5.06302637588109e+004,-6.53369175923581e+000,-2.60357823191196e-001

5.13370359025159e+004,-6.53369350723000e+000,-2.63991279720424e-001

5.20536742176771e+004,-6.53369530380477e+000,-2.67675415052504e-001

5.27803164309155e+004,-6.53369715029420e+000,-2.71410934855002e-001

5.35171021914442e+004,-6.53369904806796e+000,-2.75198554572061e-001

5.42641730979066e+004,-6.53370099853227e+000,-2.79038999558182e-001

5.50216727255895e+004,-6.53370300313083e+000,-2.82933005213226e-001

5.57897466540159e+004,-6.53370506334593e+000,-2.86881317117724e-001

5.65685424949235e+004,-6.53370718069936e+000,-2.90884691172546e-001

5.73582099206328e+004,-6.53370935675314e+000,-2.94943893740692e-001

5.81589006928121e+004,-6.53371159311095e+000,-2.99059701786449e-001

5.89707686916437e+004,-6.53371389141863e+000,-3.03232903023480e-001

5.97939699453972e+004,-6.53371625336567e+000,-3.07464296058176e-001

6.06286626604156e+004,-6.53371868068603e+000,-3.11754690537860e-001

6.14750072515201e+004,-6.53372117515970e+000,-3.16104907298932e-001

6.23331663728396e+004,-6.53372373861277e+000,-3.20515778524306e-001

6.32033049490698e+004,-6.53372637291982e+000,-3.24988147889263e-001

6.40855902071694e+004,-6.53372908000418e+000,-3.29522870722805e-001

6.49801917084985e+004,-6.53373186183925e+000,-3.34120814163919e-001

6.58872813814055e+004,-6.53373472045038e+000,-3.38782857317082e-001

6.68070335542691e+004,-6.53373765791506e+000,-3.43509891420414e-001

6.77396249890018e+004,-6.53374067636477e+000,-3.48302820004916e-001

6.86852349150199e+004,-6.53374377798626e+000,-3.53162559060380e-001

6.96440450636895e+004,-6.53374696502255e+000,-3.58090037204778e-001

7.06162397032520e+004,-6.53375023977456e+000,-3.63086195852238e-001

7.16020056742374e+004,-6.53375360460206e+000,-3.68151989387225e-001

7.26015324253724e+004,-6.53375706192542e+000,-3.73288385335771e-001

7.36150120499896e+004,-6.53376061422668e+000,-3.78496364544184e-001

7.46426393229441e+004,-6.53376426405080e+000,-3.83776921357574e-001

7.56846117380472e+004,-6.53376801400792e+000,-3.89131063796261e-001

7.67411295460207e+004,-6.53377186677360e+000,-3.94559813744496e-001

7.78123957929823e+004,-6.53377582509116e+000,-4.00064207131562e-001

7.88986163594682e+004,-6.53377989177258e+000,-4.05645294121724e-001

7.99999999999995e+004,-6.53378406970057e+000,-4.11304139299964e-001

8.11167583832018e+004,-6.53378836182945e+000,-4.17041821869073e-001

8.22491061324848e+004,-6.53379277118701e+000,-4.22859435840187e-001

8.33972608672892e+004,-6.53379730087623e+000,-4.28758090229088e-001

8.45614432449099e+004,-6.53380195407629e+000,-4.34738909258505e-001

8.57418770029029e+004,-6.53380673404459e+000,-4.40803032556492e-001

8.69387890020841e+004,-6.53381164411794e+000,-4.46951615362286e-001

8.81524092701283e+004,-6.53381668771490e+000,-4.53185828728358e-001

8.93829710457770e+004,-6.53382186833625e+000,-4.59506859735109e-001

9.06307108236633e+004,-6.53382718956749e+000,-4.65915911697385e-001

9.18958683997622e+004,-6.53383265508018e+000,-4.72414204379065e-001

9.31786869174758e+004,-6.53383826863327e+000,-4.79002974211190e-001

9.44794129143618e+004,-6.53384403407526e+000,-4.85683474506453e-001

9.57982963695136e+004,-6.53384995534525e+000,-4.92456975685342e-001

9.71355907516031e+004,-6.53385603647522e+000,-4.99324765493940e-001

9.84915530675926e+004,-6.53386228159070e+000,-5.06288149236995e-001

9.98664439121282e+004,-6.53386869491341e+000,-5.13348450000786e-001

1.01260527517622e+005,-6.53387528076209e+000,-5.20507008887928e-001

1.02674071805032e+005,-6.53388204355443e+000,-5.27765185250909e-001

1.04107348435354e+005,-6.53388898780857e+000,-5.35124356928294e-001

1.05560632861831e+005,-6.53389611814465e+000,-5.42585920484824e-001

1.07034204382888e+005,-6.53390343928633e+000,-5.50151291452684e-001

1.08528346195813e+005,-6.53391095606209e+000,-5.57821904578956e-001

1.10043345451179e+005,-6.53391867340721e+000,-5.65599214068661e-001

1.11579493308032e+005,-6.53392659636463e+000,-5.73484693840436e-001

1.13137084989847e+005,-6.53393473008669e+000,-5.81479837775812e-001

1.14716419841265e+005,-6.53394307983620e+000,-5.89586159977767e-001

1.16317801385624e+005,-6.53395165098813e+000,-5.97805195027488e-001

1.17941537383287e+005,-6.53396044903044e+000,-6.06138498247988e-001

1.19587939890794e+005,-6.53396947956540e+000,-6.14587645967928e-001

1.21257325320831e+005,-6.53397874831099e+000,-6.23154235787655e-001

1.22950014503040e+005,-6.53398826110130e+000,-6.31839886852729e-001

1.24666332745679e+005,-6.53399802388824e+000,-6.40646240123673e-001

1.26406609898139e+005,-6.53400804274164e+000,-6.49574958655876e-001

1.28171180414339e+005,-6.53401832385053e+000,-6.58627727876489e-001

1.29960383416997e+005,-6.53402887352383e+000,-6.67806255866454e-001

1.31774562762811e+005,-6.53403969819023e+000,-6.77112273649309e-001

1.33614067108538e+005,-6.53405080439961e+000,-6.86547535474895e-001

1.35479249978003e+005,-6.53406219882249e+000,-6.96113819114067e-001

1.37370469830040e+005,-6.53407388825055e+000,-7.05812926153543e-001

1.39288090127379e+005,-6.53408587959660e+000,-7.15646682291799e-001

1.41232479406504e+005,-6.53409817989423e+000,-7.25616937642050e-001

1.43204011348474e+005,-6.53411079629768e+000,-7.35725567035803e-001

1.45203064850745e+005,-6.53412373608126e+000,-7.45974470330357e-001

1.47230024099979e+005,-6.53413700663841e+000,-7.56365572719837e-001

1.49285278645888e+005,-6.53415061548092e+000,-7.66900825050522e-001

1.51369223476094e+005,-6.53416457023762e+000,-7.77582204137567e-001

1.53482259092041e+005,-6.53417887865309e+000,-7.88411713086557e-001

1.55624791585964e+005,-6.53419354858605e+000,-7.99391381616869e-001

1.57797232718936e+005,-6.53420858800683e+000,-8.10523266393967e-001

1.59999999999999e+005,-6.53422400499587e+000,-8.21809451356429e-001

1.62233516766403e+005,-6.53423980774067e+000,-8.33252048054609e-001

1.64498212264969e+005,-6.53425600453315e+000,-8.44853195988536e-001

1.66794521734578e+005,-6.53427260376610e+000,-8.56615062952661e-001

1.69122886489819e+005,-6.53428961392979e+000,-8.68539845382047e-001

1.71483754005805e+005,-6.53430704360801e+000,-8.80629768702891e-001

1.73877578004168e+005,-6.53432490147376e+000,-8.92887087687581e-001

1.76304818540256e+005,-6.53434319628401e+000,-9.05314086816142e-001

1.78765942091554e+005,-6.53436193687496e+000,-9.17913080636199e-001

1.81261421647326e+005,-6.53438113215589e+000,-9.30686414134375e-001

1.83791736799524e+005,-6.53440079110316e+000,-9.43636463106363e-001

1.86357373834951e+005,-6.53442092275337e+000,-9.56765634534258e-001

1.88958825828723e+005,-6.53444153619614e+000,-9.70076366968047e-001

1.91596592739027e+005,-6.53446264056613e+000,-9.83571130912586e-001

1.94271181503206e+005,-6.53448424503475e+000,-9.97252429218127e-001

1.96983106135185e+005,-6.53450635880076e+000,-1.01112279747792e+000

1.99732887824256e+005,-6.53452899108078e+000,-1.02518480442913e+000

2.02521055035243e+005,-6.53455215109913e+000,-1.03944105235877e+000

2.05348143610063e+005,-6.53457584807617e+000,-1.05389417751909e+000

2.08214696870707e+005,-6.53460009121671e+000,-1.06854685054439e+000

2.11121265723661e+005,-6.53462488969758e+000,-1.08340177687595e+000

2.14068408765776e+005,-6.53465025265396e+000,-1.09846169719278e+000

2.17056692391625e+005,-6.53467618916519e+000,-1.11372938784929e+000

2.20086690902357e+005,-6.53470270823979e+000,-1.12920766131855e+000

2.23158986616063e+005,-6.53472981879945e+000,-1.14489936664331e+000

2.26274169979693e+005,-6.53475752966217e+000,-1.16080738989388e+000

2.29432839682530e+005,-6.53478584952434e+000,-1.17693465463420e+000

2.32635602771247e+005,-6.53481478694211e+000,-1.19328412239394e+000

2.35883074766574e+005,-6.53484435031140e+000,-1.20985879315059e+000

2.39175879781588e+005,-6.53487454784718e+000,-1.22666170581908e+000

2.42514650641661e+005,-6.53490538756155e+000,-1.24369593874923e+000

2.45900029006080e+005,-6.53493687724061e+000,-1.26096461023497e+000

2.49332665491357e+005,-6.53496902442050e+000,-1.27847087902964e+000

2.52813219796278e+005,-6.53500183636206e+000,-1.29621794487272e+000

2.56342360828676e+005,-6.53503532002435e+000,-1.31420904902821e+000

2.59920766833993e+005,-6.53506948203709e+000,-1.33244747483044e+000

2.63549125525621e+005,-6.53510432867160e+000,-1.35093654824467e+000

2.67228134217075e+005,-6.53513986581082e+000,-1.36967963843565e+000

2.70958499956006e+005,-6.53517609891780e+000,-1.38868015835180e+000

2.74740939660078e+005,-6.53521303300321e+000,-1.40794156531792e+000

2.78576180254757e+005,-6.53525067259117e+000,-1.42746736164501e+000

2.82464958813007e+005,-6.53528902168377e+000,-1.44726109525175e+000

2.86408022696948e+005,-6.53532808372487e+000,-1.46732636029821e+000

2.90406129701488e+005,-6.53536786156167e+000,-1.48766679783893e+000

2.94460048199957e+005,-6.53540835740558e+000,-1.50828609648674e+000

2.98570557291775e+005,-6.53544957279146e+000,-1.52918799309479e+000

3.02738446952187e+005,-6.53549150853575e+000,-1.55037627345382e+000

3.06964518184081e+005,-6.53553416469259e+000,-1.57185477300921e+000

3.11249583171928e+005,-6.53557754050962e+000,-1.59362737759191e+000

3.15594465437872e+005,-6.53562163438160e+000,-1.61569802416992e+000

3.19999999999997e+005,-6.53566644380299e+000,-1.63807070161980e+000

3.24467033532806e+005,-6.53571196531950e+000,-1.66074945151459e+000

3.28996424529938e+005,-6.53575819447776e+000,-1.68373836893672e+000

3.33589043469155e+005,-6.53580512577450e+000,-1.70704160330664e+000

3.38245772979638e+005,-6.53585275260390e+000,-1.73066335923835e+000

3.42967508011610e+005,-6.53590106720407e+000,-1.75460789741335e+000

3.47755156008335e+005,-6.53595006060219e+000,-1.77887953548083e+000

3.52609637080511e+005,-6.53599972255908e+000,-1.80348264897861e+000

3.57531884183106e+005,-6.53605004151216e+000,-1.82842167228090e+000

3.62522843294651e+005,-6.53610100451771e+000,-1.85370109957038e+000

3.67583473599047e+005,-6.53615259719227e+000,-1.87932548583633e+000

3.72714747669902e+005,-6.53620480365335e+000,-1.90529944789782e+000

3.77917651657445e+005,-6.53625760645907e+000,-1.93162766545616e+000

3.83193185478053e+005,-6.53631098654727e+000,-1.95831488217410e+000

3.88542363006410e+005,-6.53636492317462e+000,-1.98536590678065e+000

3.93966212270369e+005,-6.53641939385420e+000,-2.01278561421039e+000

3.99465775648511e+005,-6.53647437429373e+000,-2.04057894676589e+000

4.05042110070485e+005,-6.53652983833300e+000,-2.06875091531410e+000

4.10696287220124e+005,-6.53658575788131e+000,-2.09730660051108e+000

4.16429393741414e+005,-6.53664210285503e+000,-2.12625115405742e+000

4.22242531447321e+005,-6.53669884111507e+000,-2.15558979998503e+000

4.28136817531551e+005,-6.53675593840458e+000,-2.18532783597561e+000

4.34113384783250e+005,-6.53681335828721e+000,-2.21547063470925e+000

4.40173381804713e+005,-6.53687106208580e+000,-2.24602364524530e+000

4.46317973232124e+005,-6.53692900882153e+000,-2.27699239443643e+000

4.52548339959385e+005,-6.53698715515395e+000,-2.30838248837286e+000

4.58865679365059e+005,-6.53704545532221e+000,-2.34019961385753e+000

4.65271205542494e+005,-6.53710386108662e+000,-2.37244953991792e+000

4.71766149533147e+005,-6.53716232167243e+000,-2.40513811934252e+000

4.78351759563174e+005,-6.53722078371363e+000,-2.43827129025617e+000

4.85029301283321e+005,-6.53727919119971e+000,-2.47185507772000e+000

4.91800058012158e+005,-6.53733748542256e+000,-2.50589559536806e+000

4.98665330982714e+005,-6.53739560492629e+000,-2.54039904706917e+000

5.05626439592555e+005,-6.53745348545798e+000,-2.57537172862403e+000

5.12684721657352e+005,-6.53751105992110e+000,-2.61082002948671e+000

5.19841533667984e+005,-6.53756825833050e+000,-2.64675043451966e+000

5.27098251051240e+005,-6.53762500776988e+000,-2.68316952577226e+000

5.34456268434150e+005,-6.53768123235150e+000,-2.72008398429058e+000

5.41916999912011e+005,-6.53773685317803e+000,-2.75750059195166e+000

