Freq.,VOut,OutRef

1.00000000000000e+004,-7.07589852496440e-001,-3.62319916559693e-002

1.01395947979003e+004,-7.07589855330061e-001,-3.67377709835267e-002

1.02811382665607e+004,-7.07589858243218e-001,-3.72506107098943e-002

1.04246576084112e+004,-7.07589861238369e-001,-3.77706093920041e-002

1.05701804056138e+004,-7.07589864317517e-001,-3.82978669666111e-002

1.07177346253629e+004,-7.07589867483074e-001,-3.88324847627643e-002

1.08673486252606e+004,-7.07589870737869e-001,-3.93745655218889e-002

1.10190511587661e+004,-7.07589874083813e-001,-3.99242134257976e-002

1.11728713807222e+004,-7.07589877523820e-001,-4.04815341051516e-002

1.13288388529580e+004,-7.07589881060613e-001,-4.10466346659526e-002

1.14869835499703e+004,-7.07589884696659e-001,-4.16196237119967e-002

1.16473358646846e+004,-7.07589888434812e-001,-4.22006113607729e-002

1.18099266142953e+004,-7.07589892278043e-001,-4.27897092670701e-002

1.19747870461893e+004,-7.07589896229388e-001,-4.33870306439341e-002

1.21419488439505e+004,-7.07589900291412e-001,-4.39926902887902e-002

1.23114441334492e+004,-7.07589904467888e-001,-4.46068045939461e-002

1.24833054890161e+004,-7.07589908761346e-001,-4.52294915844817e-002

1.26575659397028e+004,-7.07589913175636e-001,-4.58608709265781e-002

1.28342589756290e+004,-7.07589917713665e-001,-4.65010639621039e-002

1.30134185544193e+004,-7.07589922379260e-001,-4.71501937217214e-002

1.31950791077289e+004,-7.07589927175978e-001,-4.78083849565723e-002

1.33792755478611e+004,-7.07589932107439e-001,-4.84757641583567e-002

1.35660432744767e+004,-7.07589937177344e-001,-4.91524595850669e-002

1.37554181813974e+004,-7.07589942389703e-001,-4.98386012843753e-002

1.39474366635040e+004,-7.07589947748197e-001,-5.05343211208108e-002

1.41421356237309e+004,-7.07589953257419e-001,-5.12397527956889e-002

1.43395524801583e+004,-7.07589958921141e-001,-5.19550318817151e-002

1.45397251732031e+004,-7.07589964744019e-001,-5.26802958399597e-002

1.47426921729110e+004,-7.07589970730396e-001,-5.34156840520572e-002

1.49484924863494e+004,-7.07589976884937e-001,-5.41613378448631e-002

1.51571656651040e+004,-7.07589983212184e-001,-5.49174005193169e-002

1.53687518128801e+004,-7.07589989717077e-001,-5.56840173748242e-002

1.55832915932100e+004,-7.07589996404619e-001,-5.64613357395469e-002

1.58008262372675e+004,-7.07590003279957e-001,-5.72495049980588e-002

1.60213975517924e+004,-7.07590010348179e-001,-5.80486766217040e-002

1.62450479271247e+004,-7.07590017614913e-001,-5.88590041935464e-002

1.64718203453514e+004,-7.07590025085671e-001,-5.96806434417249e-002

1.67017583885674e+004,-7.07590032765985e-001,-6.05137522696546e-002

1.69349062472505e+004,-7.07590040661977e-001,-6.13584907817437e-002

1.71713087287550e+004,-7.07590048779581e-001,-6.22150213197772e-002

1.74110112659224e+004,-7.07590057124915e-001,-6.30835084908260e-002

1.76540599258131e+004,-7.07590065704596e-001,-6.39641191986585e-002

1.79005014185594e+004,-7.07590074525003e-001,-6.48570226783257e-002

1.81503831063432e+004,-7.07590083592839e-001,-6.57623905269203e-002

1.84037530124975e+004,-7.07590092915213e-001,-6.66803967352608e-002

1.86606598307361e+004,-7.07590102499142e-001,-6.76112177244411e-002

1.89211529345119e+004,-7.07590112351923e-001,-6.85550323777542e-002

1.91852823865052e+004,-7.07590122481256e-001,-6.95120220739719e-002

1.94530989482457e+004,-7.07590132894605e-001,-7.04823707269499e-002

1.97246540898671e+004,-7.07590143600147e-001,-7.14662648138737e-002

1.99999999999999e+004,-7.07590154606040e-001,-7.24638934167928e-002

2.02791895958005e+004,-7.07590165920573e-001,-7.34754482571784e-002

2.05622765331213e+004,-7.07590177552321e-001,-7.45011237328887e-002

2.08493152168224e+004,-7.07590189510438e-001,-7.55411169525412e-002

2.11403608112276e+004,-7.07590201803823e-001,-7.65956277796872e-002

2.14354692507258e+004,-7.07590214441890e-001,-7.76648588653813e-002

2.17346972505211e+004,-7.07590227434431e-001,-7.87490156890711e-002

2.20381023175322e+004,-7.07590240791091e-001,-7.98483066007105e-002

2.23457427614443e+004,-7.07590254522328e-001,-8.09629428547129e-002

2.26576777059159e+004,-7.07590268638353e-001,-8.20931386583591e-002

2.29739670999406e+004,-7.07590283150172e-001,-8.32391112045167e-002

2.32946717293690e+004,-7.07590298068631e-001,-8.44010807212568e-002

2.36198532285905e+004,-7.07590313405313e-001,-8.55792705077739e-002

2.39495740923785e+004,-7.07590329171634e-001,-8.67739069828777e-002

2.42838976879009e+004,-7.07590345379716e-001,-8.79852197233102e-002

2.46228882668982e+004,-7.07590362042032e-001,-8.92134415101781e-002

2.49666109780322e+004,-7.07590379171101e-001,-9.04588083754402e-002

2.53151318794055e+004,-7.07590396779934e-001,-9.17215596444239e-002

2.56685179512580e+004,-7.07590414882008e-001,-9.30019379825734e-002

2.60268371088386e+004,-7.07590433490973e-001,-9.43001894433177e-002

2.63901582154578e+004,-7.07590452621229e-001,-9.56165635119782e-002

2.67585510957221e+004,-7.07590472286924e-001,-9.69513131605985e-002

2.71320865489533e+004,-7.07590492503275e-001,-9.83046948868400e-002

2.75108363627948e+004,-7.07590513285662e-001,-9.96769687709946e-002

2.78948733270080e+004,-7.07590534649636e-001,-1.01068398524363e-001

2.82842712474618e+004,-7.07590556611554e-001,-1.02479251536579e-001

2.86791049603164e+004,-7.07590579188008e-001,-1.03909798930791e-001

2.90794503464061e+004,-7.07590602396183e-001,-1.05360315613240e-001

2.94853843458219e+004,-7.07590626253589e-001,-1.06831080327926e-001

2.98969849726987e+004,-7.07590650778399e-001,-1.08322375708200e-001

3.03143313302078e+004,-7.07590675989050e-001,-1.09834488333629e-001

3.07375036257601e+004,-7.07590701904592e-001,-1.11367708782460e-001

3.11665831864199e+004,-7.07590728544826e-001,-1.12922331687329e-001

3.16016524745350e+004,-7.07590755929804e-001,-1.14498655794833e-001

3.20427951035848e+004,-7.07590784080178e-001,-1.16096984020266e-001

3.24900958542493e+004,-7.07590813017214e-001,-1.17717623507081e-001

3.29436406907028e+004,-7.07590842762792e-001,-1.19360885683857e-001

3.34035167771346e+004,-7.07590873339370e-001,-1.21027086326938e-001

3.38698124945009e+004,-7.07590904770039e-001,-1.22716545618733e-001

3.43426174575100e+004,-7.07590937078466e-001,-1.24429588210978e-001

3.48220225318448e+004,-7.07590970288861e-001,-1.26166543286401e-001

3.53081198516260e+004,-7.07591004426435e-001,-1.27927744620089e-001

3.58010028371187e+004,-7.07591039516811e-001,-1.29713530646915e-001

3.63007662126863e+004,-7.07591075586245e-001,-1.31524244524586e-001

3.68075060249948e+004,-7.07591112662022e-001,-1.33360234198661e-001

3.73213196614721e+004,-7.07591150771920e-001,-1.35221852471591e-001

3.78423058690237e+004,-7.07591189944605e-001,-1.37109457068466e-001

3.83705647730104e+004,-7.07591230209325e-001,-1.39023410707389e-001

3.89061978964912e+004,-7.07591271596436e-001,-1.40964081167105e-001

3.94493081797342e+004,-7.07591314136780e-001,-1.42931841360202e-001

3.99999999999998e+004,-7.07591357862309e-001,-1.44927069401512e-001

4.05583791916010e+004,-7.07591402805710e-001,-1.46950148683262e-001

4.11245530662425e+004,-7.07591449000500e-001,-1.49001467948130e-001

4.16986304336447e+004,-7.07591496481256e-001,-1.51081421362643e-001

4.22807216224550e+004,-7.07591545283310e-001,-1.53190408594074e-001

4.28709385014515e+004,-7.07591595443221e-001,-1.55328834885981e-001

4.34693945010421e+004,-7.07591646998120e-001,-1.57497111138682e-001

4.40762046350642e+004,-7.07591699986585e-001,-1.59695653983422e-001

4.46914855228886e+004,-7.07591754447853e-001,-1.61924885867427e-001

4.53153554118317e+004,-7.07591810422493e-001,-1.64185235130665e-001

4.59479341998812e+004,-7.07591867951972e-001,-1.66477136091171e-001

4.65893434587380e+004,-7.07591927078953e-001,-1.68801029126653e-001

4.72397064571810e+004,-7.07591987847167e-001,-1.71157360759754e-001

4.78991481847569e+004,-7.07592050301688e-001,-1.73546583742372e-001

4.85677953758016e+004,-7.07592114488558e-001,-1.75969157144869e-001

4.92457765337964e+004,-7.07592180455270e-001,-1.78425546441584e-001

4.99332219560642e+004,-7.07592248250295e-001,-1.80916223602473e-001

5.06302637588109e+004,-7.07592317923608e-001,-1.83441667181968e-001

5.13370359025159e+004,-7.07592389526543e-001,-1.86002362410184e-001

5.20536742176771e+004,-7.07592463111561e-001,-1.88598801289132e-001

5.27803164309155e+004,-7.07592538732714e-001,-1.91231482683183e-001

5.35171021914442e+004,-7.07592616445328e-001,-1.93900912418142e-001

5.42641730979066e+004,-7.07592696306363e-001,-1.96607603374202e-001

5.50216727255895e+004,-7.07592778374124e-001,-1.99352075589101e-001

5.57897466540159e+004,-7.07592862708427e-001,-2.02134856354345e-001

5.65685424949235e+004,-7.07592949370597e-001,-2.04956480318246e-001

5.73582099206328e+004,-7.07593038423854e-001,-2.07817489585409e-001

5.81589006928121e+004,-7.07593129932668e-001,-2.10718433825238e-001

5.89707686916437e+004,-7.07593223963560e-001,-2.13659870372972e-001

5.97939699453972e+004,-7.07593320584356e-001,-2.16642364339564e-001

6.06286626604156e+004,-7.07593419865006e-001,-2.19666488718037e-001

6.14750072515201e+004,-7.07593521876890e-001,-2.22732824494718e-001

6.23331663728396e+004,-7.07593626693636e-001,-2.25841960758548e-001

6.32033049490698e+004,-7.07593734390427e-001,-2.28994494816320e-001

6.40855902071694e+004,-7.07593845044553e-001,-2.32191032305546e-001

6.49801917084985e+004,-7.07593958734963e-001,-2.35432187311916e-001

6.58872813814055e+004,-7.07594075543015e-001,-2.38718582484280e-001

6.68070335542691e+004,-7.07594195551798e-001,-2.42050849157253e-001

6.77396249890018e+004,-7.07594318846667e-001,-2.45429627469338e-001

6.86852349150199e+004,-7.07594445515098e-001,-2.48855566486775e-001

6.96440450636895e+004,-7.07594575646597e-001,-2.52329324328422e-001

7.06162397032520e+004,-7.07594709333043e-001,-2.55851568290286e-001

7.16020056742374e+004,-7.07594846668573e-001,-2.59422974974416e-001

7.26015324253724e+004,-7.07594987749604e-001,-2.63044230417684e-001

7.36150120499896e+004,-7.07595132674937e-001,-2.66716030223679e-001

7.46426393229441e+004,-7.07595281545712e-001,-2.70439079696001e-001

7.56846117380472e+004,-7.07595434465699e-001,-2.74214093971750e-001

7.67411295460207e+004,-7.07595591541057e-001,-2.78041798160108e-001

7.78123957929823e+004,-7.07595752880459e-001,-2.81922927480957e-001

7.88986163594682e+004,-7.07595918595262e-001,-2.85858227404191e-001

7.99999999999995e+004,-7.07596088799551e-001,-2.89848453792931e-001

8.11167583832018e+004,-7.07596263609942e-001,-2.93894373048953e-001

8.22491061324848e+004,-7.07596443145986e-001,-2.97996762257911e-001

8.33972608672892e+004,-7.07596627529760e-001,-3.02156409339939e-001

8.45614432449099e+004,-7.07596816886490e-001,-3.06374113197293e-001

8.57418770029029e+004,-7.07597011344208e-001,-3.10650683869259e-001

8.69387890020841e+004,-7.07597211033703e-001,-3.14986942687379e-001

8.81524092701283e+004,-7.07597416088992e-001,-3.19383722430334e-001

8.93829710457770e+004,-7.07597626646981e-001,-3.23841867485240e-001

9.06307108236633e+004,-7.07597842847803e-001,-3.28362234006890e-001

9.18958683997622e+004,-7.07598064834577e-001,-3.32945690083397e-001

9.31786869174758e+004,-7.07598292753589e-001,-3.37593115901368e-001

9.44794129143618e+004,-7.07598526754396e-001,-3.42305403912762e-001

9.57982963695136e+004,-7.07598766989833e-001,-3.47083459006755e-001

9.71355907516031e+004,-7.07599013615956e-001,-3.51928198682285e-001

9.84915530675926e+004,-7.07599266792228e-001,-3.56840553222622e-001

9.98664439121282e+004,-7.07599526681379e-001,-3.61821465873602e-001

1.01260527517622e+005,-7.07599793449611e-001,-3.66871893023212e-001

1.02674071805032e+005,-7.07600067266584e-001,-3.71992804384284e-001

1.04107348435354e+005,-7.07600348305326e-001,-3.77185183179894e-001

1.05560632861831e+005,-7.07600636742392e-001,-3.82450026330028e-001

1.07034204382888e+005,-7.07600932757935e-001,-3.87788344642476e-001

1.08528346195813e+005,-7.07601236535569e-001,-3.93201163004935e-001

1.10043345451179e+005,-7.07601548262409e-001,-3.98689520582112e-001

1.11579493308032e+005,-7.07601868129272e-001,-4.04254471011221e-001

1.13137084989847e+005,-7.07602196330414e-001,-4.09897082605096e-001

1.14716419841265e+005,-7.07602533063777e-001,-4.15618438554462e-001

1.16317801385624e+005,-7.07602878530842e-001,-4.21419637135080e-001

1.17941537383287e+005,-7.07603232936642e-001,-4.27301791916841e-001

1.19587939890794e+005,-7.07603596489828e-001,-4.33266031975623e-001

1.21257325320831e+005,-7.07603969402538e-001,-4.39313502108558e-001

1.22950014503040e+005,-7.07604351890627e-001,-4.45445363051463e-001

1.24666332745679e+005,-7.07604744173175e-001,-4.51662791701441e-001

1.26406609898139e+005,-7.07605146472929e-001,-4.57966981338903e-001

1.28171180414339e+005,-7.07605559015993e-001,-4.64359141856032e-001

1.29960383416997e+005,-7.07605982031825e-001,-4.70840499986728e-001

1.31774562762811e+005,-7.07606415753323e-001,-4.77412299539403e-001

1.33614067108538e+005,-7.07606860416423e-001,-4.84075801634781e-001

1.35479249978003e+005,-7.07607316260386e-001,-4.90832284944506e-001

1.37370469830040e+005,-7.07607783527491e-001,-4.97683045935428e-001

1.39288090127379e+005,-7.07608262462955e-001,-5.04629399115096e-001

1.41232479406504e+005,-7.07608753314927e-001,-5.11672677282550e-001

1.43204011348474e+005,-7.07609256334193e-001,-5.18814231781357e-001

1.45203064850745e+005,-7.07609771774254e-001,-5.26055432755673e-001

1.47230024099979e+005,-7.07610299890862e-001,-5.33397669412442e-001

1.49285278645888e+005,-7.07610840942288e-001,-5.40842350282610e-001

1.51369223476094e+005,-7.07611395188718e-001,-5.48390903491379e-001

1.53482259092041e+005,-7.07611962892254e-001,-5.56044777028087e-001

1.55624791585964e+005,-7.07612544316654e-001,-5.63805439021210e-001

1.57797232718936e+005,-7.07613139727174e-001,-5.71674378017646e-001

1.59999999999999e+005,-7.07613749390218e-001,-5.79653103264394e-001

1.62233516766403e+005,-7.07614373572958e-001,-5.87743144996595e-001

1.64498212264969e+005,-7.07615012543351e-001,-5.95946054726208e-001

1.66794521734578e+005,-7.07615666569465e-001,-6.04263405538026e-001

1.69122886489819e+005,-7.07616335919411e-001,-6.12696792386849e-001

1.71483754005805e+005,-7.07617020860880e-001,-6.21247832400776e-001

1.73877578004168e+005,-7.07617721660483e-001,-6.29918165189001e-001

1.76304818540256e+005,-7.07618438583832e-001,-6.38709453150403e-001

1.78765942091554e+005,-7.07619171894646e-001,-6.47623381791409e-001

1.81261421647326e+005,-7.07619921854508e-001,-6.56661660044239e-001

1.83791736799524e+005,-7.07620688722237e-001,-6.65826020591246e-001

1.86357373834951e+005,-7.07621472753402e-001,-6.75118220194076e-001

1.88958825828723e+005,-7.07622274199615e-001,-6.84540040026729e-001

1.91596592739027e+005,-7.07623093308113e-001,-6.94093286012483e-001

1.94271181503206e+005,-7.07623930320873e-001,-7.03779789168151e-001

1.96983106135185e+005,-7.07624785474097e-001,-7.13601405949018e-001

1.99732887824256e+005,-7.07625658997273e-001,-7.23560018603492e-001

2.02521055035243e+005,-7.07626551112627e-001,-7.33657535528100e-001

2.05348143610063e+005,-7.07627462034131e-001,-7.43895891630000e-001

2.08214696870707e+005,-7.07628391966680e-001,-7.54277048695074e-001

2.11121265723661e+005,-7.07629341105141e-001,-7.64802995758288e-001

2.14068408765776e+005,-7.07630309633290e-001,-7.75475749482972e-001

2.17056692391625e+005,-7.07631297723064e-001,-7.86297354542008e-001

2.20086690902357e+005,-7.07632305533169e-001,-7.97269884006896e-001

2.23158986616063e+005,-7.07633333208143e-001,-8.08395439740241e-001

2.26274169979693e+005,-7.07634380877033e-001,-8.19676152796254e-001

2.29432839682530e+005,-7.07635448652275e-001,-8.31114183823910e-001

2.32635602771247e+005,-7.07636536628201e-001,-8.42711723478309e-001

2.35883074766574e+005,-7.07637644879848e-001,-8.54470992836753e-001

2.39175879781588e+005,-7.07638773461435e-001,-8.66394243820294e-001

2.42514650641661e+005,-7.07639922404754e-001,-8.78483759623066e-001

2.45900029006080e+005,-7.07641091717820e-001,-8.90741855144796e-001

2.49332665491357e+005,-7.07642281382936e-001,-9.03170877432992e-001

2.52813219796278e+005,-7.07643491355225e-001,-9.15773206128408e-001

2.56342360828676e+005,-7.07644721560684e-001,-9.28551253918724e-001

2.59920766833993e+005,-7.07645971894379e-001,-9.41507466997452e-001

2.63549125525621e+005,-7.07647242218389e-001,-9.54644325531461e-001

2.67228134217075e+005,-7.07648532360026e-001,-9.67964344132228e-001

2.70958499956006e+005,-7.07649842109318e-001,-9.81470072337069e-001

2.74740939660078e+005,-7.07651171217315e-001,-9.95164095094963e-001

2.78576180254757e+005,-7.07652519393374e-001,-1.00904903326050e+000

2.82464958813007e+005,-7.07653886302993e-001,-1.02312754409509e+000

2.86408022696948e+005,-7.07655271565482e-001,-1.03740232177466e+000

2.90406129701488e+005,-7.07656674751194e-001,-1.05187609790570e+000

2.94460048199957e+005,-7.07658095379039e-001,-1.06655164204837e+000

2.98570557291775e+005,-7.07659532913844e-001,-1.08143176224718e+000

3.02738446952187e+005,-7.07660986763362e-001,-1.09651930557020e+000

3.06964518184081e+005,-7.07662456275639e-001,-1.11181715865432e+000

3.11249583171928e+005,-7.07663940735873e-001,-1.12732824826127e+000

3.15594465437872e+005,-7.07665439363364e-001,-1.14305554184025e+000

3.19999999999997e+005,-7.07666951308484e-001,-1.15900204809817e+000

3.24467033532806e+005,-7.07668475649334e-001,-1.17517081758021e+000

3.28996424529938e+005,-7.07670011388541e-001,-1.19156494325762e+000

3.33589043469155e+005,-7.07671557449756e-001,-1.20818756112459e+000

3.38245772979638e+005,-7.07673112674217e-001,-1.22504185080483e+000

3.42967508011610e+005,-7.07674675817209e-001,-1.24213103616554e+000

3.47755156008335e+005,-7.07676245544361e-001,-1.25945838594246e+000

3.52609637080511e+005,-7.07677820428068e-001,-1.27702721437230e+000

3.57531884183106e+005,-7.07679398943430e-001,-1.29484088183688e+000

3.62522843294651e+005,-7.07680979464715e-001,-1.31290279551466e+000

3.67583473599047e+005,-7.07682560261260e-001,-1.33121641004335e+000

3.72714747669902e+005,-7.07684139493340e-001,-1.34978522819294e+000

3.77917651657445e+005,-7.07685715208420e-001,-1.36861280154698e+000

3.83193185478053e+005,-7.07687285336829e-001,-1.38770273119610e+000

3.88542363006410e+005,-7.07688847687621e-001,-1.40705866844055e+000

3.93966212270369e+005,-7.07690399944352e-001,-1.42668431550419e+000

3.99465775648511e+005,-7.07691939660985e-001,-1.44658342625812e+000

4.05042110070485e+005,-7.07693464257325e-001,-1.46675980695683e+000

4.10696287220124e+005,-7.07694971014927e-001,-1.48721731698326e+000

4.16429393741414e+005,-7.07696457072665e-001,-1.50795986960730e+000

4.22242531447321e+005,-7.07697919422275e-001,-1.52899143275360e+000

4.28136817531551e+005,-7.07699354904146e-001,-1.55031602978204e+000

4.34113384783250e+005,-7.07700760202810e-001,-1.57193774027947e+000

4.40173381804713e+005,-7.07702131842648e-001,-1.59386070086283e+000

4.46317973232124e+005,-7.07703466183219e-001,-1.61608910599597e+000

4.52548339959385e+005,-7.07704759415407e-001,-1.63862720881512e+000

4.58865679365059e+005,-7.07706007556561e-001,-1.66147932197044e+000

4.65271205542494e+005,-7.07707206446524e-001,-1.68464981847696e+000

4.71766149533147e+005,-7.07708351743056e-001,-1.70814313257987e+000

4.78351759563174e+005,-7.07709438917815e-001,-1.73196376063142e+000

4.85029301283321e+005,-7.07710463252097e-001,-1.75611626198066e+000

4.91800058012158e+005,-7.07711419832616e-001,-1.78060525987697e+000

4.98665330982714e+005,-7.07712303547424e-001,-1.80543544238564e+000

5.05626439592555e+005,-7.07713109081992e-001,-1.83061156331666e+000

5.12684721657352e+005,-7.07713830915099e-001,-1.85613844316806e+000

5.19841533667984e+005,-7.07714463315115e-001,-1.88202097008103e+000

5.27098251051240e+005,-7.07715000335969e-001,-1.90826410080966e+000

5.34456268434150e+005,-7.07715435813797e-001,-1.93487286170367e+000

5.41916999912011e+005,-7.07715763362923e-001,-1.96185234970640e+000

