Freq.,VOut,OutRef

1.00000000000000e+004,-1.63608318233086e+001,-9.73184849852599e-002

1.01395947979003e+004,-1.63608322551479e+001,-9.86769680667517e-002

1.02811382665607e+004,-1.63608326991243e+001,-1.00054413492142e-001

1.04246576084112e+004,-1.63608331555787e+001,-1.01451085908215e-001

1.05701804056138e+004,-1.63608336248620e+001,-1.02867253651576e-001

1.07177346253629e+004,-1.63608341073342e+001,-1.04303188805919e-001

1.08673486252606e+004,-1.63608346033662e+001,-1.05759167245373e-001

1.10190511587661e+004,-1.63608351133391e+001,-1.07235468695046e-001

1.11728713807222e+004,-1.63608356376441e+001,-1.08732376784141e-001

1.13288388529580e+004,-1.63608361766842e+001,-1.10250179094042e-001

1.14869835499703e+004,-1.63608367308731e+001,-1.11789167220249e-001

1.16473358646846e+004,-1.63608373006366e+001,-1.13349636823651e-001

1.18099266142953e+004,-1.63608378864122e+001,-1.14931887689248e-001

1.19747870461893e+004,-1.63608384886496e+001,-1.16536223785324e-001

1.21419488439505e+004,-1.63608391078112e+001,-1.18162953317821e-001

1.23114441334492e+004,-1.63608397443727e+001,-1.19812388789456e-001

1.24833054890161e+004,-1.63608403988225e+001,-1.21484847066058e-001

1.26575659397028e+004,-1.63608410716633e+001,-1.23180649428304e-001

1.28342589756290e+004,-1.63608417634117e+001,-1.24900121638341e-001

1.30134185544193e+004,-1.63608424745985e+001,-1.26643594002615e-001

1.31950791077289e+004,-1.63608432057700e+001,-1.28411401432249e-001

1.33792755478611e+004,-1.63608439574872e+001,-1.30203883509125e-001

1.35660432744767e+004,-1.63608447303274e+001,-1.32021384549622e-001

1.37554181813974e+004,-1.63608455248836e+001,-1.33864253672730e-001

1.39474366635040e+004,-1.63608463417659e+001,-1.35732844862591e-001

1.41421356237309e+004,-1.63608471816011e+001,-1.37627517041364e-001

1.43395524801583e+004,-1.63608480450340e+001,-1.39548634133978e-001

1.45397251732031e+004,-1.63608489327269e+001,-1.41496565140724e-001

1.47426921729110e+004,-1.63608498453613e+001,-1.43471684204663e-001

1.49484924863494e+004,-1.63608507836376e+001,-1.45474370683851e-001

1.51571656651040e+004,-1.63608517482756e+001,-1.47505009228180e-001

1.53687518128801e+004,-1.63608527400155e+001,-1.49563989846265e-001

1.55832915932100e+004,-1.63608537596183e+001,-1.51651707984499e-001

1.58008262372675e+004,-1.63608548078663e+001,-1.53768564600958e-001

1.60213975517924e+004,-1.63608558855635e+001,-1.55914966242328e-001

1.62450479271247e+004,-1.63608569935368e+001,-1.58091325121846e-001

1.64718203453514e+004,-1.63608581326362e+001,-1.60298059195813e-001

1.67017583885674e+004,-1.63608593037352e+001,-1.62535592248483e-001

1.69349062472505e+004,-1.63608605077322e+001,-1.64804353967163e-001

1.71713087287550e+004,-1.63608617455505e+001,-1.67104780028580e-001

1.74110112659224e+004,-1.63608630181394e+001,-1.69437312178567e-001

1.76540599258131e+004,-1.63608643264750e+001,-1.71802398317923e-001

1.79005014185594e+004,-1.63608656715601e+001,-1.74200492591164e-001

1.81503831063432e+004,-1.63608670544264e+001,-1.76632055465204e-001

1.84037530124975e+004,-1.63608684761338e+001,-1.79097553826236e-001

1.86606598307361e+004,-1.63608699377724e+001,-1.81597461060849e-001

1.89211529345119e+004,-1.63608714404626e+001,-1.84132257151525e-001

1.91852823865052e+004,-1.63608729853560e+001,-1.86702428766667e-001

1.94530989482457e+004,-1.63608745736369e+001,-1.89308469352071e-001

1.97246540898671e+004,-1.63608762065223e+001,-1.91950879225276e-001

1.99999999999999e+004,-1.63608778852638e+001,-1.94630165671765e-001

2.02791895958005e+004,-1.63608796111472e+001,-1.97346843043127e-001

2.05622765331213e+004,-1.63608813854952e+001,-2.00101432848989e-001

2.08493152168224e+004,-1.63608832096668e+001,-2.02894463864194e-001

2.11403608112276e+004,-1.63608850850597e+001,-2.05726472220676e-001

2.14354692507258e+004,-1.63608870131099e+001,-2.08598001519020e-001

2.17346972505211e+004,-1.63608889952941e+001,-2.11509602923489e-001

2.20381023175322e+004,-1.63608910331303e+001,-2.14461835270443e-001

2.23457427614443e+004,-1.63608931281787e+001,-2.17455265175511e-001

2.26576777059159e+004,-1.63608952820435e+001,-2.20490467136857e-001

2.29739670999406e+004,-1.63608974963731e+001,-2.23568023650815e-001

2.32946717293690e+004,-1.63608997728626e+001,-2.26688525316637e-001

2.36198532285905e+004,-1.63609021132542e+001,-2.29852570949310e-001

2.39495740923785e+004,-1.63609045193389e+001,-2.33060767697555e-001

2.42838976879009e+004,-1.63609069929574e+001,-2.36313731153815e-001

2.46228882668982e+004,-1.63609095360023e+001,-2.39612085472366e-001

2.49666109780322e+004,-1.63609121504187e+001,-2.42956463489035e-001

2.53151318794055e+004,-1.63609148382061e+001,-2.46347506840034e-001

2.56685179512580e+004,-1.63609176014198e+001,-2.49785866083870e-001

2.60268371088386e+004,-1.63609204421726e+001,-2.53272200820695e-001

2.63901582154578e+004,-1.63609233626361e+001,-2.56807179824172e-001

2.67585510957221e+004,-1.63609263650424e+001,-2.60391481161654e-001

2.71320865489533e+004,-1.63609294516861e+001,-2.64025792325245e-001

2.75108363627948e+004,-1.63609326249256e+001,-2.67710810360151e-001

2.78948733270080e+004,-1.63609358871851e+001,-2.71447241997536e-001

2.82842712474618e+004,-1.63609392409565e+001,-2.75235803786907e-001

2.86791049603164e+004,-1.63609426888009e+001,-2.79077222232398e-001

2.90794503464061e+004,-1.63609462333508e+001,-2.82972233927267e-001

2.94853843458219e+004,-1.63609498773122e+001,-2.86921585694922e-001

2.98969849726987e+004,-1.63609536234662e+001,-2.90926034728970e-001

3.03143313302078e+004,-1.63609574746716e+001,-2.94986348734173e-001

3.07375036257601e+004,-1.63609614338663e+001,-2.99103306073770e-001

3.11665831864199e+004,-1.63609655040706e+001,-3.03277695911560e-001

3.16016524745350e+004,-1.63609696883880e+001,-3.07510318364907e-001

3.20427951035848e+004,-1.63609739900089e+001,-3.11801984650866e-001

3.24900958542493e+004,-1.63609784122122e+001,-3.16153517239372e-001

3.29436406907028e+004,-1.63609829583678e+001,-3.20565750008403e-001

3.34035167771346e+004,-1.63609876319393e+001,-3.25039528399393e-001

3.38698124945009e+004,-1.63609924364866e+001,-3.29575709575528e-001

3.43426174575100e+004,-1.63609973756679e+001,-3.34175162582016e-001

3.48220225318448e+004,-1.63610024532436e+001,-3.38838768508037e-001

3.53081198516260e+004,-1.63610076730779e+001,-3.43567420651813e-001

3.58010028371187e+004,-1.63610130391424e+001,-3.48362024686504e-001

3.63007662126863e+004,-1.63610185555184e+001,-3.53223498830529e-001

3.68075060249948e+004,-1.63610242264009e+001,-3.58152774015933e-001

3.73213196614721e+004,-1.63610300561005e+001,-3.63150794064554e-001

3.78423058690237e+004,-1.63610360490474e+001,-3.68218515861177e-001

3.83705647730104e+004,-1.63610422097942e+001,-3.73356909532503e-001

3.89061978964912e+004,-1.63610485430195e+001,-3.78566958626929e-001

3.94493081797342e+004,-1.63610550535313e+001,-3.83849660295313e-001

3.99999999999998e+004,-1.63610617462703e+001,-3.89206025478829e-001

4.05583791916010e+004,-1.63610686263138e+001,-3.94637079092177e-001

4.11245530662425e+004,-1.63610756988789e+001,-4.00143860216486e-001

4.16986304336447e+004,-1.63610829693271e+001,-4.05727422288136e-001

4.22807216224550e+004,-1.63610904431675e+001,-4.11388833294645e-001

4.28709385014515e+004,-1.63610981260607e+001,-4.17129175971753e-001

4.34693945010421e+004,-1.63611060238239e+001,-4.22949547999992e-001

4.40762046350642e+004,-1.63611141424338e+001,-4.28851062210143e-001

4.46914855228886e+004,-1.63611224880317e+001,-4.34834846783606e-001

4.53153554118317e+004,-1.63611310669280e+001,-4.40902045461070e-001

4.59479341998812e+004,-1.63611398856060e+001,-4.47053817753703e-001

4.65893434587380e+004,-1.63611489507274e+001,-4.53291339150351e-001

4.72397064571810e+004,-1.63611582691364e+001,-4.59615801335532e-001

4.78991481847569e+004,-1.63611678478650e+001,-4.66028412406794e-001

4.85677953758016e+004,-1.63611776941380e+001,-4.72530397091584e-001

4.92457765337964e+004,-1.63611878153778e+001,-4.79122996972786e-001

4.99332219560642e+004,-1.63611982192097e+001,-4.85807470713377e-001

5.06302637588109e+004,-1.63612089134679e+001,-4.92585094282667e-001

5.13370359025159e+004,-1.63612199062003e+001,-4.99457161188732e-001

5.20536742176771e+004,-1.63612312056745e+001,-5.06424982710888e-001

5.27803164309155e+004,-1.63612428203836e+001,-5.13489888136873e-001

5.35171021914442e+004,-1.63612547590520e+001,-5.20653225001687e-001

5.42641730979066e+004,-1.63612670306417e+001,-5.27916359329159e-001

5.50216727255895e+004,-1.63612796443584e+001,-5.35280675877023e-001

5.57897466540159e+004,-1.63612926096578e+001,-5.42747578384602e-001

5.65685424949235e+004,-1.63613059362524e+001,-5.50318489823979e-001

5.73582099206328e+004,-1.63613196341181e+001,-5.57994852651022e-001

5.81589006928121e+004,-1.63613337135008e+001,-5.65778129066645e-001

5.89707686916437e+004,-1.63613481849240e+001,-5.73669801270625e-001

5.97939699453972e+004,-1.63613630591952e+001,-5.81671371729006e-001

6.06286626604156e+004,-1.63613783474141e+001,-5.89784363435446e-001

6.14750072515201e+004,-1.63613940609797e+001,-5.98010320181626e-001

6.23331663728396e+004,-1.63614102115977e+001,-6.06350806828611e-001

6.32033049490698e+004,-1.63614268112891e+001,-6.14807409581407e-001

6.40855902071694e+004,-1.63614438723974e+001,-6.23381736266047e-001

6.49801917084985e+004,-1.63614614075980e+001,-6.32075416608564e-001

6.58872813814055e+004,-1.63614794299054e+001,-6.40890102521869e-001

6.68070335542691e+004,-1.63614979526826e+001,-6.49827468389747e-001

6.77396249890018e+004,-1.63615169896495e+001,-6.58889211359005e-001

6.86852349150199e+004,-1.63615365548924e+001,-6.68077051628765e-001

6.96440450636895e+004,-1.63615566628726e+001,-6.77392732751018e-001

7.06162397032520e+004,-1.63615773284362e+001,-6.86838021925648e-001

7.16020056742374e+004,-1.63615985668236e+001,-6.96414710306058e-001

7.26015324253724e+004,-1.63616203936793e+001,-7.06124613301956e-001

7.36150120499896e+004,-1.63616428250619e+001,-7.15969570889472e-001

7.46426393229441e+004,-1.63616658774541e+001,-7.25951447922663e-001

7.56846117380472e+004,-1.63616895677737e+001,-7.36072134447004e-001

7.67411295460207e+004,-1.63617139133836e+001,-7.46333546018823e-001

7.78123957929823e+004,-1.63617389321031e+001,-7.56737624026935e-001

7.88986163594682e+004,-1.63617646422188e+001,-7.67286336014288e-001

7.99999999999995e+004,-1.63617910624956e+001,-7.77981676008259e-001

8.11167583832018e+004,-1.63618182121889e+001,-7.88825664849143e-001

8.22491061324848e+004,-1.63618461110554e+001,-7.99820350525772e-001

8.33972608672892e+004,-1.63618747793660e+001,-8.10967808509644e-001

8.45614432449099e+004,-1.63619042379173e+001,-8.22270142096689e-001

8.57418770029029e+004,-1.63619345080438e+001,-8.33729482750904e-001

8.69387890020841e+004,-1.63619656116314e+001,-8.45347990448267e-001

8.81524092701283e+004,-1.63619975711292e+001,-8.57127854027451e-001

8.93829710457770e+004,-1.63620304095631e+001,-8.69071291541919e-001

9.06307108236633e+004,-1.63620641505488e+001,-8.81180550614559e-001

9.18958683997622e+004,-1.63620988183056e+001,-8.93457908796927e-001

9.31786869174758e+004,-1.63621344376695e+001,-9.05905673929039e-001

9.44794129143618e+004,-1.63621710341075e+001,-9.18526184506094e-001

9.57982963695136e+004,-1.63622086337314e+001,-9.31321810043357e-001

9.71355907516031e+004,-1.63622472633124e+001,-9.44294951447418e-001

9.84915530675926e+004,-1.63622869502953e+001,-9.57448041390036e-001

9.98664439121282e+004,-1.63623277228133e+001,-9.70783544682454e-001

1.01260527517622e+005,-1.63623696097027e+001,-9.84303958656076e-001

1.02674071805032e+005,-1.63624126405181e+001,-9.98011813543656e-001

1.04107348435354e+005,-1.63624568455477e+001,-1.01190967286186e+000

1.05560632861831e+005,-1.63625022558284e+001,-1.02600013380305e+000

1.07034204382888e+005,-1.63625489031613e+001,-1.04028582762032e+000

1.08528346195813e+005,-1.63625968201281e+001,-1.05476942002336e+000

1.10043345451179e+005,-1.63626460401058e+001,-1.06945361157367e+000

1.11579493308032e+005,-1.63626965972837e+001,-1.08434113808037e+000

1.13137084989847e+005,-1.63627485266789e+001,-1.09943477100457e+000

1.14716419841265e+005,-1.63628018641526e+001,-1.11473731785860e+000

1.16317801385624e+005,-1.63628566464266e+001,-1.13025162261446e+000

1.17941537383287e+005,-1.63629129110992e+001,-1.14598056611065e+000

1.19587939890794e+005,-1.63629706966621e+001,-1.16192706646433e+000

1.21257325320831e+005,-1.63630300425167e+001,-1.17809407948203e+000

1.22950014503040e+005,-1.63630909889906e+001,-1.19448459907659e+000

1.24666332745679e+005,-1.63631535773539e+001,-1.21110165768543e+000

1.26406609898139e+005,-1.63632178498360e+001,-1.22794832668834e+000

1.28171180414339e+005,-1.63632838496419e+001,-1.24502771683234e+000

1.29960383416997e+005,-1.63633516209686e+001,-1.26234297865435e+000

1.31774562762811e+005,-1.63634212090217e+001,-1.27989730290814e+000

1.33614067108538e+005,-1.63634926600310e+001,-1.29769392099370e+000

1.35479249978003e+005,-1.63635660212670e+001,-1.31573610538880e+000

1.37370469830040e+005,-1.63636413410569e+001,-1.33402717007926e+000

1.39288090127379e+005,-1.63637186688000e+001,-1.35257047099753e+000

1.41232479406504e+005,-1.63637980549832e+001,-1.37136940645805e+000

1.43204011348474e+005,-1.63638795511965e+001,-1.39042741759673e+000

1.45203064850745e+005,-1.63639632101475e+001,-1.40974798881179e+000

1.47230024099979e+005,-1.63640490856760e+001,-1.42933464820907e+000

1.49285278645888e+005,-1.63641372327686e+001,-1.44919096804508e+000

1.51369223476094e+005,-1.63642277075718e+001,-1.46932056517636e+000

1.53482259092041e+005,-1.63643205674058e+001,-1.48972710150735e+000

1.55624791585964e+005,-1.63644158707767e+001,-1.51041428444521e+000

1.57797232718936e+005,-1.63645136773890e+001,-1.53138586735006e+000

1.59999999999999e+005,-1.63646140481572e+001,-1.55264564999355e+000

1.62233516766403e+005,-1.63647170452164e+001,-1.57419747901726e+000

1.64498212264969e+005,-1.63648227319324e+001,-1.59604524839286e+000

1.66794521734578e+005,-1.63649311729112e+001,-1.61819289988601e+000

1.69122886489819e+005,-1.63650424340075e+001,-1.64064442352219e+000

1.71483754005805e+005,-1.63651565823320e+001,-1.66340385805516e+000

1.73877578004168e+005,-1.63652736862579e+001,-1.68647529144005e+000

1.76304818540256e+005,-1.63653938154269e+001,-1.70986286130547e+000

1.78765942091554e+005,-1.63655170407530e+001,-1.73357075543362e+000

1.81261421647326e+005,-1.63656434344259e+001,-1.75760321224071e+000

1.83791736799524e+005,-1.63657730699130e+001,-1.78196452126153e+000

1.86357373834951e+005,-1.63659060219597e+001,-1.80665902363921e+000

1.88958825828723e+005,-1.63660423665887e+001,-1.83169111261829e+000

1.91596592739027e+005,-1.63661821810976e+001,-1.85706523404108e+000

1.94271181503206e+005,-1.63663255440546e+001,-1.88278588685237e+000

1.96983106135185e+005,-1.63664725352932e+001,-1.90885762360458e+000

1.99732887824256e+005,-1.63666232359048e+001,-1.93528505097355e+000

2.02521055035243e+005,-1.63667777282287e+001,-1.96207283027659e+000

2.05348143610063e+005,-1.63669360958416e+001,-1.98922567799991e+000

2.08214696870707e+005,-1.63670984235439e+001,-2.01674836633027e+000

2.11121265723661e+005,-1.63672647973444e+001,-2.04464572369728e+000

2.14068408765776e+005,-1.63674353044426e+001,-2.07292263532182e+000

2.17056692391625e+005,-1.63676100332085e+001,-2.10158404377473e+000

2.20086690902357e+005,-1.63677890731606e+001,-2.13063494954536e+000

2.23158986616063e+005,-1.63679725149405e+001,-2.16008041161773e+000

2.26274169979693e+005,-1.63681604502858e+001,-2.18992554806289e+000

2.29432839682530e+005,-1.63683529719998e+001,-2.22017553663813e+000

2.32635602771247e+005,-1.63685501739180e+001,-2.25083561540325e+000

2.35883074766574e+005,-1.63687521508730e+001,-2.28191108334856e+000

2.39175879781588e+005,-1.63689589986551e+001,-2.31340730103809e+000

2.42514650641661e+005,-1.63691708139706e+001,-2.34532969127053e+000

2.45900029006080e+005,-1.63693876943966e+001,-2.37768373975460e+000

2.49332665491357e+005,-1.63696097383330e+001,-2.41047499580636e+000

2.52813219796278e+005,-1.63698370449509e+001,-2.44370907306277e+000

2.56342360828676e+005,-1.63700697141375e+001,-2.47739165021916e+000

2.59920766833993e+005,-1.63703078464384e+001,-2.51152847178697e+000

2.63549125525621e+005,-1.63705515429949e+001,-2.54612534887778e+000

2.67228134217075e+005,-1.63708009054798e+001,-2.58118816001092e+000

2.70958499956006e+005,-1.63710560360276e+001,-2.61672285194882e+000

2.74740939660078e+005,-1.63713170371628e+001,-2.65273544056159e+000

2.78576180254757e+005,-1.63715840117237e+001,-2.68923201172184e+000

2.82464958813007e+005,-1.63718570627822e+001,-2.72621872223177e+000

2.86408022696948e+005,-1.63721362935613e+001,-2.76370180078426e+000

2.90406129701488e+005,-1.63724218073479e+001,-2.80168754896141e+000

2.94460048199957e+005,-1.63727137074021e+001,-2.84018234226861e+000

2.98570557291775e+005,-1.63730120968637e+001,-2.87919263121172e+000

3.02738446952187e+005,-1.63733170786540e+001,-2.91872494241498e+000

3.06964518184081e+005,-1.63736287553755e+001,-2.95878587978305e+000

3.11249583171928e+005,-1.63739472292075e+001,-2.99938212570998e+000

3.15594465437872e+005,-1.63742726017984e+001,-3.04052044233820e+000

3.19999999999997e+005,-1.63746049741555e+001,-3.08220767286612e+000

3.24467033532806e+005,-1.63749444465310e+001,-3.12445074291145e+000

3.28996424529938e+005,-1.63752911183063e+001,-3.16725666192844e+000

3.33589043469155e+005,-1.63756450878729e+001,-3.21063252468401e+000

3.38245772979638e+005,-1.63760064525110e+001,-3.25458551279441e+000

3.42967508011610e+005,-1.63763753082662e+001,-3.29912289632292e+000

3.47755156008335e+005,-1.63767517498244e+001,-3.34425203544443e+000

3.52609637080511e+005,-1.63771358703846e+001,-3.38998038217550e+000

3.57531884183106e+005,-1.63775277615313e+001,-3.43631548217408e+000

3.62522843294651e+005,-1.63779275131048e+001,-3.48326497661247e+000

3.67583473599047e+005,-1.63783352130718e+001,-3.53083660412132e+000

3.72714747669902e+005,-1.63787509473955e+001,-3.57903820281087e+000

3.77917651657445e+005,-1.63791747999059e+001,-3.62787771236983e+000

3.83193185478053e+005,-1.63796068521706e+001,-3.67736317624324e+000

3.88542363006410e+005,-1.63800471833673e+001,-3.72750274389220e+000

3.93966212270369e+005,-1.63804958701569e+001,-3.77830467313592e+000

3.99465775648511e+005,-1.63809529865597e+001,-3.82977733257848e+000

4.05042110070485e+005,-1.63814186038340e+001,-3.88192920412104e+000

4.10696287220124e+005,-1.63818927903570e+001,-3.93476888556193e+000

4.16429393741414e+005,-1.63823756115113e+001,-3.98830509328217e+000

4.22242531447321e+005,-1.63828671295742e+001,-4.04254666502185e+000

4.28136817531551e+005,-1.63833674036127e+001,-4.09750256274516e+000

4.34113384783250e+005,-1.63838764893844e+001,-4.15318187559339e+000

4.40173381804713e+005,-1.63843944392442e+001,-4.20959382292916e+000

4.46317973232124e+005,-1.63849213020583e+001,-4.26674775746794e+000

4.52548339959385e+005,-1.63854571231259e+001,-4.32465316850100e+000

4.58865679365059e+005,-1.63860019441094e+001,-4.38331968520386e+000

4.65271205542494e+005,-1.63865558029734e+001,-4.44275708003229e+000

4.71766149533147e+005,-1.63871187339334e+001,-4.50297527220577e+000

4.78351759563174e+005,-1.63876907674153e+001,-4.56398433127179e+000

4.85029301283321e+005,-1.63882719300261e+001,-4.62579448075496e+000

4.91800058012158e+005,-1.63888622445358e+001,-4.68841610188400e+000

4.98665330982714e+005,-1.63894617298727e+001,-4.75185973739705e+000

5.05626439592555e+005,-1.63900704011309e+001,-4.81613609541984e+000

5.12684721657352e+005,-1.63906882695925e+001,-4.88125605341673e+000

5.19841533667984e+005,-1.63913153427635e+001,-4.94723066220621e+000

5.27098251051240e+005,-1.63919516244252e+001,-5.01407115004328e+000

5.34456268434150e+005,-1.63925971147006e+001,-5.08178892675777e+000

5.41916999912011e+005,-1.63932518101376e+001,-5.15039558795043e+000

