Freq.,VOut,OutRef

1.00000000000000e+004,-8.18956091194989e+000,-3.80149551261015e-002

1.01395947979003e+004,-8.18956098861070e+000,-3.85456167327284e-002

1.02811382665607e+004,-8.18956106742578e+000,-3.90836857862138e-002

1.04246576084112e+004,-8.18956114845563e+000,-3.96292656779725e-002

1.05701804056138e+004,-8.18956123176315e+000,-4.01824612366839e-002

1.07177346253629e+004,-8.18956131741124e+000,-4.07433787657921e-002

1.08673486252606e+004,-8.18956140546645e+000,-4.13121260398321e-002

1.10190511587661e+004,-8.18956149599622e+000,-4.18888123428977e-002

1.11728713807222e+004,-8.18956158907003e+000,-4.24735484840527e-002

1.13288388529580e+004,-8.18956168475913e+000,-4.30664468187568e-002

1.14869835499703e+004,-8.18956178313743e+000,-4.36676212663452e-002

1.16473358646846e+004,-8.18956188427980e+000,-4.42771873428012e-002

1.18099266142953e+004,-8.18956198826459e+000,-4.48952621667204e-002

1.19747870461893e+004,-8.18956209517114e+000,-4.55219644989291e-002

1.21419488439505e+004,-8.18956220508145e+000,-4.61574147542908e-002

1.23114441334492e+004,-8.18956231808026e+000,-4.68017350248967e-002

1.24833054890161e+004,-8.18956243425403e+000,-4.74550491100622e-002

1.26575659397028e+004,-8.18956255369211e+000,-4.81174825342615e-002

1.28342589756290e+004,-8.18956267648623e+000,-4.87891625731498e-002

1.30134185544193e+004,-8.18956280273023e+000,-4.94702182812179e-002

1.31950791077289e+004,-8.18956293252112e+000,-5.01607805101485e-002

1.33792755478611e+004,-8.18956306595897e+000,-5.08609819351686e-002

1.35660432744767e+004,-8.18956320314535e+000,-5.15709570897634e-002

1.37554181813974e+004,-8.18956334418638e+000,-5.22908423743867e-002

1.39474366635040e+004,-8.18956348918958e+000,-5.30207761015490e-002

1.41421356237309e+004,-8.18956363826635e+000,-5.37608985084101e-002

1.43395524801583e+004,-8.18956379153147e+000,-5.45113517859398e-002

1.45397251732031e+004,-8.18956394910203e+000,-5.52722801147536e-002

1.47426921729110e+004,-8.18956411109912e+000,-5.60438296823213e-002

1.49484924863494e+004,-8.18956427764684e+000,-5.68261487167690e-002

1.51571656651040e+004,-8.18956444887295e+000,-5.76193875136218e-002

1.53687518128801e+004,-8.18956462490879e+000,-5.84236984642261e-002

1.55832915932100e+004,-8.18956480588933e+000,-5.92392360852840e-002

1.58008262372675e+004,-8.18956499195349e+000,-6.00661570485036e-002

1.60213975517924e+004,-8.18956518324399e+000,-6.09046202105382e-002

1.62450479271247e+004,-8.18956537990706e+000,-6.17547866467738e-002

1.64718203453514e+004,-8.18956558209380e+000,-6.26168196742967e-002

1.67017583885674e+004,-8.18956578995899e+000,-6.34908848910543e-002

1.69349062472505e+004,-8.18956600366215e+000,-6.43771502019468e-002

1.71713087287550e+004,-8.18956622336715e+000,-6.52757858537499e-002

1.74110112659224e+004,-8.18956644924173e+000,-6.61869644725198e-002

1.76540599258131e+004,-8.18956668145987e+000,-6.71108610805816e-002

1.79005014185594e+004,-8.18956692019877e+000,-6.80476531522132e-002

1.81503831063432e+004,-8.18956716564163e+000,-6.89975206292059e-002

1.84037530124975e+004,-8.18956741797663e+000,-6.99606459633412e-002

1.86606598307361e+004,-8.18956767739677e+000,-7.09372141527465e-002

1.89211529345119e+004,-8.18956794410082e+000,-7.19274127727966e-002

1.91852823865052e+004,-8.18956821829284e+000,-7.29314320155542e-002

1.94530989482457e+004,-8.18956850018326e+000,-7.39494647205730e-002

1.97246540898671e+004,-8.18956878998761e+000,-7.49817064198530e-002

1.99999999999999e+004,-8.18956908792790e+000,-7.60283553691417e-002

2.02791895958005e+004,-8.18956939423193e+000,-7.70896125900949e-002

2.05622765331213e+004,-8.18956970913416e+000,-7.81656819043412e-002

2.08493152168224e+004,-8.18957003287589e+000,-7.92567699729416e-002

2.11403608112276e+004,-8.18957036570463e+000,-8.03630863399394e-002

2.14354692507258e+004,-8.18957070787510e+000,-8.14848434692008e-002

2.17346972505211e+004,-8.18957105964889e+000,-8.26222567860522e-002

2.20381023175322e+004,-8.18957142129530e+000,-8.37755447157189e-002

2.23457427614443e+004,-8.18957179309069e+000,-8.49449287303115e-002

2.26576777059159e+004,-8.18957217531946e+000,-8.61306333857122e-002

2.29739670999406e+004,-8.18957256827377e+000,-8.73328863679969e-002

2.32946717293690e+004,-8.18957297225403e+000,-8.85519185347178e-002

2.36198532285905e+004,-8.18957338756919e+000,-8.97879639592507e-002

2.39495740923785e+004,-8.18957381453627e+000,-9.10412599791970e-002

2.42838976879009e+004,-8.18957425348152e+000,-9.23120472356959e-002

2.46228882668982e+004,-8.18957470474066e+000,-9.36005697202350e-002

2.49666109780322e+004,-8.18957516865799e+000,-9.49070748270679e-002

2.53151318794055e+004,-8.18957564558790e+000,-9.62318133938153e-002

2.56685179512580e+004,-8.18957613589450e+000,-9.75750397525401e-002

2.60268371088386e+004,-8.18957663995200e+000,-9.89370117766737e-002

2.63901582154578e+004,-8.18957715814504e+000,-1.00317990931528e-001

2.67585510957221e+004,-8.18957769086909e+000,-1.01718242322183e-001

2.71320865489533e+004,-8.18957823853057e+000,-1.03138034745209e-001

2.75108363627948e+004,-8.18957880154719e+000,-1.04577640739794e-001

2.78948733270080e+004,-8.18957938034831e+000,-1.06037336638761e-001

2.82842712474618e+004,-8.18957997537497e+000,-1.07517402623760e-001

2.86791049603164e+004,-8.18958058708084e+000,-1.09018122773984e-001

2.90794503464061e+004,-8.18958121593204e+000,-1.10539785123171e-001

2.94853843458219e+004,-8.18958186240766e+000,-1.12082681714085e-001

2.98969849726987e+004,-8.18958252699993e+000,-1.13647108654385e-001

3.03143313302078e+004,-8.18958321021485e+000,-1.15233366171314e-001

3.07375036257601e+004,-8.18958391257256e+000,-1.16841758668589e-001

3.11665831864199e+004,-8.18958463460754e+000,-1.18472594785690e-001

3.16016524745350e+004,-8.18958537686909e+000,-1.20126187455794e-001

3.20427951035848e+004,-8.18958613992162e+000,-1.21802853965166e-001

3.24900958542493e+004,-8.18958692434537e+000,-1.23502916012041e-001

3.29436406907028e+004,-8.18958773073680e+000,-1.25226699767574e-001

3.34035167771346e+004,-8.18958855970815e+000,-1.26974535942725e-001

3.38698124945009e+004,-8.18958941188921e+000,-1.28746759843520e-001

3.43426174575100e+004,-8.18959028792728e+000,-1.30543711435947e-001

3.48220225318448e+004,-8.18959118848718e+000,-1.32365735415237e-001

3.53081198516260e+004,-8.18959211425223e+000,-1.34213181265819e-001

3.58010028371187e+004,-8.18959306592454e+000,-1.36086403330484e-001

3.63007662126863e+004,-8.18959404422589e+000,-1.37985760873767e-001

3.68075060249948e+004,-8.18959504989750e+000,-1.39911618154294e-001

3.73213196614721e+004,-8.18959608370151e+000,-1.41864344488575e-001

3.78423058690237e+004,-8.18959714642044e+000,-1.43844314327182e-001

3.83705647730104e+004,-8.18959823885919e+000,-1.45851907315482e-001

3.89061978964912e+004,-8.18959936184409e+000,-1.47887508375897e-001

3.94493081797342e+004,-8.18960051622453e+000,-1.49951507772900e-001

3.99999999999998e+004,-8.18960170287301e+000,-1.52044301190327e-001

4.05583791916010e+004,-8.18960292268654e+000,-1.54166289800859e-001

4.11245530662425e+004,-8.18960417658588e+000,-1.56317880350536e-001

4.16986304336447e+004,-8.18960546551765e+000,-1.58499485225409e-001

4.22807216224550e+004,-8.18960679045455e+000,-1.60711522531854e-001

4.28709385014515e+004,-8.18960815239545e+000,-1.62954416179361e-001

4.34693945010421e+004,-8.18960955236675e+000,-1.65228595954878e-001

4.40762046350642e+004,-8.18961099142310e+000,-1.67534497604192e-001

4.46914855228886e+004,-8.18961247064769e+000,-1.69872562915912e-001

4.53153554118317e+004,-8.18961399115334e+000,-1.72243239802489e-001

4.59479341998812e+004,-8.18961555408327e+000,-1.74646982382784e-001

4.65893434587380e+004,-8.18961716061210e+000,-1.77084251066983e-001

4.72397064571810e+004,-8.18961881194599e+000,-1.79555512645702e-001

4.78991481847569e+004,-8.18962050932415e+000,-1.82061240373789e-001

4.85677953758016e+004,-8.18962225401959e+000,-1.84601914058003e-001

4.92457765337964e+004,-8.18962404733948e+000,-1.87178020150645e-001

4.99332219560642e+004,-8.18962589062718e+000,-1.89790051832225e-001

5.06302637588109e+004,-8.18962778526147e+000,-1.92438509113676e-001

5.13370359025159e+004,-8.18962973265932e+000,-1.95123898918286e-001

5.20536742176771e+004,-8.18963173427565e+000,-1.97846735182689e-001

5.27803164309155e+004,-8.18963379160455e+000,-2.00607538950784e-001

5.35171021914442e+004,-8.18963590618072e+000,-2.03406838467474e-001

5.42641730979066e+004,-8.18963807958013e+000,-2.06245169279054e-001

5.50216727255895e+004,-8.18964031342082e+000,-2.09123074332614e-001

5.57897466540159e+004,-8.18964260936480e+000,-2.12041104072463e-001

5.65685424949235e+004,-8.18964496911843e+000,-2.14999816545102e-001

5.73582099206328e+004,-8.18964739443400e+000,-2.17999777499975e-001

5.81589006928121e+004,-8.18964988711058e+000,-2.21041560494358e-001

5.89707686916437e+004,-8.18965244899514e+000,-2.24125747000017e-001

5.97939699453972e+004,-8.18965508198430e+000,-2.27252926505704e-001

6.06286626604156e+004,-8.18965778802516e+000,-2.30423696628511e-001

6.14750072515201e+004,-8.18966056911639e+000,-2.33638663223670e-001

6.23331663728396e+004,-8.18966342731003e+000,-2.36898440492183e-001

6.32033049490698e+004,-8.18966636471253e+000,-2.40203651094377e-001

6.40855902071694e+004,-8.18966938348592e+000,-2.43554926264765e-001

6.49801917084985e+004,-8.18967248584941e+000,-2.46952905925624e-001

6.58872813814055e+004,-8.18967567408095e+000,-2.50398238801660e-001

6.68070335542691e+004,-8.18967895051852e+000,-2.53891582539102e-001

6.77396249890018e+004,-8.18968231756117e+000,-2.57433603826663e-001

6.86852349150199e+004,-8.18968577767120e+000,-2.61024978513049e-001

6.96440450636895e+004,-8.18968933337531e+000,-2.64666391729876e-001

7.06162397032520e+004,-8.18969298726601e+000,-2.68358538016659e-001

7.16020056742374e+004,-8.18969674200381e+000,-2.72102121442234e-001

7.26015324253724e+004,-8.18970060031803e+000,-2.75897855735046e-001

7.36150120499896e+004,-8.18970456500868e+000,-2.79746464410924e-001

7.46426393229441e+004,-8.18970863894893e+000,-2.83648680896532e-001

7.56846117380472e+004,-8.18971282508532e+000,-2.87605248670302e-001

7.67411295460207e+004,-8.18971712644083e+000,-2.91616921385890e-001

7.78123957929823e+004,-8.18972154611578e+000,-2.95684463012010e-001

7.88986163594682e+004,-8.18972608729006e+000,-2.99808647965423e-001

7.99999999999995e+004,-8.18973075322479e+000,-3.03990261248402e-001

8.11167583832018e+004,-8.18973554726403e+000,-3.08230098589228e-001

8.22491061324848e+004,-8.18974047283690e+000,-3.12528966580444e-001

8.33972608672892e+004,-8.18974553345921e+000,-3.16887682822395e-001

8.45614432449099e+004,-8.18975073273556e+000,-3.21307076066209e-001

8.57418770029029e+004,-8.18975607436108e+000,-3.25787986359877e-001

8.69387890020841e+004,-8.18976156212383e+000,-3.30331265193056e-001

8.81524092701283e+004,-8.18976719990600e+000,-3.34937775649495e-001

8.93829710457770e+004,-8.18977299168701e+000,-3.39608392551952e-001

9.06307108236633e+004,-8.18977894154413e+000,-3.44344002621261e-001

9.18958683997622e+004,-8.18978505365625e+000,-3.49145504621006e-001

9.31786869174758e+004,-8.18979133230423e+000,-3.54013809521823e-001

9.44794129143618e+004,-8.18979778187429e+000,-3.58949840651500e-001

9.57982963695136e+004,-8.18980440685938e+000,-3.63954533857974e-001

9.71355907516031e+004,-8.18981121186159e+000,-3.69028837667289e-001

9.84915530675926e+004,-8.18981820159420e+000,-3.74173713447317e-001

9.98664439121282e+004,-8.18982538088406e+000,-3.79390135569579e-001

1.01260527517622e+005,-8.18983275467333e+000,-3.84679091577008e-001

1.02674071805032e+005,-8.18984032802179e+000,-3.90041582351296e-001

1.04107348435354e+005,-8.18984810610912e+000,-3.95478622280974e-001

1.05560632861831e+005,-8.18985609423724e+000,-4.00991239430534e-001

1.07034204382888e+005,-8.18986429783175e+000,-4.06580475718947e-001

1.08528346195813e+005,-8.18987272244517e+000,-4.12247387086187e-001

1.10043345451179e+005,-8.18988137375780e+000,-4.17993043677644e-001

1.11579493308032e+005,-8.18989025758106e+000,-4.23818530016076e-001

1.13137084989847e+005,-8.18989937985899e+000,-4.29724945182842e-001

1.14716419841265e+005,-8.18990874667026e+000,-4.35713403002962e-001

1.16317801385624e+005,-8.18991836423059e+000,-4.41785032224161e-001

1.17941537383287e+005,-8.18992823889469e+000,-4.47940976704365e-001

1.19587939890794e+005,-8.18993837715812e+000,-4.54182395599287e-001

1.21257325320831e+005,-8.18994878565942e+000,-4.60510463550791e-001

1.22950014503040e+005,-8.18995947118183e+000,-4.66926370878542e-001

1.24666332745679e+005,-8.18997044065565e+000,-4.73431323770382e-001

1.26406609898139e+005,-8.18998170115958e+000,-4.80026544480176e-001

1.28171180414339e+005,-8.18999325992248e+000,-4.86713271523776e-001

1.29960383416997e+005,-8.19000512432542e+000,-4.93492759875684e-001

1.31774562762811e+005,-8.19001730190294e+000,-5.00366281171317e-001

1.33614067108538e+005,-8.19002980034499e+000,-5.07335123907306e-001

1.35479249978003e+005,-8.19004262749781e+000,-5.14400593648835e-001

1.37370469830040e+005,-8.19005579136545e+000,-5.21564013234699e-001

1.39288090127379e+005,-8.19006930011155e+000,-5.28826722982180e-001

1.41232479406504e+005,-8.19008316205945e+000,-5.36190080903483e-001

1.43204011348474e+005,-8.19009738569388e+000,-5.43655462913306e-001

1.45203064850745e+005,-8.19011197966146e+000,-5.51224263045037e-001

1.47230024099979e+005,-8.19012695277175e+000,-5.58897893665425e-001

1.49285278645888e+005,-8.19014231399696e+000,-5.66677785697209e-001

1.51369223476094e+005,-8.19015807247334e+000,-5.74565388833403e-001

1.53482259092041e+005,-8.19017423750042e+000,-5.82562171765745e-001

1.55624791585964e+005,-8.19019081854123e+000,-5.90669622407645e-001

1.57797232718936e+005,-8.19020782522233e+000,-5.98889248119276e-001

1.59999999999999e+005,-8.19022526733288e+000,-6.07222575939717e-001

1.62233516766403e+005,-8.19024315482410e+000,-6.15671152817460e-001

1.64498212264969e+005,-8.19026149780813e+000,-6.24236545844341e-001

1.66794521734578e+005,-8.19028030655677e+000,-6.32920342492624e-001

1.69122886489819e+005,-8.19029959150008e+000,-6.41724150852231e-001

1.71483754005805e+005,-8.19031936322399e+000,-6.50649599874680e-001

1.73877578004168e+005,-8.19033963246881e+000,-6.59698339612888e-001

1.76304818540256e+005,-8.19036041012582e+000,-6.68872041472722e-001

1.78765942091554e+005,-8.19038170723499e+000,-6.78172398457400e-001

1.81261421647326e+005,-8.19040353498114e+000,-6.87601125423247e-001

1.83791736799524e+005,-8.19042590469070e+000,-6.97159959330830e-001

1.86357373834951e+005,-8.19044882782697e+000,-7.06850659506004e-001

1.88958825828723e+005,-8.19047231598598e+000,-7.16675007898576e-001

1.91596592739027e+005,-8.19049638089098e+000,-7.26634809347204e-001

1.94271181503206e+005,-8.19052103438743e+000,-7.36731891844546e-001

1.96983106135185e+005,-8.19054628843603e+000,-7.46968106811417e-001

1.99732887824256e+005,-8.19057215510680e+000,-7.57345329367130e-001

2.02521055035243e+005,-8.19059864657158e+000,-7.67865458608738e-001

2.05348143610063e+005,-8.19062577509614e+000,-7.78530417892069e-001

2.08214696870707e+005,-8.19065355303181e+000,-7.89342155117318e-001

2.11121265723661e+005,-8.19068199280648e+000,-8.00302643017754e-001

2.14068408765776e+005,-8.19071110691470e+000,-8.11413879453763e-001

2.17056692391625e+005,-8.19074090790718e+000,-8.22677887712113e-001

2.20086690902357e+005,-8.19077140837993e+000,-8.34096716805482e-001

2.23158986616063e+005,-8.19080262096205e+000,-8.45672441783470e-001

2.26274169979693e+005,-8.19083455830306e+000,-8.57407164043549e-001

2.29432839682530e+005,-8.19086723305957e+000,-8.69303011648938e-001

2.32635602771247e+005,-8.19090065788086e+000,-8.81362139652741e-001

2.35883074766574e+005,-8.19093484539362e+000,-8.93586730427572e-001

2.39175879781588e+005,-8.19096980818600e+000,-9.05978994000336e-001

2.42514650641661e+005,-8.19100555879073e+000,-9.18541168394096e-001

2.45900029006080e+005,-8.19104210966688e+000,-9.31275519978287e-001

2.49332665491357e+005,-8.19107947318167e+000,-9.44184343821200e-001

2.52813219796278e+005,-8.19111766158983e+000,-9.57269964056633e-001

2.56342360828676e+005,-8.19115668701339e+000,-9.70534734252439e-001

2.59920766833993e+005,-8.19119656141971e+000,-9.83981037789294e-001

2.63549125525621e+005,-8.19123729659853e+000,-9.97611288249278e-001

2.67228134217075e+005,-8.19127890413797e+000,-1.01142792981095e+000

2.70958499956006e+005,-8.19132139539987e+000,-1.02543343765498e+000

2.74740939660078e+005,-8.19136478149319e+000,-1.03963031838031e+000

2.78576180254757e+005,-8.19140907324728e+000,-1.05402111042854e+000

2.82464958813007e+005,-8.19145428118332e+000,-1.06860838452054e+000

2.86408022696948e+005,-8.19150041548511e+000,-1.08339474410279e+000

2.90406129701488e+005,-8.19154748596834e+000,-1.09838282580737e+000

2.94460048199957e+005,-8.19159550204901e+000,-1.11357529992216e+000

2.98570557291775e+005,-8.19164447271064e+000,-1.12897487087508e+000

3.02738446952187e+005,-8.19169440647025e+000,-1.14458427773079e+000

3.06964518184081e+005,-8.19174531134373e+000,-1.16040629469966e+000

3.11249583171928e+005,-8.19179719480924e+000,-1.17644373166504e+000

3.15594465437872e+005,-8.19185006377021e+000,-1.19269943472255e+000

3.19999999999997e+005,-8.19190392451710e+000,-1.20917628673378e+000

3.24467033532806e+005,-8.19195878268805e+000,-1.22587720789901e+000

3.28996424529938e+005,-8.19201464322860e+000,-1.24280515634472e+000

3.33589043469155e+005,-8.19207151035011e+000,-1.25996312872951e+000

3.38245772979638e+005,-8.19212938748800e+000,-1.27735416086551e+000

3.42967508011610e+005,-8.19218827725800e+000,-1.29498132836211e+000

3.47755156008335e+005,-8.19224818141268e+000,-1.31284774728418e+000

3.52609637080511e+005,-8.19230910079628e+000,-1.33095657483424e+000

3.57531884183106e+005,-8.19237103529926e+000,-1.34931101005182e+000

3.62522843294651e+005,-8.19243398381217e+000,-1.36791429453523e+000

3.67583473599047e+005,-8.19249794417868e+000,-1.38676971318356e+000

3.72714747669902e+005,-8.19256291314830e+000,-1.40588059496189e+000

3.77917651657445e+005,-8.19262888632873e+000,-1.42525031368757e+000

3.83193185478053e+005,-8.19269585813724e+000,-1.44488228884179e+000

3.88542363006410e+005,-8.19276382175278e+000,-1.46477998640112e+000

3.93966212270369e+005,-8.19283276906715e+000,-1.48494691969539e+000

3.99465775648511e+005,-8.19290269063632e+000,-1.50538665029024e+000

4.05042110070485e+005,-8.19297357563186e+000,-1.52610278889327e+000

4.10696287220124e+005,-8.19304541179245e+000,-1.54709899628556e+000

4.16429393741414e+005,-8.19311818537602e+000,-1.56837898427756e+000

4.22242531447321e+005,-8.19319188111151e+000,-1.58994651669412e+000

4.28136817531551e+005,-8.19326648215211e+000,-1.61180541038069e+000

4.34113384783250e+005,-8.19334197002839e+000,-1.63395953623987e+000

4.40173381804713e+005,-8.19341832460274e+000,-1.65641282029108e+000

4.46317973232124e+005,-8.19349552402434e+000,-1.67916924475910e+000

4.52548339959385e+005,-8.19357354468576e+000,-1.70223284918546e+000

4.58865679365059e+005,-8.19365236118003e+000,-1.72560773157042e+000

4.65271205542494e+005,-8.19373194625984e+000,-1.74929804953691e+000

4.71766149533147e+005,-8.19381227079746e+000,-1.77330802152373e+000

4.78351759563174e+005,-8.19389330374707e+000,-1.79764192800149e+000

4.85029301283321e+005,-8.19397501210838e+000,-1.82230411271540e+000

4.91800058012158e+005,-8.19405736089212e+000,-1.84729898395429e+000

4.98665330982714e+005,-8.19414031308797e+000,-1.87263101583974e+000

5.05626439592555e+005,-8.19422382963433e+000,-1.89830474964475e+000

5.12684721657352e+005,-8.19430786939043e+000,-1.92432479513093e+000

5.19841533667984e+005,-8.19439238911109e+000,-1.95069583191059e+000

5.27098251051240e+005,-8.19447734342354e+000,-1.97742261083090e+000

5.34456268434150e+005,-8.19456268480771e+000,-2.00450995537661e+000

5.41916999912011e+005,-8.19464836357797e+000,-2.03196276309715e+000

