Freq.,VOut,OutRef

1.00000000000000e+004,-1.46887485040253e+001,-1.06943278641678e-001

1.01395947979003e+004,-1.46887489356591e+001,-1.08436117502591e-001

1.02811382665607e+004,-1.46887493794239e+001,-1.09949794188336e-001

1.04246576084112e+004,-1.46887498356609e+001,-1.11484599521762e-001

1.05701804056138e+004,-1.46887503047203e+001,-1.13040828385553e-001

1.07177346253629e+004,-1.46887507869622e+001,-1.14618779775950e-001

1.08673486252606e+004,-1.46887512827573e+001,-1.16218756857947e-001

1.10190511587661e+004,-1.46887517924861e+001,-1.17841067027916e-001

1.11728713807222e+004,-1.46887523165402e+001,-1.19486021969417e-001

1.13288388529580e+004,-1.46887528553219e+001,-1.21153937713548e-001

1.14869835499703e+004,-1.46887534092453e+001,-1.22845134698553e-001

1.16473358646846e+004,-1.46887539787352e+001,-1.24559937836821e-001

1.18099266142953e+004,-1.46887545642293e+001,-1.26298676567653e-001

1.19747870461893e+004,-1.46887551661770e+001,-1.28061684928040e-001

1.21419488439505e+004,-1.46887557850407e+001,-1.29849301612689e-001

1.23114441334492e+004,-1.46887564212954e+001,-1.31661870042387e-001

1.24833054890161e+004,-1.46887570754296e+001,-1.33499738424950e-001

1.26575659397028e+004,-1.46887577479453e+001,-1.35363259828361e-001

1.28342589756290e+004,-1.46887584393592e+001,-1.37252792239506e-001

1.30134185544193e+004,-1.46887591502017e+001,-1.39168698642854e-001

1.31950791077289e+004,-1.46887598810187e+001,-1.41111347080592e-001

1.33792755478611e+004,-1.46887606323713e+001,-1.43081110729693e-001

1.35660432744767e+004,-1.46887614048358e+001,-1.45078367972754e-001

1.37554181813974e+004,-1.46887621990056e+001,-1.47103502463954e-001

1.39474366635040e+004,-1.46887630154899e+001,-1.49156903211239e-001

1.41421356237309e+004,-1.46887638549154e+001,-1.51238964646281e-001

1.43395524801583e+004,-1.46887647179264e+001,-1.53350086697530e-001

1.45397251732031e+004,-1.46887656051851e+001,-1.55490674873545e-001

1.47426921729110e+004,-1.46887665173724e+001,-1.57661140333104e-001

1.49484924863494e+004,-1.46887674551881e+001,-1.59861899970181e-001

1.51571656651040e+004,-1.46887684193520e+001,-1.62093376487676e-001

1.53687518128801e+004,-1.46887694106037e+001,-1.64355998484148e-001

1.55832915932100e+004,-1.46887704297036e+001,-1.66650200532181e-001

1.58008262372675e+004,-1.46887714774338e+001,-1.68976423259958e-001

1.60213975517924e+004,-1.46887725545978e+001,-1.71335113441307e-001

1.62450479271247e+004,-1.46887736620219e+001,-1.73726724074569e-001

1.64718203453514e+004,-1.46887748005556e+001,-1.76151714473748e-001

1.67017583885674e+004,-1.46887759710720e+001,-1.78610550352753e-001

1.69349062472505e+004,-1.46887771744688e+001,-1.81103703917786e-001

1.71713087287550e+004,-1.46887784116688e+001,-1.83631653955749e-001

1.74110112659224e+004,-1.46887796836210e+001,-1.86194885923072e-001

1.76540599258131e+004,-1.46887809913003e+001,-1.88793892044772e-001

1.79005014185594e+004,-1.46887823357093e+001,-1.91429171402540e-001

1.81503831063432e+004,-1.46887837178789e+001,-1.94101230030925e-001

1.84037530124975e+004,-1.46887851388687e+001,-1.96810581016125e-001

1.86606598307361e+004,-1.46887865997676e+001,-1.99557744594035e-001

1.89211529345119e+004,-1.46887881016956e+001,-2.02343248245713e-001

1.91852823865052e+004,-1.46887896458035e+001,-2.05167626801191e-001

1.94530989482457e+004,-1.46887912332749e+001,-2.08031422540795e-001

1.97246540898671e+004,-1.46887928653259e+001,-2.10935185297297e-001

1.99999999999999e+004,-1.46887945432070e+001,-2.13879472562703e-001

2.02791895958005e+004,-1.46887962682039e+001,-2.16864849591080e-001

2.05622765331213e+004,-1.46887980416379e+001,-2.19891889510129e-001

2.08493152168224e+004,-1.46887998648671e+001,-2.22961173428820e-001

2.11403608112276e+004,-1.46888017392881e+001,-2.26073290546321e-001

2.14354692507258e+004,-1.46888036663365e+001,-2.29228838264610e-001

2.17346972505211e+004,-1.46888056474876e+001,-2.32428422304568e-001

2.20381023175322e+004,-1.46888076842583e+001,-2.35672656819496e-001

2.23457427614443e+004,-1.46888097782078e+001,-2.38962164510755e-001

2.26576777059159e+004,-1.46888119309390e+001,-2.42297576746071e-001

2.29739670999406e+004,-1.46888141440993e+001,-2.45679533683710e-001

2.32946717293690e+004,-1.46888164193826e+001,-2.49108684386914e-001

2.36198532285905e+004,-1.46888187585299e+001,-2.52585686952632e-001

2.39495740923785e+004,-1.46888211633305e+001,-2.56111208637356e-001

2.42838976879009e+004,-1.46888236356242e+001,-2.59685925975883e-001

2.46228882668982e+004,-1.46888261773018e+001,-2.63310524919362e-001

2.49666109780322e+004,-1.46888287903071e+001,-2.66985700958141e-001

2.53151318794055e+004,-1.46888314766381e+001,-2.70712159256554e-001

2.56685179512580e+004,-1.46888342383484e+001,-2.74490614787658e-001

2.60268371088386e+004,-1.46888370775490e+001,-2.78321792464687e-001

2.63901582154578e+004,-1.46888399964100e+001,-2.82206427282369e-001

2.67585510957221e+004,-1.46888429971618e+001,-2.86145264452283e-001

2.71320865489533e+004,-1.46888460820968e+001,-2.90139059547766e-001

2.75108363627948e+004,-1.46888492535717e+001,-2.94188578642653e-001

2.78948733270080e+004,-1.46888525140085e+001,-2.98294598459887e-001

2.82842712474618e+004,-1.46888558658971e+001,-3.02457906513431e-001

2.86791049603164e+004,-1.46888593117964e+001,-3.06679301262143e-001

2.90794503464061e+004,-1.46888628543367e+001,-3.10959592256259e-001

2.94853843458219e+004,-1.46888664962212e+001,-3.15299600293545e-001

2.98969849726987e+004,-1.46888702402292e+001,-3.19700157568334e-001

3.03143313302078e+004,-1.46888740892163e+001,-3.24162107836525e-001

3.07375036257601e+004,-1.46888780461181e+001,-3.28686306565997e-001

3.11665831864199e+004,-1.46888821139518e+001,-3.33273621103218e-001

3.16016524745350e+004,-1.46888862958183e+001,-3.37924930834456e-001

3.20427951035848e+004,-1.46888905949047e+001,-3.42641127350112e-001

3.24900958542493e+004,-1.46888950144868e+001,-3.47423114612378e-001

3.29436406907028e+004,-1.46888995579312e+001,-3.52271809127187e-001

3.34035167771346e+004,-1.46889042286981e+001,-3.57188140112153e-001

3.38698124945009e+004,-1.46889090303436e+001,-3.62173049674466e-001

3.43426174575100e+004,-1.46889139665223e+001,-3.67227492985596e-001

3.48220225318448e+004,-1.46889190409907e+001,-3.72352438457708e-001

3.53081198516260e+004,-1.46889242576088e+001,-3.77548867930303e-001

3.58010028371187e+004,-1.46889296203439e+001,-3.82817776847344e-001

3.63007662126863e+004,-1.46889351332729e+001,-3.88160174448879e-001

3.68075060249948e+004,-1.46889408005861e+001,-3.93577083953966e-001

3.73213196614721e+004,-1.46889466265891e+001,-3.99069542755787e-001

3.78423058690237e+004,-1.46889526157071e+001,-4.04638602611494e-001

3.83705647730104e+004,-1.46889587724875e+001,-4.10285329840426e-001

3.89061978964912e+004,-1.46889651016031e+001,-4.16010805521074e-001

3.94493081797342e+004,-1.46889716078562e+001,-4.21816125691267e-001

3.99999999999998e+004,-1.46889782961813e+001,-4.27702401553121e-001

4.05583791916010e+004,-1.46889851716494e+001,-4.33670759677300e-001

4.11245530662425e+004,-1.46889922394712e+001,-4.39722342213056e-001

4.16986304336447e+004,-1.46889995050007e+001,-4.45858307098497e-001

4.22807216224550e+004,-1.46890069737401e+001,-4.52079828274544e-001

4.28709385014515e+004,-1.46890146513424e+001,-4.58388095902985e-001

4.34693945010421e+004,-1.46890225436164e+001,-4.64784316584124e-001

4.40762046350642e+004,-1.46890306565308e+001,-4.71269713579997e-001

4.46914855228886e+004,-1.46890389962180e+001,-4.77845527038582e-001

4.53153554118317e+004,-1.46890475689793e+001,-4.84513014222220e-001

4.59479341998812e+004,-1.46890563812883e+001,-4.91273449739574e-001

4.65893434587380e+004,-1.46890654397967e+001,-4.98128125775637e-001

4.72397064571810e+004,-1.46890747513382e+001,-5.05078352332163e-001

4.78991481847569e+004,-1.46890843229337e+001,-5.12125457464482e-001

4.85677953758016e+004,-1.46890941617963e+001,-5.19270787525278e-001

4.92457765337964e+004,-1.46891042753364e+001,-5.26515707408201e-001

4.99332219560642e+004,-1.46891146711667e+001,-5.33861600798654e-001

5.06302637588109e+004,-1.46891253571077e+001,-5.41309870423875e-001

5.13370359025159e+004,-1.46891363411937e+001,-5.48861938306479e-001

5.20536742176771e+004,-1.46891476316773e+001,-5.56519246024753e-001

5.27803164309155e+004,-1.46891592370365e+001,-5.64283254969711e-001

5.35171021914442e+004,-1.46891711659793e+001,-5.72155446612816e-001

5.42641730979066e+004,-1.46891834274509e+001,-5.80137322769301e-001

5.50216727255895e+004,-1.46891960306391e+001,-5.88230405871682e-001

5.57897466540159e+004,-1.46892089849811e+001,-5.96436239240659e-001

5.65685424949235e+004,-1.46892223001698e+001,-6.04756387362744e-001

5.73582099206328e+004,-1.46892359861604e+001,-6.13192436169972e-001

5.81589006928121e+004,-1.46892500531773e+001,-6.21745993324139e-001

5.89707686916437e+004,-1.46892645117213e+001,-6.30418688501077e-001

5.97939699453972e+004,-1.46892793725762e+001,-6.39212173682925e-001

6.06286626604156e+004,-1.46892946468167e+001,-6.48128123449044e-001

6.14750072515201e+004,-1.46893103458153e+001,-6.57168235273534e-001

6.23331663728396e+004,-1.46893264812503e+001,-6.66334229826795e-001

6.32033049490698e+004,-1.46893430651137e+001,-6.75627851275044e-001

6.40855902071694e+004,-1.46893601097188e+001,-6.85050867590129e-001

6.49801917084985e+004,-1.46893776277085e+001,-6.94605070859545e-001

6.58872813814055e+004,-1.46893956320639e+001,-7.04292277597887e-001

6.68070335542691e+004,-1.46894141361127e+001,-7.14114329065471e-001

6.77396249890018e+004,-1.46894331535378e+001,-7.24073091589168e-001

6.86852349150199e+004,-1.46894526983861e+001,-7.34170456886124e-001

6.96440450636895e+004,-1.46894727850780e+001,-7.44408342390912e-001

7.06162397032520e+004,-1.46894934284166e+001,-7.54788691585940e-001

7.16020056742374e+004,-1.46895146435966e+001,-7.65313474339116e-001

7.26015324253724e+004,-1.46895364462149e+001,-7.75984687237678e-001

7.36150120499896e+004,-1.46895588522798e+001,-7.86804353933871e-001

7.46426393229441e+004,-1.46895818782214e+001,-7.97774525487099e-001

7.56846117380472e+004,-1.46896055409017e+001,-8.08897280715615e-001

7.67411295460207e+004,-1.46896298576254e+001,-8.20174726545385e-001

7.78123957929823e+004,-1.46896548461501e+001,-8.31608998370081e-001

7.88986163594682e+004,-1.46896805246978e+001,-8.43202260407811e-001

7.99999999999995e+004,-1.46897069119655e+001,-8.54956706065340e-001

8.11167583832018e+004,-1.46897340271367e+001,-8.66874558304029e-001

8.22491061324848e+004,-1.46897618898931e+001,-8.78958070010985e-001

8.33972608672892e+004,-1.46897905204261e+001,-8.91209524372299e-001

8.45614432449099e+004,-1.46898199394487e+001,-9.03631235251491e-001

8.57418770029029e+004,-1.46898501682080e+001,-9.16225547568579e-001

8.69387890020841e+004,-1.46898812284971e+001,-9.28994837686761e-001

8.81524092701283e+004,-1.46899131426680e+001,-9.41941513798229e-001

8.93829710457770e+004,-1.46899459336440e+001,-9.55068016318488e-001

9.06307108236633e+004,-1.46899796249333e+001,-9.68376818278233e-001

9.18958683997622e+004,-1.46900142406414e+001,-9.81870425725706e-001

9.31786869174758e+004,-1.46900498054851e+001,-9.95551378125039e-001

9.44794129143618e+004,-1.46900863448052e+001,-1.00942224876530e+000

9.57982963695136e+004,-1.46901238845816e+001,-1.02348564516658e+000

9.71355907516031e+004,-1.46901624514457e+001,-1.03774420949501e+000

9.84915530675926e+004,-1.46902020726957e+001,-1.05220061897652e+000

9.98664439121282e+004,-1.46902427763101e+001,-1.06685758631820e+000

1.01260527517622e+005,-1.46902845909625e+001,-1.08171786012942e+000

1.02674071805032e+005,-1.46903275460362e+001,-1.09678422534891e+000

1.04107348435354e+005,-1.46903716716388e+001,-1.11205950367331e+000

1.05560632861831e+005,-1.46904169986173e+001,-1.12754655399031e+000

1.07034204382888e+005,-1.46904635585728e+001,-1.14324827281440e+000

1.08528346195813e+005,-1.46905113838760e+001,-1.15916759472679e+000

1.10043345451179e+005,-1.46905605076825e+001,-1.17530749281586e+000

1.11579493308032e+005,-1.46906109639475e+001,-1.19167097912560e+000

1.13137084989847e+005,-1.46906627874424e+001,-1.20826110510127e+000

1.14716419841265e+005,-1.46907160137691e+001,-1.22508096204327e+000

1.16317801385624e+005,-1.46907706793767e+001,-1.24213368156096e+000

1.17941537383287e+005,-1.46908268215761e+001,-1.25942243603128e+000

1.19587939890794e+005,-1.46908844785566e+001,-1.27695043905867e+000

1.21257325320831e+005,-1.46909436894009e+001,-1.29472094594067e+000

1.22950014503040e+005,-1.46910044941011e+001,-1.31273725413204e+000

1.24666332745679e+005,-1.46910669335740e+001,-1.33100270371769e+000

1.26406609898139e+005,-1.46911310496772e+001,-1.34952067788214e+000

1.28171180414339e+005,-1.46911968852238e+001,-1.36829460338797e+000

1.29960383416997e+005,-1.46912644839986e+001,-1.38732795105169e+000

1.31774562762811e+005,-1.46913338907726e+001,-1.40662423622570e+000

1.33614067108538e+005,-1.46914051513186e+001,-1.42618701928299e+000

1.35479249978003e+005,-1.46914783124256e+001,-1.44601990610220e+000

1.37370469830040e+005,-1.46915534219140e+001,-1.46612654855785e+000

1.39288090127379e+005,-1.46916305286494e+001,-1.48651064501238e+000

1.41232479406504e+005,-1.46917096825571e+001,-1.50717594081061e+000

1.43204011348474e+005,-1.46917909346353e+001,-1.52812622877795e+000

1.45203064850745e+005,-1.46918743369694e+001,-1.54936534971917e+000

1.47230024099979e+005,-1.46919599427437e+001,-1.57089719292308e+000

1.49285278645888e+005,-1.46920478062552e+001,-1.59272569666662e+000

1.51369223476094e+005,-1.46921379829241e+001,-1.61485484872493e+000

1.53482259092041e+005,-1.46922305293065e+001,-1.63728868688154e+000

1.55624791585964e+005,-1.46923255031045e+001,-1.66003129944228e+000

1.57797232718936e+005,-1.46924229631762e+001,-1.68308682575387e+000

1.59999999999999e+005,-1.46925229695456e+001,-1.70645945672152e+000

1.62233516766403e+005,-1.46926255834106e+001,-1.73015343533503e+000

1.64498212264969e+005,-1.46927308671511e+001,-1.75417305719233e+000

1.66794521734578e+005,-1.46928388843360e+001,-1.77852267103065e+000

1.69122886489819e+005,-1.46929496997286e+001,-1.80320667925894e+000

1.71483754005805e+005,-1.46930633792917e+001,-1.82822953849392e+000

1.73877578004168e+005,-1.46931799901912e+001,-1.85359576010161e+000

1.76304818540256e+005,-1.46932996007989e+001,-1.87930991073934e+000

1.78765942091554e+005,-1.46934222806933e+001,-1.90537661290609e+000

1.81261421647326e+005,-1.46935481006599e+001,-1.93180054549333e+000

1.83791736799524e+005,-1.46936771326893e+001,-1.95858644434265e+000

1.86357373834951e+005,-1.46938094499744e+001,-1.98573910280878e+000

1.88958825828723e+005,-1.46939451269061e+001,-2.01326337232466e+000

1.91596592739027e+005,-1.46940842390661e+001,-2.04116416297585e+000

1.94271181503206e+005,-1.46942268632198e+001,-2.06944644407831e+000

1.96983106135185e+005,-1.46943730773057e+001,-2.09811524476337e+000

1.99732887824256e+005,-1.46945229604237e+001,-2.12717565456971e+000

2.02521055035243e+005,-1.46946765928212e+001,-2.15663282404154e+000

2.05348143610063e+005,-1.46948340558770e+001,-2.18649196533585e+000

2.08214696870707e+005,-1.46949954320827e+001,-2.21675835283738e+000

2.11121265723661e+005,-1.46951608050220e+001,-2.24743732378186e+000

2.14068408765776e+005,-1.46953302593481e+001,-2.27853427888975e+000

2.17056692391625e+005,-1.46955038807569e+001,-2.31005468301073e+000

2.20086690902357e+005,-1.46956817559598e+001,-2.34200406577747e+000

2.23158986616063e+005,-1.46958639726517e+001,-2.37438802227269e+000

2.26274169979693e+005,-1.46960506194771e+001,-2.40721221370864e+000

2.29432839682530e+005,-1.46962417859937e+001,-2.44048236812008e+000

2.32635602771247e+005,-1.46964375626315e+001,-2.47420428107178e+000

2.35883074766574e+005,-1.46966380406504e+001,-2.50838381638158e+000

2.39175879781588e+005,-1.46968433120933e+001,-2.54302690686062e+000

2.42514650641661e+005,-1.46970534697366e+001,-2.57813955507102e+000

2.45900029006080e+005,-1.46972686070366e+001,-2.61372783410339e+000

2.49332665491357e+005,-1.46974888180730e+001,-2.64979788837328e+000

2.52813219796278e+005,-1.46977141974886e+001,-2.68635593444058e+000

2.56342360828676e+005,-1.46979448404253e+001,-2.72340826185276e+000

2.59920766833993e+005,-1.46981808424560e+001,-2.76096123401036e+000

2.63549125525621e+005,-1.46984222995133e+001,-2.79902128906175e+000

2.67228134217075e+005,-1.46986693078140e+001,-2.83759494082313e+000

2.70958499956006e+005,-1.46989219637796e+001,-2.87668877973002e+000

2.74740939660078e+005,-1.46991803639534e+001,-2.91630947381835e+000

2.78576180254757e+005,-1.46994446049123e+001,-2.95646376974105e+000

2.82464958813007e+005,-1.46997147831765e+001,-2.99715849381784e+000

2.86408022696948e+005,-1.46999909951135e+001,-3.03840055312233e+000

2.90406129701488e+005,-1.47002733368391e+001,-3.08019693660923e+000

2.94460048199957e+005,-1.47005619041140e+001,-3.12255471628145e+000

2.98570557291775e+005,-1.47008567922366e+001,-3.16548104840225e+000

3.02738446952187e+005,-1.47011580959316e+001,-3.20898317475160e+000

3.06964518184081e+005,-1.47014659092357e+001,-3.25306842393014e+000

3.11249583171928e+005,-1.47017803253783e+001,-3.29774421271516e+000

3.15594465437872e+005,-1.47021014366592e+001,-3.34301804746789e+000

3.19999999999997e+005,-1.47024293343235e+001,-3.38889752559388e+000

3.24467033532806e+005,-1.47027641084313e+001,-3.43539033706553e+000

3.28996424529938e+005,-1.47031058477262e+001,-3.48250426599842e+000

3.33589043469155e+005,-1.47034546394996e+001,-3.53024719229523e+000

3.38245772979638e+005,-1.47038105694526e+001,-3.57862709335046e+000

3.42967508011610e+005,-1.47041737215550e+001,-3.62765204582394e+000

3.47755156008335e+005,-1.47045441779029e+001,-3.67733022748363e+000

3.52609637080511e+005,-1.47049220185728e+001,-3.72766991912079e+000

3.57531884183106e+005,-1.47053073214758e+001,-3.77867950653803e+000

3.62522843294651e+005,-1.47057001622088e+001,-3.83036748261596e+000

3.67583473599047e+005,-1.47061006139062e+001,-3.88274244945620e+000

3.72714747669902e+005,-1.47065087470896e+001,-3.93581312060849e+000

3.77917651657445e+005,-1.47069246295182e+001,-3.98958832337851e+000

3.83193185478053e+005,-1.47073483260396e+001,-4.04407700122171e+000

3.88542363006410e+005,-1.47077798984407e+001,-4.09928821622372e+000

3.93966212270369e+005,-1.47082194053005e+001,-4.15523115167074e+000

3.99465775648511e+005,-1.47086669018441e+001,-4.21191511470894e+000

4.05042110070485e+005,-1.47091224397995e+001,-4.26934953909612e+000

4.10696287220124e+005,-1.47095860672574e+001,-4.32754398804596e+000

4.16429393741414e+005,-1.47100578285337e+001,-4.38650815716735e+000

4.22242531447321e+005,-1.47105377640370e+001,-4.44625187749777e+000

4.28136817531551e+005,-1.47110259101410e+001,-4.50678511863213e+000

4.34113384783250e+005,-1.47115222990610e+001,-4.56811799194830e+000

4.40173381804713e+005,-1.47120269587383e+001,-4.63026075392729e+000

4.46317973232124e+005,-1.47125399127296e+001,-4.69322380957174e+000

4.52548339959385e+005,-1.47130611801057e+001,-4.75701771591621e+000

4.58865679365059e+005,-1.47135907753567e+001,-4.82165318563634e+000

4.65271205542494e+005,-1.47141287083073e+001,-4.88714109074837e+000

4.71766149533147e+005,-1.47146749840410e+001,-4.95349246640292e+000

4.78351759563174e+005,-1.47152296028349e+001,-5.02071851476904e+000

4.85029301283321e+005,-1.47157925601058e+001,-5.08883060900706e+000

4.91800058012158e+005,-1.47163638463672e+001,-5.15784029732700e+000

4.98665330982714e+005,-1.47169434471995e+001,-5.22775930713292e+000

5.05626439592555e+005,-1.47175313432331e+001,-5.29859954924610e+000

5.12684721657352e+005,-1.47181275101446e+001,-5.37037312220658e+000

5.19841533667984e+005,-1.47187319186683e+001,-5.44309231664871e+000

5.27098251051240e+005,-1.47193445346216e+001,-5.51676961974659e+000

5.34456268434150e+005,-1.47199653189469e+001,-5.59141771972489e+000

5.41916999912011e+005,-1.47205942277685e+001,-5.66704951043163e+000

