Freq.,VOut,OutRef

1.00000000000000e+004,-1.96217606043711e+001,-2.28685757733489e-001

1.01395947979003e+004,-1.96217614280804e+001,-2.31878060113867e-001

1.02811382665607e+004,-1.96217622749443e+001,-2.35114924022893e-001

1.04246576084112e+004,-1.96217631456134e+001,-2.38396971459679e-001

1.05701804056138e+004,-1.96217640407571e+001,-2.41724833102346e-001

1.07177346253629e+004,-1.96217649610630e+001,-2.45099148431817e-001

1.08673486252606e+004,-1.96217659072385e+001,-2.48520565850740e-001

1.10190511587661e+004,-1.96217668800104e+001,-2.51989742814810e-001

1.11728713807222e+004,-1.96217678801265e+001,-2.55507345948686e-001

1.13288388529580e+004,-1.96217689083552e+001,-2.59074051185125e-001

1.14869835499703e+004,-1.96217699654866e+001,-2.62690543885609e-001

1.16473358646846e+004,-1.96217710523329e+001,-2.66357518978184e-001

1.18099266142953e+004,-1.96217721697293e+001,-2.70075681087559e-001

1.19747870461893e+004,-1.96217733185343e+001,-2.73845744670562e-001

1.21419488439505e+004,-1.96217744996307e+001,-2.77668434154315e-001

1.23114441334492e+004,-1.96217757139260e+001,-2.81544484073460e-001

1.24833054890161e+004,-1.96217769623531e+001,-2.85474639215009e-001

1.26575659397028e+004,-1.96217782458713e+001,-2.89459654756089e-001

1.28342589756290e+004,-1.96217795654666e+001,-2.93500296412801e-001

1.30134185544193e+004,-1.96217809221529e+001,-2.97597340584859e-001

1.31950791077289e+004,-1.96217823169727e+001,-3.01751574505480e-001

1.33792755478611e+004,-1.96217837509973e+001,-3.05963796393356e-001

1.35660432744767e+004,-1.96217852253286e+001,-3.10234815603734e-001

1.37554181813974e+004,-1.96217867410993e+001,-3.14565452783899e-001

1.39474366635040e+004,-1.96217882994736e+001,-3.18956540033984e-001

1.41421356237309e+004,-1.96217899016489e+001,-3.23408921061185e-001

1.43395524801583e+004,-1.96217915488560e+001,-3.27923451345735e-001

1.45397251732031e+004,-1.96217932423600e+001,-3.32500998304384e-001

1.47426921729110e+004,-1.96217949834620e+001,-3.37142441453273e-001

1.49484924863494e+004,-1.96217967734994e+001,-3.41848672582374e-001

1.51571656651040e+004,-1.96217986138471e+001,-3.46620595921222e-001

1.53687518128801e+004,-1.96218005059188e+001,-3.51459128315456e-001

1.55832915932100e+004,-1.96218024511678e+001,-3.56365199401124e-001

1.58008262372675e+004,-1.96218044510881e+001,-3.61339751783800e-001

1.60213975517924e+004,-1.96218065072157e+001,-3.66383741219008e-001

1.62450479271247e+004,-1.96218086211301e+001,-3.71498136794091e-001

1.64718203453514e+004,-1.96218107944544e+001,-3.76683921117003e-001

1.67017583885674e+004,-1.96218130288579e+001,-3.81942090501856e-001

1.69349062472505e+004,-1.96218153260566e+001,-3.87273655159910e-001

1.71713087287550e+004,-1.96218176878145e+001,-3.92679639395785e-001

1.74110112659224e+004,-1.96218201159453e+001,-3.98161081800991e-001

1.76540599258131e+004,-1.96218226123136e+001,-4.03719035453769e-001

1.79005014185594e+004,-1.96218251788364e+001,-4.09354568121030e-001

1.81503831063432e+004,-1.96218278174841e+001,-4.15068762464051e-001

1.84037530124975e+004,-1.96218305302831e+001,-4.20862716242855e-001

1.86606598307361e+004,-1.96218333193160e+001,-4.26737542529433e-001

1.89211529345119e+004,-1.96218361867243e+001,-4.32694369919753e-001

1.91852823865052e+004,-1.96218391347093e+001,-4.38734342748979e-001

1.94530989482457e+004,-1.96218421655343e+001,-4.44858621312660e-001

1.97246540898671e+004,-1.96218452815261e+001,-4.51068382086407e-001

1.99999999999999e+004,-1.96218484850765e+001,-4.57364817954259e-001

2.02791895958005e+004,-1.96218517786449e+001,-4.63749138432517e-001

2.05622765331213e+004,-1.96218551647591e+001,-4.70222569906840e-001

2.08493152168224e+004,-1.96218586460183e+001,-4.76786355861073e-001

2.11403608112276e+004,-1.96218622250944e+001,-4.83441757120273e-001

2.14354692507258e+004,-1.96218659047344e+001,-4.90190052088676e-001

2.17346972505211e+004,-1.96218696877621e+001,-4.97032536995432e-001

2.20381023175322e+004,-1.96218735770808e+001,-5.03970526142264e-001

2.23457427614443e+004,-1.96218775756749e+001,-5.11005352155667e-001

2.26576777059159e+004,-1.96218816866128e+001,-5.18138366240100e-001

2.29739670999406e+004,-1.96218859130489e+001,-5.25370938437627e-001

2.32946717293690e+004,-1.96218902582257e+001,-5.32704457890285e-001

2.36198532285905e+004,-1.96218947254772e+001,-5.40140333102566e-001

2.39495740923785e+004,-1.96218993182302e+001,-5.47679992215752e-001

2.42838976879009e+004,-1.96219040400081e+001,-5.55324883275761e-001

2.46228882668982e+004,-1.96219088944329e+001,-5.63076474512173e-001

2.49666109780322e+004,-1.96219138852280e+001,-5.70936254618406e-001

2.53151318794055e+004,-1.96219190162213e+001,-5.78905733037824e-001

2.56685179512580e+004,-1.96219242913480e+001,-5.86986440246847e-001

2.60268371088386e+004,-1.96219297146533e+001,-5.95179928053457e-001

2.63901582154578e+004,-1.96219352902961e+001,-6.03487769888958e-001

2.67585510957221e+004,-1.96219410225516e+001,-6.11911561109433e-001

2.71320865489533e+004,-1.96219469158148e+001,-6.20452919301767e-001

2.75108363627948e+004,-1.96219529746039e+001,-6.29113484589461e-001

2.78948733270080e+004,-1.96219592035634e+001,-6.37894919948138e-001

2.82842712474618e+004,-1.96219656074683e+001,-6.46798911520171e-001

2.86791049603164e+004,-1.96219721912268e+001,-6.55827168938423e-001

2.90794503464061e+004,-1.96219789598849e+001,-6.64981425650884e-001

2.94853843458219e+004,-1.96219859186296e+001,-6.74263439250743e-001

2.98969849726987e+004,-1.96219930727934e+001,-6.83674991811809e-001

3.03143313302078e+004,-1.96220004278578e+001,-6.93217890227948e-001

3.07375036257601e+004,-1.96220079894578e+001,-7.02893966556941e-001

3.11665831864199e+004,-1.96220157633859e+001,-7.12705078369966e-001

3.16016524745350e+004,-1.96220237555971e+001,-7.22653109103544e-001

3.20427951035848e+004,-1.96220319722125e+001,-7.32739968419523e-001

3.24900958542493e+004,-1.96220404195247e+001,-7.42967592567081e-001

3.29436406907028e+004,-1.96220491040022e+001,-7.53337944752619e-001

3.34035167771346e+004,-1.96220580322944e+001,-7.63853015510702e-001

3.38698124945009e+004,-1.96220672112364e+001,-7.74514823085019e-001

3.43426174575100e+004,-1.96220766478547e+001,-7.85325413808603e-001

3.48220225318448e+004,-1.96220863493720e+001,-7.96286862496141e-001

3.53081198516260e+004,-1.96220963232128e+001,-8.07401272834866e-001

3.58010028371187e+004,-1.96221065770091e+001,-8.18670777785467e-001

3.63007662126863e+004,-1.96221171186062e+001,-8.30097539986027e-001

3.68075060249948e+004,-1.96221279560682e+001,-8.41683752163873e-001

3.73213196614721e+004,-1.96221390976848e+001,-8.53431637548625e-001

3.78423058690237e+004,-1.96221505519769e+001,-8.65343450295681e-001

3.83705647730104e+004,-1.96221623277033e+001,-8.77421475912616e-001

3.89061978964912e+004,-1.96221744338671e+001,-8.89668031692300e-001

3.94493081797342e+004,-1.96221868797229e+001,-9.02085467150674e-001

3.99999999999998e+004,-1.96221996747833e+001,-9.14676164472951e-001

4.05583791916010e+004,-1.96222128288263e+001,-9.27442538962291e-001

4.11245530662425e+004,-1.96222263519023e+001,-9.40387039498772e-001

4.16986304336447e+004,-1.96222402543422e+001,-9.53512148999658e-001

4.22807216224550e+004,-1.96222545467648e+001,-9.66820384890544e-001

4.28709385014515e+004,-1.96222692400846e+001,-9.80314299579169e-001

4.34693945010421e+004,-1.96222843455203e+001,-9.93996480937805e-001

4.40762046350642e+004,-1.96222998746031e+001,-1.00786955279200e+000

4.46914855228886e+004,-1.96223158391850e+001,-1.02193617541403e+000

4.53153554118317e+004,-1.96223322514482e+001,-1.03619904602458e+000

4.59479341998812e+004,-1.96223491239140e+001,-1.05066089930067e+000

4.65893434587380e+004,-1.96223664694515e+001,-1.06532450789130e+000

4.72397064571810e+004,-1.96223843012883e+001,-1.08019268293753e+000

4.78991481847569e+004,-1.96224026330196e+001,-1.09526827460146e+000

4.85677953758016e+004,-1.96224214786183e+001,-1.11055417260284e+000

4.92457765337964e+004,-1.96224408524458e+001,-1.12605330675999e+000

4.99332219560642e+004,-1.96224607692622e+001,-1.14176864754126e+000

5.06302637588109e+004,-1.96224812442377e+001,-1.15770320662015e+000

5.13370359025159e+004,-1.96225022929633e+001,-1.17386003744178e+000

5.20536742176771e+004,-1.96225239314630e+001,-1.19024223579294e+000

5.27803164309155e+004,-1.96225461762049e+001,-1.20685294038349e+000

5.35171021914442e+004,-1.96225690441140e+001,-1.22369533343066e+000

5.42641730979066e+004,-1.96225925525843e+001,-1.24077264125655e+000

5.50216727255895e+004,-1.96226167194918e+001,-1.25808813488774e+000

5.57897466540159e+004,-1.96226415632074e+001,-1.27564513066914e+000

5.65685424949235e+004,-1.96226671026108e+001,-1.29344699087828e+000

5.73582099206328e+004,-1.96226933571039e+001,-1.31149712435470e+000

5.81589006928121e+004,-1.96227203466255e+001,-1.32979898713342e+000

5.89707686916437e+004,-1.96227480916656e+001,-1.34835608308696e+000

5.97939699453972e+004,-1.96227766132800e+001,-1.36717196457797e+000

6.06286626604156e+004,-1.96228059331067e+001,-1.38625023311680e+000

6.14750072515201e+004,-1.96228360733808e+001,-1.40559454003042e+000

6.23331663728396e+004,-1.96228670569506e+001,-1.42520858713974e+000

6.32033049490698e+004,-1.96228989072952e+001,-1.44509612744347e+000

6.40855902071694e+004,-1.96229316485403e+001,-1.46526096581250e+000

6.49801917084985e+004,-1.96229653054766e+001,-1.48570695969314e+000

6.58872813814055e+004,-1.96229999035771e+001,-1.50643801981862e+000

6.68070335542691e+004,-1.96230354690160e+001,-1.52745811093024e+000

6.77396249890018e+004,-1.96230720286872e+001,-1.54877125250693e+000

6.86852349150199e+004,-1.96231096102238e+001,-1.57038151950530e+000

6.96440450636895e+004,-1.96231482420178e+001,-1.59229304310757e+000

7.06162397032520e+004,-1.96231879532408e+001,-1.61451001147951e+000

7.16020056742374e+004,-1.96232287738643e+001,-1.63703667053900e+000

7.26015324253724e+004,-1.96232707346816e+001,-1.65987732473181e+000

7.36150120499896e+004,-1.96233138673295e+001,-1.68303633781939e+000

7.46426393229441e+004,-1.96233582043108e+001,-1.70651813367536e+000

7.56846117380472e+004,-1.96234037790173e+001,-1.73032719709196e+000

7.67411295460207e+004,-1.96234506257537e+001,-1.75446807459669e+000

7.78123957929823e+004,-1.96234987797615e+001,-1.77894537527847e+000

7.88986163594682e+004,-1.96235482772439e+001,-1.80376377162544e+000

7.99999999999995e+004,-1.96235991553913e+001,-1.82892800037082e+000

8.11167583832018e+004,-1.96236514524073e+001,-1.85444286335158e+000

8.22491061324848e+004,-1.96237052075357e+001,-1.88031322837464e+000

8.33972608672892e+004,-1.96237604610871e+001,-1.90654403009686e+000

8.45614432449099e+004,-1.96238172544680e+001,-1.93314027091297e+000

8.57418770029029e+004,-1.96238756302085e+001,-1.96010702185640e+000

8.69387890020841e+004,-1.96239356319923e+001,-1.98744942350838e+000

8.81524092701283e+004,-1.96239973046868e+001,-2.01517268692052e+000

8.93829710457770e+004,-1.96240606943736e+001,-2.04328209454666e+000

9.06307108236633e+004,-1.96241258483803e+001,-2.07178300118645e+000

9.18958683997622e+004,-1.96241928153128e+001,-2.10068083494046e+000

9.31786869174758e+004,-1.96242616450883e+001,-2.12998109817553e+000

9.44794129143618e+004,-1.96243323889695e+001,-2.15968936850240e+000

9.57982963695136e+004,-1.96244050995987e+001,-2.18981129976358e+000

9.71355907516031e+004,-1.96244798310336e+001,-2.22035262303538e+000

9.84915530675926e+004,-1.96245566387836e+001,-2.25131914763736e+000

9.98664439121282e+004,-1.96246355798469e+001,-2.28271676215798e+000

1.01260527517622e+005,-1.96247167127484e+001,-2.31455143548821e+000

1.02674071805032e+005,-1.96248000975785e+001,-2.34682921786934e+000

1.04107348435354e+005,-1.96248857960329e+001,-2.37955624195239e+000

1.05560632861831e+005,-1.96249738714533e+001,-2.41273872386821e+000

1.07034204382888e+005,-1.96250643888684e+001,-2.44638296431164e+000

1.08528346195813e+005,-1.96251574150372e+001,-2.48049534963622e+000

1.10043345451179e+005,-1.96252530184915e+001,-2.51508235296204e+000

1.11579493308032e+005,-1.96253512695808e+001,-2.55015053529563e+000

1.13137084989847e+005,-1.96254522405171e+001,-2.58570654666216e+000

1.14716419841265e+005,-1.96255560054216e+001,-2.62175712725133e+000

1.16317801385624e+005,-1.96256626403714e+001,-2.65830910857343e+000

1.17941537383287e+005,-1.96257722234484e+001,-2.69536941463053e+000

1.19587939890794e+005,-1.96258848347879e+001,-2.73294506309858e+000

1.21257325320831e+005,-1.96260005566290e+001,-2.77104316652471e+000

1.22950014503040e+005,-1.96261194733664e+001,-2.80967093353386e+000

1.24666332745679e+005,-1.96262416716019e+001,-2.84883567005185e+000

1.26406609898139e+005,-1.96263672401983e+001,-2.88854478054026e+000

1.28171180414339e+005,-1.96264962703341e+001,-2.92880576924319e+000

1.29960383416997e+005,-1.96266288555584e+001,-2.96962624144973e+000

1.31774562762811e+005,-1.96267650918480e+001,-3.01101390476770e+000

1.33614067108538e+005,-1.96269050776648e+001,-3.05297657041187e+000

1.35479249978003e+005,-1.96270489140151e+001,-3.09552215450538e+000

1.37370469830040e+005,-1.96271967045090e+001,-3.13865867939507e+000

1.39288090127379e+005,-1.96273485554218e+001,-3.18239427498030e+000

1.41232479406504e+005,-1.96275045757562e+001,-3.22673718005501e+000

1.43204011348474e+005,-1.96276648773054e+001,-3.27169574366476e+000

1.45203064850745e+005,-1.96278295747178e+001,-3.31727842647727e+000

1.47230024099979e+005,-1.96279987855624e+001,-3.36349380216751e+000

1.49285278645888e+005,-1.96281726303959e+001,-3.41035055881526e+000

1.51369223476094e+005,-1.96283512328302e+001,-3.45785750031958e+000

1.53482259092041e+005,-1.96285347196018e+001,-3.50602354782695e+000

1.55624791585964e+005,-1.96287232206418e+001,-3.55485774117224e+000

1.57797232718936e+005,-1.96289168691475e+001,-3.60436924033710e+000

1.59999999999999e+005,-1.96291158016549e+001,-3.65456732692134e+000

1.62233516766403e+005,-1.96293201581120e+001,-3.70546140563062e+000

1.64498212264969e+005,-1.96295300819546e+001,-3.75706100577814e+000

1.66794521734578e+005,-1.96297457201812e+001,-3.80937578280345e+000

1.69122886489819e+005,-1.96299672234311e+001,-3.86241551980465e+000

1.71483754005805e+005,-1.96301947460622e+001,-3.91619012908854e+000

1.73877578004168e+005,-1.96304284462308e+001,-3.97070965373499e+000

1.76304818540256e+005,-1.96306684859719e+001,-4.02598426917907e+000

1.78765942091554e+005,-1.96309150312811e+001,-4.08202428480822e+000

1.81261421647326e+005,-1.96311682521977e+001,-4.13884014557731e+000

1.83791736799524e+005,-1.96314283228885e+001,-4.19644243363979e+000

1.86357373834951e+005,-1.96316954217328e+001,-4.25484186999723e+000

1.88958825828723e+005,-1.96319697314091e+001,-4.31404931616474e+000

1.91596592739027e+005,-1.96322514389820e+001,-4.37407577585584e+000

1.94271181503206e+005,-1.96325407359909e+001,-4.43493239668494e+000

1.96983106135185e+005,-1.96328378185394e+001,-4.49663047188847e+000

1.99732887824256e+005,-1.96331428873861e+001,-4.55918144206534e+000

2.02521055035243e+005,-1.96334561480361e+001,-4.62259689693616e+000

2.05348143610063e+005,-1.96337778108341e+001,-4.68688857712248e+000

2.08214696870707e+005,-1.96341080910576e+001,-4.75206837594789e+000

2.11121265723661e+005,-1.96344472090127e+001,-4.81814834125713e+000

2.14068408765776e+005,-1.96347953901291e+001,-4.88514067725937e+000

2.17056692391625e+005,-1.96351528650579e+001,-4.95305774639144e+000

2.20086690902357e+005,-1.96355198697690e+001,-5.02191207120471e+000

2.23158986616063e+005,-1.96358966456509e+001,-5.09171633627502e+000

2.26274169979693e+005,-1.96362834396101e+001,-5.16248339013593e+000

2.29432839682530e+005,-1.96366805041729e+001,-5.23422624723631e+000

2.32635602771247e+005,-1.96370880975876e+001,-5.30695808992467e+000

2.35883074766574e+005,-1.96375064839275e+001,-5.38069227045741e+000

2.39175879781588e+005,-1.96379359331960e+001,-5.45544231303613e+000

2.42514650641661e+005,-1.96383767214318e+001,-5.53122191587010e+000

2.45900029006080e+005,-1.96388291308156e+001,-5.60804495326982e+000

2.49332665491357e+005,-1.96392934497785e+001,-5.68592547776879e+000

2.52813219796278e+005,-1.96397699731107e+001,-5.76487772227508e+000

2.56342360828676e+005,-1.96402590020721e+001,-5.84491610225642e+000

2.59920766833993e+005,-1.96407608445039e+001,-5.92605521795586e+000

2.63549125525621e+005,-1.96412758149422e+001,-6.00830985664244e+000

2.67228134217075e+005,-1.96418042347319e+001,-6.09169499489561e+000

2.70958499956006e+005,-1.96423464321430e+001,-6.17622580092651e+000

2.74740939660078e+005,-1.96429027424885e+001,-6.26191763693578e+000

2.78576180254757e+005,-1.96434735082433e+001,-6.34878606150992e+000

2.82464958813007e+005,-1.96440590791660e+001,-6.43684683205785e+000

2.86408022696948e+005,-1.96446598124211e+001,-6.52611590728804e+000

2.90406129701488e+005,-1.96452760727051e+001,-6.61660944972762e+000

2.94460048199957e+005,-1.96459082323732e+001,-6.70834382828625e+000

2.98570557291775e+005,-1.96465566715693e+001,-6.80133562086437e+000

3.02738446952187e+005,-1.96472217783580e+001,-6.89560161700823e+000

3.06964518184081e+005,-1.96479039488601e+001,-6.99115882061312e+000

3.11249583171928e+005,-1.96486035873901e+001,-7.08802445267547e+000

3.15594465437872e+005,-1.96493211065973e+001,-7.18621595409696e+000

3.19999999999997e+005,-1.96500569276109e+001,-7.28575098853952e+000

3.24467033532806e+005,-1.96508114801875e+001,-7.38664744533534e+000

3.28996424529938e+005,-1.96515852028639e+001,-7.48892344245169e+000

3.33589043469155e+005,-1.96523785431132e+001,-7.59259732951236e+000

3.38245772979638e+005,-1.96531919575064e+001,-7.69768769087631e+000

3.42967508011610e+005,-1.96540259118776e+001,-7.80421334877797e+000

3.47755156008335e+005,-1.96548808814966e+001,-7.91219336652518e+000

3.52609637080511e+005,-1.96557573512451e+001,-8.02164705176169e+000

3.57531884183106e+005,-1.96566558158004e+001,-8.13259395979018e+000

3.62522843294651e+005,-1.96575767798251e+001,-8.24505389696218e+000

3.67583473599047e+005,-1.96585207581644e+001,-8.35904692413029e+000

3.72714747669902e+005,-1.96594882760505e+001,-8.47459336016866e+000

3.77917651657445e+005,-1.96604798693150e+001,-8.59171378555829e+000

3.83193185478053e+005,-1.96614960846107e+001,-8.71042904604151e+000

3.88542363006410e+005,-1.96625374796414e+001,-8.83076025634265e+000

3.93966212270369e+005,-1.96636046234026e+001,-8.95272880395817e+000

3.99465775648511e+005,-1.96646980964319e+001,-9.07635635301398e+000

4.05042110070485e+005,-1.96658184910708e+001,-9.20166484819243e+000

4.10696287220124e+005,-1.96669664117380e+001,-9.32867651872561e+000

4.16429393741414e+005,-1.96681424752150e+001,-9.45741388245794e+000

4.22242531447321e+005,-1.96693473109450e+001,-9.58789974997417e+000

4.28136817531551e+005,-1.96705815613453e+001,-9.72015722879438e+000

4.34113384783250e+005,-1.96718458821345e+001,-9.85420972763332e+000

4.40173381804713e+005,-1.96731409426745e+001,-9.99008096072259e+000

4.46317973232124e+005,-1.96744674263290e+001,-1.01277949521951e+001

4.52548339959385e+005,-1.96758260308385e+001,-1.02673760405284e+001

4.58865679365059e+005,-1.96772174687126e+001,-1.04088488830451e+001

4.65271205542494e+005,-1.96786424676409e+001,-1.05522384604677e+001

4.71766149533147e+005,-1.96801017709232e+001,-1.06975700815249e+001

4.78351759563174e+005,-1.96815961379189e+001,-1.08448693876047e+001

4.85029301283321e+005,-1.96831263445174e+001,-1.09941623574540e+001

4.91800058012158e+005,-1.96846931836299e+001,-1.11454753119148e+001

4.98665330982714e+005,-1.96862974657035e+001,-1.12988349186994e+001

5.05626439592555e+005,-1.96879400192573e+001,-1.14542681971939e+001

5.12684721657352e+005,-1.96896216914435e+001,-1.16118025232879e+001

5.19841533667984e+005,-1.96913433486311e+001,-1.17714656342251e+001

5.27098251051240e+005,-1.96931058770161e+001,-1.19332856334658e+001

5.34456268434150e+005,-1.96949101832563e+001,-1.20972909955593e+001

5.41916999912011e+005,-1.96967571951320e+001,-1.22635105710156e+001

