Freq.,VOut,OutRef

1.00000000000000e+004,-1.09640316765591e+001,-9.73430749798994e-002

1.01395947979003e+004,-1.09640317184881e+001,-9.87019272356197e-002

1.02811382665607e+004,-1.09640317615954e+001,-1.00079748088199e-001

1.04246576084112e+004,-1.09640318059137e+001,-1.01476802318120e-001

1.05701804056138e+004,-1.09640318514772e+001,-1.02893358402271e-001

1.07177346253629e+004,-1.09640318983207e+001,-1.04329688562844e-001

1.08673486252606e+004,-1.09640319464803e+001,-1.05786068822801e-001

1.10190511587661e+004,-1.09640319959928e+001,-1.07262779057767e-001

1.11728713807222e+004,-1.09640320468963e+001,-1.08760103048499e-001

1.13288388529580e+004,-1.09640320992299e+001,-1.10278328537417e-001

1.14869835499703e+004,-1.09640321530335e+001,-1.11817747284817e-001

1.16473358646846e+004,-1.09640322083487e+001,-1.13378655118850e-001

1.18099266142953e+004,-1.09640322652176e+001,-1.14961352000747e-001

1.19747870461893e+004,-1.09640323236840e+001,-1.16566142076821e-001

1.21419488439505e+004,-1.09640323837926e+001,-1.18193333737768e-001

1.23114441334492e+004,-1.09640324455898e+001,-1.19843239677990e-001

1.24833054890161e+004,-1.09640325091225e+001,-1.21516176959279e-001

1.26575659397028e+004,-1.09640325744398e+001,-1.23212467064855e-001

1.28342589756290e+004,-1.09640326415916e+001,-1.24932435966803e-001

1.30134185544193e+004,-1.09640327106294e+001,-1.26676414186560e-001

1.31950791077289e+004,-1.09640327816063e+001,-1.28444736856547e-001

1.33792755478611e+004,-1.09640328545763e+001,-1.30237743791373e-001

1.35660432744767e+004,-1.09640329295957e+001,-1.32055779541840e-001

1.37554181813974e+004,-1.09640330067218e+001,-1.33899193472079e-001

1.39474366635040e+004,-1.09640330860137e+001,-1.35768339820558e-001

1.41421356237309e+004,-1.09640331675321e+001,-1.37663577769251e-001

1.43395524801583e+004,-1.09640332513398e+001,-1.39585271512462e-001

1.45397251732031e+004,-1.09640333375005e+001,-1.41533790329434e-001

1.47426921729110e+004,-1.09640334260806e+001,-1.43509508649861e-001

1.49484924863494e+004,-1.09640335171475e+001,-1.45512806132269e-001

1.51571656651040e+004,-1.09640336107713e+001,-1.47544067730356e-001

1.53687518128801e+004,-1.09640337070236e+001,-1.49603683772427e-001

1.55832915932100e+004,-1.09640338059780e+001,-1.51692050032721e-001

1.58008262372675e+004,-1.09640339077103e+001,-1.53809567808575e-001

1.60213975517924e+004,-1.09640340122984e+001,-1.55956643998344e-001

1.62450479271247e+004,-1.09640341198223e+001,-1.58133691178591e-001

1.64718203453514e+004,-1.09640342303643e+001,-1.60341127682901e-001

1.67017583885674e+004,-1.09640343440089e+001,-1.62579377682935e-001

1.69349062472505e+004,-1.09640344608431e+001,-1.64848871269236e-001

1.71713087287550e+004,-1.09640345809562e+001,-1.67150044534798e-001

1.74110112659224e+004,-1.09640347044403e+001,-1.69483339655659e-001

1.76540599258131e+004,-1.09640348313896e+001,-1.71849204982054e-001

1.79005014185594e+004,-1.09640349619011e+001,-1.74248095117975e-001

1.81503831063432e+004,-1.09640350960748e+001,-1.76680471011158e-001

1.84037530124975e+004,-1.09640352340130e+001,-1.79146800042017e-001

1.86606598307361e+004,-1.09640353758212e+001,-1.81647556113424e-001

1.89211529345119e+004,-1.09640355216078e+001,-1.84183219737452e-001

1.91852823865052e+004,-1.09640356714843e+001,-1.86754278134066e-001

1.94530989482457e+004,-1.09640358255649e+001,-1.89361225321986e-001

1.97246540898671e+004,-1.09640359839674e+001,-1.92004562210791e-001

1.99999999999999e+004,-1.09640361468127e+001,-1.94684796699815e-001

2.02791895958005e+004,-1.09640363142252e+001,-1.97402443775678e-001

2.05622765331213e+004,-1.09640364863326e+001,-2.00158025609477e-001

2.08493152168224e+004,-1.09640366632661e+001,-2.02952071659649e-001

2.11403608112276e+004,-1.09640368451609e+001,-2.05785118768596e-001

2.14354692507258e+004,-1.09640370321556e+001,-2.08657711270976e-001

2.17346972505211e+004,-1.09640372243929e+001,-2.11570401094991e-001

2.20381023175322e+004,-1.09640374220192e+001,-2.14523747869294e-001

2.23457427614443e+004,-1.09640376251853e+001,-2.17518319030001e-001

2.26576777059159e+004,-1.09640378340459e+001,-2.20554689929324e-001

2.29739670999406e+004,-1.09640380487600e+001,-2.23633443947203e-001

2.32946717293690e+004,-1.09640382694914e+001,-2.26755172599946e-001

2.36198532285905e+004,-1.09640384964080e+001,-2.29920475657349e-001

2.39495740923785e+004,-1.09640387296826e+001,-2.33129961254278e-001

2.42838976879009e+004,-1.09640389694926e+001,-2.36384246012375e-001

2.46228882668982e+004,-1.09640392160206e+001,-2.39683955150510e-001

2.49666109780322e+004,-1.09640394694541e+001,-2.43029722610827e-001

2.53151318794055e+004,-1.09640397299856e+001,-2.46422191179759e-001

2.56685179512580e+004,-1.09640399978133e+001,-2.49862012607224e-001

2.60268371088386e+004,-1.09640402731406e+001,-2.53349847735485e-001

2.63901582154578e+004,-1.09640405561767e+001,-2.56886366623236e-001

2.67585510957221e+004,-1.09640408471365e+001,-2.60472248675587e-001

2.71320865489533e+004,-1.09640411462410e+001,-2.64108182773123e-001

2.75108363627948e+004,-1.09640414537169e+001,-2.67794867404995e-001

2.78948733270080e+004,-1.09640417697974e+001,-2.71533010801693e-001

2.82842712474618e+004,-1.09640420947224e+001,-2.75323331069884e-001

2.86791049603164e+004,-1.09640424287382e+001,-2.79166556331803e-001

2.90794503464061e+004,-1.09640427720977e+001,-2.83063424863477e-001

2.94853843458219e+004,-1.09640431250609e+001,-2.87014685236934e-001

2.98969849726987e+004,-1.09640434878950e+001,-2.91021096462417e-001

3.03143313302078e+004,-1.09640438608746e+001,-2.95083428133842e-001

3.07375036257601e+004,-1.09640442442819e+001,-2.99202460576091e-001

3.11665831864199e+004,-1.09640446384064e+001,-3.03378984996651e-001

3.16016524745350e+004,-1.09640450435463e+001,-3.07613803630403e-001

3.20427951035848e+004,-1.09640454600074e+001,-3.11907729902504e-001

3.24900958542493e+004,-1.09640458881039e+001,-3.16261588576710e-001

3.29436406907028e+004,-1.09640463281591e+001,-3.20676215913716e-001

3.34035167771346e+004,-1.09640467805046e+001,-3.25152459836103e-001

3.38698124945009e+004,-1.09640472454813e+001,-3.29691180084923e-001

3.43426174575100e+004,-1.09640477234396e+001,-3.34293248385988e-001

3.48220225318448e+004,-1.09640482147393e+001,-3.38959548616988e-001

3.53081198516260e+004,-1.09640487197498e+001,-3.43690976977271e-001

3.58010028371187e+004,-1.09640492388509e+001,-3.48488442156736e-001

3.63007662126863e+004,-1.09640497724328e+001,-3.53352865509759e-001

3.68075060249948e+004,-1.09640503208960e+001,-3.58285181233666e-001

3.73213196614721e+004,-1.09640508846522e+001,-3.63286336543865e-001

3.78423058690237e+004,-1.09640514641240e+001,-3.68357291858558e-001

3.83705647730104e+004,-1.09640520597457e+001,-3.73499020976643e-001

3.89061978964912e+004,-1.09640526719634e+001,-3.78712511268341e-001

3.94493081797342e+004,-1.09640533012351e+001,-3.83998763863023e-001

3.99999999999998e+004,-1.09640539480314e+001,-3.89358793836716e-001

4.05583791916010e+004,-1.09640546128353e+001,-3.94793630411130e-001

4.11245530662425e+004,-1.09640552961432e+001,-4.00304317144737e-001

4.16986304336447e+004,-1.09640559984648e+001,-4.05891912134904e-001

4.22807216224550e+004,-1.09640567203233e+001,-4.11557488218764e-001

4.28709385014515e+004,-1.09640574622562e+001,-4.17302133177955e-001

4.34693945010421e+004,-1.09640582248156e+001,-4.23126949944290e-001

4.40762046350642e+004,-1.09640590085681e+001,-4.29033056812362e-001

4.46914855228886e+004,-1.09640598140954e+001,-4.35021587652517e-001

4.53153554118317e+004,-1.09640606419952e+001,-4.41093692122718e-001

4.59479341998812e+004,-1.09640614928808e+001,-4.47250535892954e-001

4.65893434587380e+004,-1.09640623673821e+001,-4.53493300862329e-001

4.72397064571810e+004,-1.09640632661455e+001,-4.59823185387919e-001

4.78991481847569e+004,-1.09640641898349e+001,-4.66241404510272e-001

4.85677953758016e+004,-1.09640651391316e+001,-4.72749190184742e-001

4.92457765337964e+004,-1.09640661147351e+001,-4.79347791515194e-001

4.99332219560642e+004,-1.09640671173634e+001,-4.86038474994367e-001

5.06302637588109e+004,-1.09640681477534e+001,-4.92822524740333e-001

5.13370359025159e+004,-1.09640692066613e+001,-4.99701242744040e-001

5.20536742176771e+004,-1.09640702948635e+001,-5.06675949113435e-001

5.27803164309155e+004,-1.09640714131565e+001,-5.13747982326657e-001

5.35171021914442e+004,-1.09640725623579e+001,-5.20918699484977e-001

5.42641730979066e+004,-1.09640737433067e+001,-5.28189476568805e-001

5.50216727255895e+004,-1.09640749568634e+001,-5.35561708701599e-001

5.57897466540159e+004,-1.09640762039113e+001,-5.43036810412006e-001

5.65685424949235e+004,-1.09640774853565e+001,-5.50616215903014e-001

5.73582099206328e+004,-1.09640788021286e+001,-5.58301379322480e-001

5.81589006928121e+004,-1.09640801551812e+001,-5.66093775040008e-001

5.89707686916437e+004,-1.09640815454924e+001,-5.73994897924560e-001

5.97939699453972e+004,-1.09640829740656e+001,-5.82006263629214e-001

6.06286626604156e+004,-1.09640844419300e+001,-5.90129408874519e-001

6.14750072515201e+004,-1.09640859501407e+001,-5.98365891743063e-001

6.23331663728396e+004,-1.09640874997802e+001,-6.06717291970194e-001

6.32033049490698e+004,-1.09640890919581e+001,-6.15185211246201e-001

6.40855902071694e+004,-1.09640907278124e+001,-6.23771273514768e-001

6.49801917084985e+004,-1.09640924085095e+001,-6.32477125281988e-001

6.58872813814055e+004,-1.09640941352456e+001,-6.41304435925889e-001

6.68070335542691e+004,-1.09640959092465e+001,-6.50254898011907e-001

6.77396249890018e+004,-1.09640977317688e+001,-6.59330227611153e-001

6.86852349150199e+004,-1.09640996041004e+001,-6.68532164623859e-001

6.96440450636895e+004,-1.09641015275610e+001,-6.77862473107372e-001

7.06162397032520e+004,-1.09641035035031e+001,-6.87322941607047e-001

7.16020056742374e+004,-1.09641055333121e+001,-6.96915383493413e-001

7.26015324253724e+004,-1.09641076184077e+001,-7.06641637303017e-001

7.36150120499896e+004,-1.09641097602441e+001,-7.16503567082584e-001

7.46426393229441e+004,-1.09641119603107e+001,-7.26503062740958e-001

7.56846117380472e+004,-1.09641142201328e+001,-7.36642040401616e-001

7.67411295460207e+004,-1.09641165412724e+001,-7.46922442764082e-001

7.78123957929823e+004,-1.09641189253291e+001,-7.57346239465328e-001

7.88986163594682e+004,-1.09641213739402e+001,-7.67915427451471e-001

7.99999999999995e+004,-1.09641238887817e+001,-7.78632031348932e-001

8.11167583832018e+004,-1.09641264715691e+001,-7.89498103846173e-001

8.22491061324848e+004,-1.09641291240581e+001,-8.00515726073219e-001

8.33972608672892e+004,-1.09641318480448e+001,-8.11687007994756e-001

8.45614432449099e+004,-1.09641346453670e+001,-8.23014088800832e-001

8.57418770029029e+004,-1.09641375179046e+001,-8.34499137307378e-001

8.69387890020841e+004,-1.09641404675799e+001,-8.46144352360322e-001

8.81524092701283e+004,-1.09641434963591e+001,-8.57951963244026e-001

8.93829710457770e+004,-1.09641466062521e+001,-8.69924230097834e-001

9.06307108236633e+004,-1.09641497993134e+001,-8.82063444335599e-001

9.18958683997622e+004,-1.09641530776430e+001,-8.94371929071153e-001

9.31786869174758e+004,-1.09641564433865e+001,-9.06852039550492e-001

9.44794129143618e+004,-1.09641598987363e+001,-9.19506163588415e-001

9.57982963695136e+004,-1.09641634459312e+001,-9.32336722011307e-001

9.71355907516031e+004,-1.09641670872581e+001,-9.45346169104683e-001

9.84915530675926e+004,-1.09641708250516e+001,-9.58536993069385e-001

9.98664439121282e+004,-1.09641746616947e+001,-9.71911716479421e-001

1.01260527517622e+005,-1.09641785996194e+001,-9.85472896750712e-001

1.02674071805032e+005,-1.09641826413071e+001,-9.99223126610530e-001

1.04107348435354e+005,-1.09641867892886e+001,-1.01316503457755e+000

1.05560632861831e+005,-1.09641910461449e+001,-1.02730128544606e+000

1.07034204382888e+005,-1.09641954145071e+001,-1.04163458077580e+000

1.08528346195813e+005,-1.09641998970569e+001,-1.05616765938884e+000

1.10043345451179e+005,-1.09642044965265e+001,-1.07090329787481e+000

1.11579493308032e+005,-1.09642092156987e+001,-1.08584431109919e+000

1.13137084989847e+005,-1.09642140574075e+001,-1.10099355271837e+000

1.14716419841265e+005,-1.09642190245370e+001,-1.11635391570637e+000

1.16317801385624e+005,-1.09642241200223e+001,-1.13192833288148e+000

1.17941537383287e+005,-1.09642293468489e+001,-1.14771977744312e+000

1.19587939890794e+005,-1.09642347080522e+001,-1.16373126351656e+000

1.21257325320831e+005,-1.09642402067176e+001,-1.17996584670146e+000

1.22950014503040e+005,-1.09642458459796e+001,-1.19642662463063e+000

1.24666332745679e+005,-1.09642516290216e+001,-1.21311673753404e+000

1.26406609898139e+005,-1.09642575590748e+001,-1.23003936880990e+000

1.28171180414339e+005,-1.09642636394177e+001,-1.24719774560335e+000

1.29960383416997e+005,-1.09642698733750e+001,-1.26459513939509e+000

1.31774562762811e+005,-1.09642762643164e+001,-1.28223486659165e+000

1.33614067108538e+005,-1.09642828156559e+001,-1.30012028912896e+000

1.35479249978003e+005,-1.09642895308496e+001,-1.31825481508171e+000

1.37370469830040e+005,-1.09642964133948e+001,-1.33664189927752e+000

1.39288090127379e+005,-1.09643034668279e+001,-1.35528504392545e+000

1.41232479406504e+005,-1.09643106947226e+001,-1.37418779924484e+000

1.43204011348474e+005,-1.09643181006878e+001,-1.39335376410790e+000

1.45203064850745e+005,-1.09643256883653e+001,-1.41278658668862e+000

1.47230024099979e+005,-1.09643334614270e+001,-1.43248996511903e+000

1.49285278645888e+005,-1.09643414235725e+001,-1.45246764815535e+000

1.51369223476094e+005,-1.09643495785254e+001,-1.47272343585248e+000

1.53482259092041e+005,-1.09643579300308e+001,-1.49326118024578e+000

1.55624791585964e+005,-1.09643664818513e+001,-1.51408478604262e+000

1.57797232718936e+005,-1.09643752377629e+001,-1.53519821132426e+000

1.59999999999999e+005,-1.09643842015512e+001,-1.55660546825249e+000

1.62233516766403e+005,-1.09643933770068e+001,-1.57831062379226e+000

1.64498212264969e+005,-1.09644027679201e+001,-1.60031780043567e+000

1.66794521734578e+005,-1.09644123780768e+001,-1.62263117694133e+000

1.69122886489819e+005,-1.09644222112515e+001,-1.64525498908194e+000

1.71483754005805e+005,-1.09644322712021e+001,-1.66819353039949e+000

1.73877578004168e+005,-1.09644425616636e+001,-1.69145115297357e+000

1.76304818540256e+005,-1.09644530863408e+001,-1.71503226819753e+000

1.78765942091554e+005,-1.09644638489013e+001,-1.73894134756530e+000

1.81261421647326e+005,-1.09644748529677e+001,-1.76318292346987e+000

1.83791736799524e+005,-1.09644861021091e+001,-1.78776159001134e+000

1.86357373834951e+005,-1.09644975998326e+001,-1.81268200381611e+000

1.88958825828723e+005,-1.09645093495739e+001,-1.83794888486682e+000

1.91596592739027e+005,-1.09645213546870e+001,-1.86356701734445e+000

1.94271181503206e+005,-1.09645336184343e+001,-1.88954125048128e+000

1.96983106135185e+005,-1.09645461439751e+001,-1.91587649942552e+000

1.99732887824256e+005,-1.09645589343537e+001,-1.94257774611878e+000

2.02521055035243e+005,-1.09645719924873e+001,-1.96965004018398e+000

2.05348143610063e+005,-1.09645853211525e+001,-1.99709849982838e+000

2.08214696870707e+005,-1.09645989229720e+001,-2.02492831275637e+000

2.11121265723661e+005,-1.09646128003990e+001,-2.05314473709907e+000

2.14068408765776e+005,-1.09646269557029e+001,-2.08175310235301e+000

2.17056692391625e+005,-1.09646413909523e+001,-2.11075881033540e+000

2.20086690902357e+005,-1.09646561079982e+001,-2.14016733615340e+000

2.23158986616063e+005,-1.09646711084561e+001,-2.16998422918563e+000

2.26274169979693e+005,-1.09646863936873e+001,-2.20021511408115e+000

2.29432839682530e+005,-1.09647019647787e+001,-2.23086569177046e+000

2.32635602771247e+005,-1.09647178225228e+001,-2.26194174049497e+000

2.35883074766574e+005,-1.09647339673952e+001,-2.29344911684984e+000

2.39175879781588e+005,-1.09647503995326e+001,-2.32539375684442e+000

2.42514650641661e+005,-1.09647671187087e+001,-2.35778167697926e+000

2.45900029006080e+005,-1.09647841243096e+001,-2.39061897533882e+000

2.49332665491357e+005,-1.09648014153074e+001,-2.42391183270479e+000

2.52813219796278e+005,-1.09648189902340e+001,-2.45766651368365e+000

2.56342360828676e+005,-1.09648368471521e+001,-2.49188936785547e+000

2.59920766833993e+005,-1.09648549836262e+001,-2.52658683094129e+000

2.63549125525621e+005,-1.09648733966923e+001,-2.56176542598832e+000

2.67228134217075e+005,-1.09648920828255e+001,-2.59743176457856e+000

2.70958499956006e+005,-1.09649110379075e+001,-2.63359254805397e+000

2.74740939660078e+005,-1.09649302571918e+001,-2.67025456876717e+000

2.78576180254757e+005,-1.09649497352687e+001,-2.70742471135014e+000

2.82464958813007e+005,-1.09649694660278e+001,-2.74510995400810e+000

2.86408022696948e+005,-1.09649894426203e+001,-2.78331736983572e+000

2.90406129701488e+005,-1.09650096574190e+001,-2.82205412815573e+000

2.94460048199957e+005,-1.09650301019777e+001,-2.86132749588463e+000

2.98570557291775e+005,-1.09650507669887e+001,-2.90114483892057e+000

3.02738446952187e+005,-1.09650716422395e+001,-2.94151362355976e+000

3.06964518184081e+005,-1.09650927165675e+001,-2.98244141793717e+000

3.11249583171928e+005,-1.09651139778140e+001,-3.02393589349584e+000

3.15594465437872e+005,-1.09651354127760e+001,-3.06600482648380e+000

3.19999999999997e+005,-1.09651570071578e+001,-3.10865609947955e+000

3.24467033532806e+005,-1.09651787455201e+001,-3.15189770294755e+000

3.28996424529938e+005,-1.09652006112286e+001,-3.19573773682278e+000

3.33589043469155e+005,-1.09652225864007e+001,-3.24018441212877e+000

3.38245772979638e+005,-1.09652446518516e+001,-3.28524605262496e+000

3.42967508011610e+005,-1.09652667870383e+001,-3.33093109648785e+000

3.47755156008335e+005,-1.09652889700032e+001,-3.37724809802582e+000

3.52609637080511e+005,-1.09653111773160e+001,-3.42420572942795e+000

3.57531884183106e+005,-1.09653333840144e+001,-3.47181278254836e+000

3.62522843294651e+005,-1.09653555635443e+001,-3.52007817072495e+000

3.67583473599047e+005,-1.09653776876982e+001,-3.56901093063668e+000

3.72714747669902e+005,-1.09653997265530e+001,-3.61862022419773e+000

3.77917651657445e+005,-1.09654216484070e+001,-3.66891534048847e+000

3.83193185478053e+005,-1.09654434197154e+001,-3.71990569772798e+000

3.88542363006410e+005,-1.09654650050262e+001,-3.77160084528386e+000

3.93966212270369e+005,-1.09654863669136e+001,-3.82401046572447e+000

3.99465775648511e+005,-1.09655074659129e+001,-3.87714437691055e+000

4.05042110070485e+005,-1.09655282604527e+001,-3.93101253413065e+000

4.10696287220124e+005,-1.09655487067880e+001,-3.98562503227697e+000

4.16429393741414e+005,-1.09655687589329e+001,-4.04099210806609e+000

4.22242531447321e+005,-1.09655883685920e+001,-4.09712414230284e+000

4.28136817531551e+005,-1.09656074850926e+001,-4.15403166218829e+000

4.34113384783250e+005,-1.09656260553165e+001,-4.21172534367229e+000

4.40173381804713e+005,-1.09656440236318e+001,-4.27021601385216e+000

4.46317973232124e+005,-1.09656613318244e+001,-4.32951465341636e+000

4.52548339959385e+005,-1.09656779190304e+001,-4.38963239913545e+000

4.58865679365059e+005,-1.09656937216687e+001,-4.45058054639739e+000

4.65271205542494e+005,-1.09657086733735e+001,-4.51237055179194e+000

4.71766149533147e+005,-1.09657227049279e+001,-4.57501403574095e+000

4.78351759563174e+005,-1.09657357441980e+001,-4.63852278517551e+000

4.85029301283321e+005,-1.09657477160677e+001,-4.70290875626150e+000

4.91800058012158e+005,-1.09657585423744e+001,-4.76818407717147e+000

4.98665330982714e+005,-1.09657681418455e+001,-4.83436105090532e+000

5.05626439592555e+005,-1.09657764300361e+001,-4.90145215815761e+000

5.12684721657352e+005,-1.09657833192683e+001,-4.96947006023154e+000

5.19841533667984e+005,-1.09657887185706e+001,-5.03842760200179e+000

5.27098251051240e+005,-1.09657925336196e+001,-5.10833781492414e+000

5.34456268434150e+005,-1.09657946666827e+001,-5.17921392009007e+000

5.41916999912011e+005,-1.09657950165623e+001,-5.25106933133109e+000

