Freq.,VOut,OutRef

1.00000000000000e+004,-2.68091098043429e+001,-2.51455302365034e-001

1.01395947979003e+004,-2.68091109403603e+001,-2.54965453106862e-001

1.02811382665607e+004,-2.68091121083125e+001,-2.58524602263118e-001

1.04246576084112e+004,-2.68091133090973e+001,-2.62133433764222e-001

1.05701804056138e+004,-2.68091145436374e+001,-2.65792641085238e-001

1.07177346253629e+004,-2.68091158128816e+001,-2.69502927379286e-001

1.08673486252606e+004,-2.68091171178055e+001,-2.73265005611058e-001

1.10190511587661e+004,-2.68091184594119e+001,-2.77079598696575e-001

1.11728713807222e+004,-2.68091198387318e+001,-2.80947439638618e-001

1.13288388529580e+004,-2.68091212568254e+001,-2.84869271670237e-001

1.14869835499703e+004,-2.68091227147823e+001,-2.88845848396101e-001

1.16473358646846e+004,-2.68091242137231e+001,-2.92877933936488e-001

1.18099266142953e+004,-2.68091257547999e+001,-2.96966303074906e-001

1.19747870461893e+004,-2.68091273391966e+001,-3.01111741408196e-001

1.21419488439505e+004,-2.68091289681311e+001,-3.05315045493373e-001

1.23114441334492e+004,-2.68091306428551e+001,-3.09577023004231e-001

1.24833054890161e+004,-2.68091323646555e+001,-3.13898492885249e-001

1.26575659397028e+004,-2.68091341348557e+001,-3.18280285506538e-001

1.28342589756290e+004,-2.68091359548156e+001,-3.22723242827521e-001

1.30134185544193e+004,-2.68091378259340e+001,-3.27228218553739e-001

1.31950791077289e+004,-2.68091397496488e+001,-3.31796078304412e-001

1.33792755478611e+004,-2.68091417274379e+001,-3.36427699777006e-001

1.35660432744767e+004,-2.68091437608214e+001,-3.41123972914346e-001

1.37554181813974e+004,-2.68091458513616e+001,-3.45885800077122e-001

1.39474366635040e+004,-2.68091480006649e+001,-3.50714096217471e-001

1.41421356237309e+004,-2.68091502103827e+001,-3.55609789052320e-001

1.43395524801583e+004,-2.68091524822130e+001,-3.60573819242848e-001

1.45397251732031e+004,-2.68091548179013e+001,-3.65607140575152e-001

1.47426921729110e+004,-2.68091572192422e+001,-3.70710720140903e-001

1.49484924863494e+004,-2.68091596880808e+001,-3.75885538525996e-001

1.51571656651040e+004,-2.68091622263138e+001,-3.81132589996704e-001

1.53687518128801e+004,-2.68091648358917e+001,-3.86452882689322e-001

1.55832915932100e+004,-2.68091675188191e+001,-3.91847438807112e-001

1.58008262372675e+004,-2.68091702771574e+001,-3.97317294811982e-001

1.60213975517924e+004,-2.68091731130258e+001,-4.02863501625600e-001

1.62450479271247e+004,-2.68091760286027e+001,-4.08487124831501e-001

1.64718203453514e+004,-2.68091790261282e+001,-4.14189244876838e-001

1.67017583885674e+004,-2.68091821079052e+001,-4.19970957280910e-001

1.69349062472505e+004,-2.68091852763009e+001,-4.25833372846726e-001

1.71713087287550e+004,-2.68091885337493e+001,-4.31777617870071e-001

1.74110112659224e+004,-2.68091918827527e+001,-4.37804834359477e-001

1.76540599258131e+004,-2.68091953258837e+001,-4.43916180251036e-001

1.79005014185594e+004,-2.68091988657872e+001,-4.50112829634247e-001

1.81503831063432e+004,-2.68092025051823e+001,-4.56395972972726e-001

1.84037530124975e+004,-2.68092062468643e+001,-4.62766817336479e-001

1.86606598307361e+004,-2.68092100937073e+001,-4.69226586630713e-001

1.89211529345119e+004,-2.68092140486658e+001,-4.75776521829701e-001

1.91852823865052e+004,-2.68092181147775e+001,-4.82417881216123e-001

1.94530989482457e+004,-2.68092222951654e+001,-4.89151940620893e-001

1.97246540898671e+004,-2.68092265930398e+001,-4.95979993668298e-001

1.99999999999999e+004,-2.68092310117018e+001,-5.02903352021695e-001

2.02791895958005e+004,-2.68092355545445e+001,-5.09923345638265e-001

2.05622765331213e+004,-2.68092402250566e+001,-5.17041323019643e-001

2.08493152168224e+004,-2.68092450268248e+001,-5.24258651472091e-001

2.11403608112276e+004,-2.68092499635363e+001,-5.31576717367442e-001

2.14354692507258e+004,-2.68092550389818e+001,-5.38996926409777e-001

2.17346972505211e+004,-2.68092602570585e+001,-5.46520703902019e-001

2.20381023175322e+004,-2.68092656217731e+001,-5.54149495019855e-001

2.23457427614443e+004,-2.68092711372443e+001,-5.61884765089411e-001

2.26576777059159e+004,-2.68092768077070e+001,-5.69727999864093e-001

2.29739670999406e+004,-2.68092826375144e+001,-5.77680705812635e-001

2.32946717293690e+004,-2.68092886311423e+001,-5.85744410403442e-001

2.36198532285905e+004,-2.68092947931917e+001,-5.93920662399968e-001

2.39495740923785e+004,-2.68093011283930e+001,-6.02211032153538e-001

2.42838976879009e+004,-2.68093076416093e+001,-6.10617111905524e-001

2.46228882668982e+004,-2.68093143378398e+001,-6.19140516091975e-001

2.49666109780322e+004,-2.68093212222244e+001,-6.27782881649281e-001

2.53151318794055e+004,-2.68093283000470e+001,-6.36545868330111e-001

2.56685179512580e+004,-2.68093355767396e+001,-6.45431159018073e-001

2.60268371088386e+004,-2.68093430578868e+001,-6.54440460049539e-001

2.63901582154578e+004,-2.68093507492295e+001,-6.63575501540921e-001

2.67585510957221e+004,-2.68093586566699e+001,-6.72838037716208e-001

2.71320865489533e+004,-2.68093667862758e+001,-6.82229847243741e-001

2.75108363627948e+004,-2.68093751442848e+001,-6.91752733575296e-001

2.78948733270080e+004,-2.68093837371095e+001,-7.01408525289379e-001

2.82842712474618e+004,-2.68093925713426e+001,-7.11199076439843e-001

2.86791049603164e+004,-2.68094016537613e+001,-7.21126266910739e-001

2.90794503464061e+004,-2.68094109913329e+001,-7.31192002773565e-001

2.94853843458219e+004,-2.68094205912199e+001,-7.41398216651011e-001

2.98969849726987e+004,-2.68094304607858e+001,-7.51746868083701e-001

3.03143313302078e+004,-2.68094406076001e+001,-7.62239943906675e-001

3.07375036257601e+004,-2.68094510394449e+001,-7.72879458624393e-001

3.11665831864199e+004,-2.68094617643199e+001,-7.83667454796324e-001

3.16016524745350e+004,-2.68094727904493e+001,-7.94606003425085e-001

3.20427951035848e+004,-2.68094841262874e+001,-8.05697204350668e-001

3.24900958542493e+004,-2.68094957805255e+001,-8.16943186650421e-001

3.29436406907028e+004,-2.68095077620985e+001,-8.28346109041748e-001

3.34035167771346e+004,-2.68095200801912e+001,-8.39908160296212e-001

3.38698124945009e+004,-2.68095327442460e+001,-8.51631559652344e-001

3.43426174575100e+004,-2.68095457639693e+001,-8.63518557239676e-001

3.48220225318448e+004,-2.68095591493395e+001,-8.75571434504681e-001

3.53081198516260e+004,-2.68095729106144e+001,-8.87792504643471e-001

3.58010028371187e+004,-2.68095870583388e+001,-9.00184113043929e-001

3.63007662126863e+004,-2.68096016033526e+001,-9.12748637727427e-001

3.68075060249948e+004,-2.68096165567992e+001,-9.25488489801341e-001

3.73213196614721e+004,-2.68096319301339e+001,-9.38406113916932e-001

3.78423058690237e+004,-2.68096477351320e+001,-9.51503988732164e-001

3.83705647730104e+004,-2.68096639838989e+001,-9.64784627380368e-001

3.89061978964912e+004,-2.68096806888780e+001,-9.78250577948354e-001

3.94493081797342e+004,-2.68096978628610e+001,-9.91904423957898e-001

3.99999999999998e+004,-2.68097155189971e+001,-1.00574878485370e+000

4.05583791916010e+004,-2.68097336708034e+001,-1.01978631650047e+000

4.11245530662425e+004,-2.68097523321745e+001,-1.03401971168477e+000

4.16986304336447e+004,-2.68097715173937e+001,-1.04845170062339e+000

4.22807216224550e+004,-2.68097912411431e+001,-1.06308505147994e+000

4.28709385014515e+004,-2.68098115185152e+001,-1.07792257088733e+000

4.34693945010421e+004,-2.68098323650241e+001,-1.09296710447741e+000

4.40762046350642e+004,-2.68098537966172e+001,-1.10822153741805e+000

4.46914855228886e+004,-2.68098758296870e+001,-1.12368879495718e+000

4.53153554118317e+004,-2.68098984810842e+001,-1.13937184297309e+000

4.59479341998812e+004,-2.68099217681293e+001,-1.15527368853545e+000

4.65893434587380e+004,-2.68099457086265e+001,-1.17139738046879e+000

4.72397064571810e+004,-2.68099703208768e+001,-1.18774600992788e+000

4.78991481847569e+004,-2.68099956236915e+001,-1.20432271097844e+000

4.85677953758016e+004,-2.68100216364069e+001,-1.22113066118584e+000

4.92457765337964e+004,-2.68100483788983e+001,-1.23817308221253e+000

4.99332219560642e+004,-2.68100758715950e+001,-1.25545324042223e+000

5.06302637588109e+004,-2.68101041354959e+001,-1.27297444749305e+000

5.13370359025159e+004,-2.68101331921850e+001,-1.29074006103767e+000

5.20536742176771e+004,-2.68101630638475e+001,-1.30875348523278e+000

5.27803164309155e+004,-2.68101937732866e+001,-1.32701817145659e+000

5.35171021914442e+004,-2.68102253439403e+001,-1.34553761893396e+000

5.42641730979066e+004,-2.68102577998992e+001,-1.36431537538943e+000

5.50216727255895e+004,-2.68102911659243e+001,-1.38335503771259e+000

5.57897466540159e+004,-2.68103254674652e+001,-1.40266025262669e+000

5.65685424949235e+004,-2.68103607306798e+001,-1.42223471737077e+000

5.73582099206328e+004,-2.68103969824530e+001,-1.44208218038615e+000

5.81589006928121e+004,-2.68104342504170e+001,-1.46220644201724e+000

5.89707686916437e+004,-2.68104725629719e+001,-1.48261135521606e+000

5.97939699453972e+004,-2.68105119493069e+001,-1.50330082625889e+000

6.06286626604156e+004,-2.68105524394214e+001,-1.52427881547307e+000

6.14750072515201e+004,-2.68105940641480e+001,-1.54554933796925e+000

6.23331663728396e+004,-2.68106368551745e+001,-1.56711646438762e+000

6.32033049490698e+004,-2.68106808450680e+001,-1.58898432165007e+000

6.40855902071694e+004,-2.68107260672987e+001,-1.61115709372443e+000

6.49801917084985e+004,-2.68107725562645e+001,-1.63363902239708e+000

6.58872813814055e+004,-2.68108203473163e+001,-1.65643440805656e+000

6.68070335542691e+004,-2.68108694767845e+001,-1.67954761048491e+000

6.77396249890018e+004,-2.68109199820048e+001,-1.70298304966301e+000

6.86852349150199e+004,-2.68109719013469e+001,-1.72674520658077e+000

6.96440450636895e+004,-2.68110252742413e+001,-1.75083862406315e+000

7.06162397032520e+004,-2.68110801412090e+001,-1.77526790760224e+000

7.16020056742374e+004,-2.68111365438909e+001,-1.80003772620172e+000

7.26015324253724e+004,-2.68111945250784e+001,-1.82515281323208e+000

7.36150120499896e+004,-2.68112541287441e+001,-1.85061796729566e+000

7.46426393229441e+004,-2.68113154000744e+001,-1.87643805310281e+000

7.56846117380472e+004,-2.68113783855022e+001,-1.90261800235865e+000

7.67411295460207e+004,-2.68114431327404e+001,-1.92916281466177e+000

7.78123957929823e+004,-2.68115096908166e+001,-1.95607755841239e+000

7.88986163594682e+004,-2.68115781101088e+001,-1.98336737173373e+000

7.99999999999995e+004,-2.68116484423815e+001,-2.01103746340170e+000

8.11167583832018e+004,-2.68117207408232e+001,-2.03909311378978e+000

8.22491061324848e+004,-2.68117950600848e+001,-2.06753967582159e+000

8.33972608672892e+004,-2.68118714563186e+001,-2.09638257593817e+000

8.45614432449099e+004,-2.68119499872188e+001,-2.12562731507404e+000

8.57418770029029e+004,-2.68120307120629e+001,-2.15527946964762e+000

8.69387890020841e+004,-2.68121136917540e+001,-2.18534469256175e+000

8.81524092701283e+004,-2.68121989888640e+001,-2.21582871421665e+000

8.93829710457770e+004,-2.68122866676787e+001,-2.24673734353552e+000

9.06307108236633e+004,-2.68123767942429e+001,-2.27807646900082e+000

9.18958683997622e+004,-2.68124694364075e+001,-2.30985205970499e+000

9.31786869174758e+004,-2.68125646638778e+001,-2.34207016641044e+000

9.44794129143618e+004,-2.68126625482620e+001,-2.37473692262485e+000

9.57982963695136e+004,-2.68127631631224e+001,-2.40785854568809e+000

9.71355907516031e+004,-2.68128665840266e+001,-2.44144133787030e+000

9.84915530675926e+004,-2.68129728886005e+001,-2.47549168748358e+000

9.98664439121282e+004,-2.68130821565831e+001,-2.51001607000790e+000

1.01260527517622e+005,-2.68131944698811e+001,-2.54502104922770e+000

1.02674071805032e+005,-2.68133099126272e+001,-2.58051327838169e+000

1.04107348435354e+005,-2.68134285712372e+001,-2.61649950132720e+000

1.05560632861831e+005,-2.68135505344708e+001,-2.65298655371532e+000

1.07034204382888e+005,-2.68136758934922e+001,-2.68998136418180e+000

1.08528346195813e+005,-2.68138047419333e+001,-2.72749095554842e+000

1.10043345451179e+005,-2.68139371759574e+001,-2.76552244604019e+000

1.11579493308032e+005,-2.68140732943255e+001,-2.80408305051377e+000

1.13137084989847e+005,-2.68142131984637e+001,-2.84318008170064e+000

1.14716419841265e+005,-2.68143569925313e+001,-2.88282095146440e+000

1.16317801385624e+005,-2.68145047834925e+001,-2.92301317206889e+000

1.17941537383287e+005,-2.68146566811880e+001,-2.96376435746375e+000

1.19587939890794e+005,-2.68148127984089e+001,-3.00508222458057e+000

1.21257325320831e+005,-2.68149732509728e+001,-3.04697459464406e+000

1.22950014503040e+005,-2.68151381578009e+001,-3.08944939449766e+000

1.24666332745679e+005,-2.68153076409973e+001,-3.13251465794207e+000

1.26406609898139e+005,-2.68154818259298e+001,-3.17617852708835e+000

1.28171180414339e+005,-2.68156608413134e+001,-3.22044925372450e+000

1.29960383416997e+005,-2.68158448192945e+001,-3.26533520069667e+000

1.31774562762811e+005,-2.68160338955376e+001,-3.31084484330504e+000

1.33614067108538e+005,-2.68162282093146e+001,-3.35698677071207e+000

1.35479249978003e+005,-2.68164279035944e+001,-3.40376968736733e+000

1.37370469830040e+005,-2.68166331251366e+001,-3.45120241444466e+000

1.39288090127379e+005,-2.68168440245853e+001,-3.49929389129575e+000

1.41232479406504e+005,-2.68170607565668e+001,-3.54805317691590e+000

1.43204011348474e+005,-2.68172834797876e+001,-3.59748945142626e+000

1.45203064850745e+005,-2.68175123571359e+001,-3.64761201756964e+000

1.47230024099979e+005,-2.68177475557850e+001,-3.69843030222158e+000

1.49285278645888e+005,-2.68179892472983e+001,-3.74995385791475e+000

1.51369223476094e+005,-2.68182376077374e+001,-3.80219236438060e+000

1.53482259092041e+005,-2.68184928177719e+001,-3.85515563010341e+000

1.55624791585964e+005,-2.68187550627918e+001,-3.90885359389020e+000

1.57797232718936e+005,-2.68190245330219e+001,-3.96329632645590e+000

1.59999999999999e+005,-2.68193014236393e+001,-4.01849403202384e+000

1.62233516766403e+005,-2.68195859348925e+001,-4.07445704993987e+000

1.64498212264969e+005,-2.68198782722235e+001,-4.13119585630337e+000

1.66794521734578e+005,-2.68201786463920e+001,-4.18872106561291e+000

1.69122886489819e+005,-2.68204872736024e+001,-4.24704343242674e+000

1.71483754005805e+005,-2.68208043756337e+001,-4.30617385304003e+000

1.73877578004168e+005,-2.68211301799710e+001,-4.36612336717657e+000

1.76304818540256e+005,-2.68214649199402e+001,-4.42690315969710e+000

1.78765942091554e+005,-2.68218088348459e+001,-4.48852456232250e+000

1.81261421647326e+005,-2.68221621701110e+001,-4.55099905537376e+000

1.83791736799524e+005,-2.68225251774196e+001,-4.61433826952791e+000

1.86357373834951e+005,-2.68228981148626e+001,-4.67855398758998e+000

1.88958825828723e+005,-2.68232812470859e+001,-4.74365814628152e+000

1.91596592739027e+005,-2.68236748454420e+001,-4.80966283804564e+000

1.94271181503206e+005,-2.68240791881436e+001,-4.87658031286895e+000

1.96983106135185e+005,-2.68244945604209e+001,-4.94442298012091e+000

1.99732887824256e+005,-2.68249212546816e+001,-5.01320341040880e+000

2.02521055035243e+005,-2.68253595706737e+001,-5.08293433745242e+000

2.05348143610063e+005,-2.68258098156516e+001,-5.15362865997450e+000

2.08214696870707e+005,-2.68262723045454e+001,-5.22529944361004e+000

2.11121265723661e+005,-2.68267473601331e+001,-5.29795992283365e+000

2.14068408765776e+005,-2.68272353132157e+001,-5.37162350290521e+000

2.17056692391625e+005,-2.68277365027964e+001,-5.44630376183460e+000

2.20086690902357e+005,-2.68282512762626e+001,-5.52201445236573e+000

2.23158986616063e+005,-2.68287799895708e+001,-5.59876950397945e+000

2.26274169979693e+005,-2.68293230074360e+001,-5.67658302491675e+000

2.29432839682530e+005,-2.68298807035234e+001,-5.75546930422276e+000

2.32635602771247e+005,-2.68304534606446e+001,-5.83544281381032e+000

2.35883074766574e+005,-2.68310416709569e+001,-5.91651821054612e+000

2.39175879781588e+005,-2.68316457361667e+001,-5.99871033835672e+000

2.42514650641661e+005,-2.68322660677361e+001,-6.08203423035869e+000

2.45900029006080e+005,-2.68329030870937e+001,-6.16650511100955e+000

2.49332665491357e+005,-2.68335572258497e+001,-6.25213839828360e+000

2.52813219796278e+005,-2.68342289260146e+001,-6.33894970587001e+000

2.56342360828676e+005,-2.68349186402222e+001,-6.42695484539573e+000

2.59920766833993e+005,-2.68356268319569e+001,-6.51616982867393e+000

2.63549125525621e+005,-2.68363539757855e+001,-6.60661086997765e+000

2.67228134217075e+005,-2.68371005575934e+001,-6.69829438833890e+000

2.70958499956006e+005,-2.68378670748259e+001,-6.79123700987577e+000

2.74740939660078e+005,-2.68386540367337e+001,-6.88545557014649e+000

2.78576180254757e+005,-2.68394619646238e+001,-6.98096711653194e+000

2.82464958813007e+005,-2.68402913921160e+001,-7.07778891064696e+000

2.86408022696948e+005,-2.68411428654036e+001,-7.17593843078150e+000

2.90406129701488e+005,-2.68420169435211e+001,-7.27543337437219e+000

2.94460048199957e+005,-2.68429141986167e+001,-7.37629166050494e+000

2.98570557291775e+005,-2.68438352162312e+001,-7.47853143244945e+000

3.02738446952187e+005,-2.68447805955831e+001,-7.58217106022635e+000

3.06964518184081e+005,-2.68457509498603e+001,-7.68722914320744e+000

3.11249583171928e+005,-2.68467469065185e+001,-7.79372451275046e+000

3.15594465437872e+005,-2.68477691075869e+001,-7.90167623486782e+000

3.19999999999997e+005,-2.68488182099812e+001,-8.01110361293093e+000

3.24467033532806e+005,-2.68498948858243e+001,-8.12202619041078e+000

3.28996424529938e+005,-2.68509998227751e+001,-8.23446375365432e+000

3.33589043469155e+005,-2.68521337243660e+001,-8.34843633469837e+000

3.38245772979638e+005,-2.68532973103489e+001,-8.46396421412089e+000

3.42967508011610e+005,-2.68544913170511e+001,-8.58106792392967e+000

3.47755156008335e+005,-2.68557164977400e+001,-8.69976825048943e+000

3.52609637080511e+005,-2.68569736229989e+001,-8.82008623748746e+000

3.57531884183106e+005,-2.68582634811128e+001,-8.94204318893738e+000

3.62522843294651e+005,-2.68595868784657e+001,-9.06566067222088e+000

3.67583473599047e+005,-2.68609446399495e+001,-9.19096052116885e+000

3.72714747669902e+005,-2.68623376093851e+001,-9.31796483917931e+000

3.77917651657445e+005,-2.68637666499561e+001,-9.44669600237433e+000

3.83193185478053e+005,-2.68652326446564e+001,-9.57717666279182e+000

3.88542363006410e+005,-2.68667364967509e+001,-9.70942975161585e+000

3.93966212270369e+005,-2.68682791302520e+001,-9.84347848244074e+000

3.99465775648511e+005,-2.68698614904103e+001,-9.97934635456963e+000

4.05042110070485e+005,-2.68714845442218e+001,-1.01170571563456e+001

4.10696287220124e+005,-2.68731492809514e+001,-1.02566349685140e+001

4.16429393741414e+005,-2.68748567126743e+001,-1.03981041676137e+001

4.22242531447321e+005,-2.68766078748345e+001,-1.05414894293956e+001

4.28136817531551e+005,-2.68784038268230e+001,-1.06868157322650e+001

4.34113384783250e+005,-2.68802456525752e+001,-1.08341083607461e+001

4.40173381804713e+005,-2.68821344611881e+001,-1.09833929089660e+001

4.46317973232124e+005,-2.68840713875594e+001,-1.11346952841518e+001

4.52548339959385e+005,-2.68860575930473e+001,-1.12880417101420e+001

4.58865679365059e+005,-2.68880942661544e+001,-1.14434587309023e+001

4.65271205542494e+005,-2.68901826232331e+001,-1.16009732140478e+001

4.71766149533147e+005,-2.68923239092163e+001,-1.17606123543605e+001

4.78351759563174e+005,-2.68945193983729e+001,-1.19224036773009e+001

4.85029301283321e+005,-2.68967703950883e+001,-1.20863750425073e+001

4.91800058012158e+005,-2.68990782346715e+001,-1.22525546472759e+001

4.98665330982714e+005,-2.69014442841892e+001,-1.24209710300154e+001

5.05626439592555e+005,-2.69038699433278e+001,-1.25916530736707e+001

5.12684721657352e+005,-2.69063566452835e+001,-1.27646300091070e+001

5.19841533667984e+005,-2.69089058576813e+001,-1.29399314184464e+001

5.27098251051240e+005,-2.69115190835238e+001,-1.31175872383509e+001

5.34456268434150e+005,-2.69141978621703e+001,-1.32976277632403e+001

5.41916999912011e+005,-2.69169437703458e+001,-1.34800836484397e+001

