Freq.,VOut,OutRef

1.00000000000000e+004,-2.00609670238767e+001,-1.84443091287095e-001

1.01395947979003e+004,-2.00609677841539e+001,-1.87017781884348e-001

1.02811382665607e+004,-2.00609685658015e+001,-1.89628412166355e-001

1.04246576084112e+004,-2.00609693694198e+001,-1.92275483763129e-001

1.05701804056138e+004,-2.00609701956263e+001,-1.94959505302398e-001

1.07177346253629e+004,-2.00609710450560e+001,-1.97680992508883e-001

1.08673486252606e+004,-2.00609719183612e+001,-2.00440468306083e-001

1.10190511587661e+004,-2.00609728162130e+001,-2.03238462911824e-001

1.11728713807222e+004,-2.00609737393012e+001,-2.06075513940387e-001

1.13288388529580e+004,-2.00609746883349e+001,-2.08952166510398e-001

1.14869835499703e+004,-2.00609756640433e+001,-2.11868973343784e-001

1.16473358646846e+004,-2.00609766671759e+001,-2.14826494875381e-001

1.18099266142953e+004,-2.00609776985033e+001,-2.17825299359579e-001

1.19747870461893e+004,-2.00609787588179e+001,-2.20865962977528e-001

1.21419488439505e+004,-2.00609798489339e+001,-2.23949069950943e-001

1.23114441334492e+004,-2.00609809696889e+001,-2.27075212650386e-001

1.24833054890161e+004,-2.00609821219438e+001,-2.30244991711788e-001

1.26575659397028e+004,-2.00609833065838e+001,-2.33459016149911e-001

1.28342589756290e+004,-2.00609845245186e+001,-2.36717903476306e-001

1.30134185544193e+004,-2.00609857766837e+001,-2.40022279817976e-001

1.31950791077289e+004,-2.00609870640410e+001,-2.43372780033521e-001

1.33792755478611e+004,-2.00609883875792e+001,-2.46770047840034e-001

1.35660432744767e+004,-2.00609897483148e+001,-2.50214735935309e-001

1.37554181813974e+004,-2.00609911472929e+001,-2.53707506118933e-001

1.39474366635040e+004,-2.00609925855878e+001,-2.57249029424450e-001

1.41421356237309e+004,-2.00609940643041e+001,-2.60839986244911e-001

1.43395524801583e+004,-2.00609955845775e+001,-2.64481066462424e-001

1.45397251732031e+004,-2.00609971475753e+001,-2.68172969584467e-001

1.47426921729110e+004,-2.00609987544977e+001,-2.71916404872530e-001

1.49484924863494e+004,-2.00610004065788e+001,-2.75712091482121e-001

1.51571656651040e+004,-2.00610021050869e+001,-2.79560758598977e-001

1.53687518128801e+004,-2.00610038513264e+001,-2.83463145577183e-001

1.55832915932100e+004,-2.00610056466379e+001,-2.87420002084454e-001

1.58008262372675e+004,-2.00610074923998e+001,-2.91432088242618e-001

1.60213975517924e+004,-2.00610093900291e+001,-2.95500174773815e-001

1.62450479271247e+004,-2.00610113409828e+001,-2.99625043147863e-001

1.64718203453514e+004,-2.00610133467585e+001,-3.03807485733139e-001

1.67017583885674e+004,-2.00610154088961e+001,-3.08048305946566e-001

1.69349062472505e+004,-2.00610175289781e+001,-3.12348318409887e-001

1.71713087287550e+004,-2.00610197086323e+001,-3.16708349100212e-001

1.74110112659224e+004,-2.00610219495314e+001,-3.21129235515941e-001

1.76540599258131e+004,-2.00610242533956e+001,-3.25611826828493e-001

1.79005014185594e+004,-2.00610266219928e+001,-3.30156984051923e-001

1.81503831063432e+004,-2.00610290571409e+001,-3.34765580203687e-001

1.84037530124975e+004,-2.00610315607086e+001,-3.39438500471127e-001

1.86606598307361e+004,-2.00610341346172e+001,-3.44176642383266e-001

1.89211529345119e+004,-2.00610367808416e+001,-3.48980915980501e-001

1.91852823865052e+004,-2.00610395014123e+001,-3.53852243989821e-001

1.94530989482457e+004,-2.00610422984165e+001,-3.58791562000630e-001

1.97246540898671e+004,-2.00610451740004e+001,-3.63799818641285e-001

1.99999999999999e+004,-2.00610481303697e+001,-3.68877975765210e-001

2.02791895958005e+004,-2.00610511697924e+001,-3.74027008630161e-001

2.05622765331213e+004,-2.00610542946000e+001,-3.79247906085555e-001

2.08493152168224e+004,-2.00610575071893e+001,-3.84541670763937e-001

2.11403608112276e+004,-2.00610608100241e+001,-3.89909319268936e-001

2.14354692507258e+004,-2.00610642056376e+001,-3.95351882369919e-001

2.17346972505211e+004,-2.00610676966338e+001,-4.00870405200655e-001

2.20381023175322e+004,-2.00610712856896e+001,-4.06465947457438e-001

2.23457427614443e+004,-2.00610749755568e+001,-4.12139583601515e-001

2.26576777059159e+004,-2.00610787690647e+001,-4.17892403062713e-001

2.29739670999406e+004,-2.00610826691215e+001,-4.23725510448549e-001

2.32946717293690e+004,-2.00610866787168e+001,-4.29640025755999e-001

2.36198532285905e+004,-2.00610908009243e+001,-4.35637084581469e-001

2.39495740923785e+004,-2.00610950389033e+001,-4.41717838341385e-001

2.42838976879009e+004,-2.00610993959019e+001,-4.47883454486403e-001

2.46228882668982e+004,-2.00611038752590e+001,-4.54135116729852e-001

2.49666109780322e+004,-2.00611084804070e+001,-4.60474025268297e-001

2.53151318794055e+004,-2.00611132148741e+001,-4.66901397012289e-001

2.56685179512580e+004,-2.00611180822878e+001,-4.73418465816619e-001

2.60268371088386e+004,-2.00611230863767e+001,-4.80026482716511e-001

2.63901582154578e+004,-2.00611282309735e+001,-4.86726716165523e-001

2.67585510957221e+004,-2.00611335200187e+001,-4.93520452274540e-001

2.71320865489533e+004,-2.00611389575627e+001,-5.00408995058720e-001

2.75108363627948e+004,-2.00611445477690e+001,-5.07393666684829e-001

2.78948733270080e+004,-2.00611502949178e+001,-5.14475807721556e-001

2.82842712474618e+004,-2.00611562034089e+001,-5.21656777394129e-001

2.86791049603164e+004,-2.00611622777650e+001,-5.28937953843908e-001

2.90794503464061e+004,-2.00611685226352e+001,-5.36320734388286e-001

2.94853843458219e+004,-2.00611749427986e+001,-5.43806535785372e-001

2.98969849726987e+004,-2.00611815431678e+001,-5.51396794505395e-001

3.03143313302078e+004,-2.00611883287924e+001,-5.59092967000691e-001

3.07375036257601e+004,-2.00611953048635e+001,-5.66896529981601e-001

3.11665831864199e+004,-2.00612024767167e+001,-5.74808980697792e-001

3.16016524745350e+004,-2.00612098498368e+001,-5.82831837220362e-001

3.20427951035848e+004,-2.00612174298616e+001,-5.90966638730743e-001

3.24900958542493e+004,-2.00612252225864e+001,-5.99214945808907e-001

3.29436406907028e+004,-2.00612332339678e+001,-6.07578340733292e-001

3.34035167771346e+004,-2.00612414701290e+001,-6.16058427774909e-001

3.38698124945009e+004,-2.00612499373637e+001,-6.24656833504002e-001

3.43426174575100e+004,-2.00612586421412e+001,-6.33375207094962e-001

3.48220225318448e+004,-2.00612675911111e+001,-6.42215220639785e-001

3.53081198516260e+004,-2.00612767911083e+001,-6.51178569461406e-001

3.58010028371187e+004,-2.00612862491583e+001,-6.60266972434992e-001

3.63007662126863e+004,-2.00612959724820e+001,-6.69482172310841e-001

3.68075060249948e+004,-2.00613059685016e+001,-6.78825936044131e-001

3.73213196614721e+004,-2.00613162448459e+001,-6.88300055126105e-001

3.78423058690237e+004,-2.00613268093560e+001,-6.97906345921192e-001

3.83705647730104e+004,-2.00613376700913e+001,-7.07646650009507e-001

3.89061978964912e+004,-2.00613488353352e+001,-7.17522834533266e-001

3.94493081797342e+004,-2.00613603136016e+001,-7.27536792545386e-001

3.99999999999998e+004,-2.00613721136409e+001,-7.37690443368054e-001

4.05583791916010e+004,-2.00613842444470e+001,-7.47985732948769e-001

4.11245530662425e+004,-2.00613967152635e+001,-7.58424634229299e-001

4.16986304336447e+004,-2.00614095355907e+001,-7.69009147512385e-001

4.22807216224550e+004,-2.00614227151926e+001,-7.79741300837075e-001

4.28709385014515e+004,-2.00614362641044e+001,-7.90623150358652e-001

4.34693945010421e+004,-2.00614501926396e+001,-8.01656780732038e-001

4.40762046350642e+004,-2.00614645113977e+001,-8.12844305501570e-001

4.46914855228886e+004,-2.00614792312721e+001,-8.24187867495486e-001

4.53153554118317e+004,-2.00614943634581e+001,-8.35689639226749e-001

4.59479341998812e+004,-2.00615099194610e+001,-8.47351823294767e-001

4.65893434587380e+004,-2.00615259111048e+001,-8.59176652799299e-001

4.72397064571810e+004,-2.00615423505409e+001,-8.71166391752075e-001

4.78991481847569e+004,-2.00615592502564e+001,-8.83323335501214e-001

4.85677953758016e+004,-2.00615766230843e+001,-8.95649811153997e-001

4.92457765337964e+004,-2.00615944822118e+001,-9.08148178011642e-001

4.99332219560642e+004,-2.00616128411907e+001,-9.20820828003845e-001

5.06302637588109e+004,-2.00616317139470e+001,-9.33670186133577e-001

5.13370359025159e+004,-2.00616511147909e+001,-9.46698710924479e-001

5.20536742176771e+004,-2.00616710584275e+001,-9.59908894875605e-001

5.27803164309155e+004,-2.00616915599673e+001,-9.73303264921457e-001

5.35171021914442e+004,-2.00617126349371e+001,-9.86884382897212e-001

5.42641730979066e+004,-2.00617342992913e+001,-1.00065484601104e+000

5.50216727255895e+004,-2.00617565694235e+001,-1.01461728732194e+000

5.57897466540159e+004,-2.00617794621783e+001,-1.02877437622290e+000

5.65685424949235e+004,-2.00618029948633e+001,-1.04312881893077e+000

5.73582099206328e+004,-2.00618271852613e+001,-1.05768335898341e+000

5.81589006928121e+004,-2.00618520516438e+001,-1.07244077773991e+000

5.89707686916437e+004,-2.00618776127834e+001,-1.08740389488978e+000

5.97939699453972e+004,-2.00619038879674e+001,-1.10257556896848e+000

6.06286626604156e+004,-2.00619308970116e+001,-1.11795869787697e+000

6.14750072515201e+004,-2.00619586602743e+001,-1.13355621941005e+000

6.23331663728396e+004,-2.00619871986707e+001,-1.14937111179104e+000

6.32033049490698e+004,-2.00620165336880e+001,-1.16540639420981e+000

6.40855902071694e+004,-2.00620466874001e+001,-1.18166512737230e+000

6.49801917084985e+004,-2.00620776824834e+001,-1.19815041405386e+000

6.58872813814055e+004,-2.00621095422331e+001,-1.21486539965846e+000

6.68070335542691e+004,-2.00621422905785e+001,-1.23181327278663e+000

6.77396249890018e+004,-2.00621759521008e+001,-1.24899726580996e+000

6.86852349150199e+004,-2.00622105520499e+001,-1.26642065545075e+000

6.96440450636895e+004,-2.00622461163614e+001,-1.28408676337069e+000

7.06162397032520e+004,-2.00622826716753e+001,-1.30199895676593e+000

7.16020056742374e+004,-2.00623202453540e+001,-1.32016064896791e+000

7.26015324253724e+004,-2.00623588655013e+001,-1.33857530005262e+000

7.36150120499896e+004,-2.00623985609818e+001,-1.35724641745638e+000

7.46426393229441e+004,-2.00624393614401e+001,-1.37617755659982e+000

7.56846117380472e+004,-2.00624812973221e+001,-1.39537232151674e+000

7.67411295460207e+004,-2.00625243998941e+001,-1.41483436549399e+000

7.78123957929823e+004,-2.00625687012658e+001,-1.43456739171382e+000

7.88986163594682e+004,-2.00626142344104e+001,-1.45457515390800e+000

7.99999999999995e+004,-2.00626610331878e+001,-1.47486145701747e+000

8.11167583832018e+004,-2.00627091323669e+001,-1.49543015785807e+000

8.22491061324848e+004,-2.00627585676487e+001,-1.51628516579687e+000

8.33972608672892e+004,-2.00628093756899e+001,-1.53743044343432e+000

8.45614432449099e+004,-2.00628615941278e+001,-1.55887000729202e+000

8.57418770029029e+004,-2.00629152616045e+001,-1.58060792851288e+000

8.69387890020841e+004,-2.00629704177922e+001,-1.60264833356395e+000

8.81524092701283e+004,-2.00630271034196e+001,-1.62499540495064e+000

8.93829710457770e+004,-2.00630853602978e+001,-1.64765338193594e+000

9.06307108236633e+004,-2.00631452313477e+001,-1.67062656127003e+000

9.18958683997622e+004,-2.00632067606275e+001,-1.69391929792461e+000

9.31786869174758e+004,-2.00632699933609e+001,-1.71753600583777e+000

9.44794129143618e+004,-2.00633349759657e+001,-1.74148115866633e+000

9.57982963695136e+004,-2.00634017560835e+001,-1.76575929054313e+000

9.71355907516031e+004,-2.00634703826094e+001,-1.79037499684703e+000

9.84915530675926e+004,-2.00635409057229e+001,-1.81533293497606e+000

9.98664439121282e+004,-2.00636133769188e+001,-1.84063782513224e+000

1.01260527517622e+005,-2.00636878490392e+001,-1.86629445111249e+000

1.02674071805032e+005,-2.00637643763060e+001,-1.89230766110735e+000

1.04107348435354e+005,-2.00638430143536e+001,-1.91868236850907e+000

1.05560632861831e+005,-2.00639238202633e+001,-1.94542355272629e+000

1.07034204382888e+005,-2.00640068525971e+001,-1.97253626000752e+000

1.08528346195813e+005,-2.00640921714329e+001,-2.00002560427300e+000

1.10043345451179e+005,-2.00641798383999e+001,-2.02789676795453e+000

1.11579493308032e+005,-2.00642699167154e+001,-2.05615500284155e+000

1.13137084989847e+005,-2.00643624712210e+001,-2.08480563093907e+000

1.14716419841265e+005,-2.00644575684210e+001,-2.11385404532926e+000

1.16317801385624e+005,-2.00645552765197e+001,-2.14330571104547e+000

1.17941537383287e+005,-2.00646556654608e+001,-2.17316616595169e+000

1.19587939890794e+005,-2.00647588069668e+001,-2.20344102163030e+000

1.21257325320831e+005,-2.00648647745789e+001,-2.23413596427969e+000

1.22950014503040e+005,-2.00649736436980e+001,-2.26525675561852e+000

1.24666332745679e+005,-2.00650854916259e+001,-2.29680923379854e+000

1.26406609898139e+005,-2.00652003976071e+001,-2.32879931432592e+000

1.28171180414339e+005,-2.00653184428718e+001,-2.36123299099136e+000

1.29960383416997e+005,-2.00654397106787e+001,-2.39411633680670e+000

1.31774562762811e+005,-2.00655642863590e+001,-2.42745550495175e+000

1.33614067108538e+005,-2.00656922573605e+001,-2.46125672972873e+000

1.35479249978003e+005,-2.00658237132927e+001,-2.49552632752407e+000

1.37370469830040e+005,-2.00659587459723e+001,-2.53027069778124e+000

1.39288090127379e+005,-2.00660974494690e+001,-2.56549632397794e+000

1.41232479406504e+005,-2.00662399201522e+001,-2.60120977461621e+000

1.43204011348474e+005,-2.00663862567378e+001,-2.63741770421754e+000

1.45203064850745e+005,-2.00665365603358e+001,-2.67412685432852e+000

1.47230024099979e+005,-2.00666909344985e+001,-2.71134405453370e+000

1.49285278645888e+005,-2.00668494852683e+001,-2.74907622347936e+000

1.51369223476094e+005,-2.00670123212270e+001,-2.78733036990308e+000

1.53482259092041e+005,-2.00671795535447e+001,-2.82611359367409e+000

1.55624791585964e+005,-2.00673512960296e+001,-2.86543308684218e+000

1.57797232718936e+005,-2.00675276651774e+001,-2.90529613469568e+000

1.59999999999999e+005,-2.00677087802218e+001,-2.94571011682813e+000

1.62233516766403e+005,-2.00678947631846e+001,-2.98668250821442e+000

1.64498212264969e+005,-2.00680857389268e+001,-3.02822088029662e+000

1.66794521734578e+005,-2.00682818351987e+001,-3.07033290207931e+000

1.69122886489819e+005,-2.00684831826913e+001,-3.11302634123428e+000

1.71483754005805e+005,-2.00686899150874e+001,-3.15630906521544e+000

1.73877578004168e+005,-2.00689021691120e+001,-3.20018904238394e+000

1.76304818540256e+005,-2.00691200845843e+001,-3.24467434314352e+000

1.78765942091554e+005,-2.00693438044681e+001,-3.28977314108703e+000

1.81261421647326e+005,-2.00695734749229e+001,-3.33549371415203e+000

1.83791736799524e+005,-2.00698092453549e+001,-3.38184444579093e+000

1.86357373834951e+005,-2.00700512684674e+001,-3.42883382614882e+000

1.88958825828723e+005,-2.00702997003113e+001,-3.47647045325659e+000

1.91596592739027e+005,-2.00705547003351e+001,-3.52476303423413e+000

1.94271181503206e+005,-2.00708164314349e+001,-3.57372038650629e+000

1.96983106135185e+005,-2.00710850600031e+001,-3.62335143903462e+000

1.99732887824256e+005,-2.00713607559779e+001,-3.67366523355918e+000

2.02521055035243e+005,-2.00716436928910e+001,-3.72467092585689e+000

2.05348143610063e+005,-2.00719340479160e+001,-3.77637778701376e+000

2.08214696870707e+005,-2.00722320019145e+001,-3.82879520471329e+000

2.11121265723661e+005,-2.00725377394834e+001,-3.88193268453962e+000

2.14068408765776e+005,-2.00728514489997e+001,-3.93579985129916e+000

2.17056692391625e+005,-2.00731733226656e+001,-3.99040645035802e+000

2.20086690902357e+005,-2.00735035565524e+001,-4.04576234899832e+000

2.23158986616063e+005,-2.00738423506429e+001,-4.10187753779469e+000

2.26274169979693e+005,-2.00741899088737e+001,-4.15876213200964e+000

2.29432839682530e+005,-2.00745464391759e+001,-4.21642637300992e+000

2.32635602771247e+005,-2.00749121535146e+001,-4.27488062970601e+000

2.35883074766574e+005,-2.00752872679278e+001,-4.33413540001409e+000

2.39175879781588e+005,-2.00756720025633e+001,-4.39420131234111e+000

2.42514650641661e+005,-2.00760665817151e+001,-4.45508912709877e+000

2.45900029006080e+005,-2.00764712338582e+001,-4.51680973824021e+000

2.49332665491357e+005,-2.00768861916818e+001,-4.57937417482768e+000

2.52813219796278e+005,-2.00773116921219e+001,-4.64279360262817e+000

2.56342360828676e+005,-2.00777479763920e+001,-4.70707932574113e+000

2.59920766833993e+005,-2.00781952900127e+001,-4.77224278825774e+000

2.63549125525621e+005,-2.00786538828395e+001,-4.83829557595538e+000

2.67228134217075e+005,-2.00791240090902e+001,-4.90524941802667e+000

2.70958499956006e+005,-2.00796059273699e+001,-4.97311618884683e+000

2.74740939660078e+005,-2.00800999006959e+001,-5.04190790977993e+000

2.78576180254757e+005,-2.00806061965203e+001,-5.11163675102753e+000

2.82464958813007e+005,-2.00811250867518e+001,-5.18231503351861e+000

2.86408022696948e+005,-2.00816568477772e+001,-5.25395523084588e+000

2.90406129701488e+005,-2.00822017604803e+001,-5.32656997124906e+000

2.94460048199957e+005,-2.00827601102617e+001,-5.40017203964755e+000

2.98570557291775e+005,-2.00833321870566e+001,-5.47477437972361e+000

3.02738446952187e+005,-2.00839182853525e+001,-5.55039009606113e+000

3.06964518184081e+005,-2.00845187042061e+001,-5.62703245633801e+000

3.11249583171928e+005,-2.00851337472608e+001,-5.70471489357807e+000

3.15594465437872e+005,-2.00857637227632e+001,-5.78345100846361e+000

3.19999999999997e+005,-2.00864089435802e+001,-5.86325457171002e+000

3.24467033532806e+005,-2.00870697272167e+001,-5.94413952650552e+000

3.28996424529938e+005,-2.00877463958340e+001,-6.02611999101979e+000

3.33589043469155e+005,-2.00884392762689e+001,-6.10921026097960e+000

3.38245772979638e+005,-2.00891487000547e+001,-6.19342481232060e+000

3.42967508011610e+005,-2.00898750034435e+001,-6.27877830390961e+000

3.47755156008335e+005,-2.00906185274315e+001,-6.36528558034644e+000

3.52609637080511e+005,-2.00913796177855e+001,-6.45296167484363e+000

3.57531884183106e+005,-2.00921586250739e+001,-6.54182181218686e+000

3.62522843294651e+005,-2.00929559047007e+001,-6.63188141178003e+000

3.67583473599047e+005,-2.00937718169428e+001,-6.72315609077405e+000

3.72714747669902e+005,-2.00946067269935e+001,-6.81566166728321e+000

3.77917651657445e+005,-2.00954610050098e+001,-6.90941416369128e+000

3.83193185478053e+005,-2.00963350261663e+001,-7.00442981004650e+000

3.88542363006410e+005,-2.00972291707154e+001,-7.10072504755000e+000

3.93966212270369e+005,-2.00981438240545e+001,-7.19831653213659e+000

3.99465775648511e+005,-2.00990793768014e+001,-7.29722113814980e+000

4.05042110070485e+005,-2.01000362248780e+001,-7.39745596211293e+000

4.10696287220124e+005,-2.01010147696035e+001,-7.49903832659514e+000

4.16429393741414e+005,-2.01020154177980e+001,-7.60198578417446e+000

4.22242531447321e+005,-2.01030385818966e+001,-7.70631612149669e+000

4.28136817531551e+005,-2.01040846800761e+001,-7.81204736343113e+000

4.34113384783250e+005,-2.01051541363932e+001,-7.91919777732191e+000

4.40173381804713e+005,-2.01062473809382e+001,-8.02778587733427e+000

4.46317973232124e+005,-2.01073648500010e+001,-8.13783042889542e+000

4.52548339959385e+005,-2.01085069862541e+001,-8.24935045322766e+000

4.58865679365059e+005,-2.01096742389516e+001,-8.36236523197212e+000

4.65271205542494e+005,-2.01108670641450e+001,-8.47689431190170e+000

4.71766149533147e+005,-2.01120859249176e+001,-8.59295750971953e+000

4.78351759563174e+005,-2.01133312916382e+001,-8.71057491694163e+000

4.85029301283321e+005,-2.01146036422347e+001,-8.82976690485728e+000

4.91800058012158e+005,-2.01159034624884e+001,-8.95055412956741e+000

4.98665330982714e+005,-2.01172312463511e+001,-9.07295753709452e+000

5.05626439592555e+005,-2.01185874962839e+001,-9.19699836855829e+000

5.12684721657352e+005,-2.01199727236210e+001,-9.32269816541514e+000

5.19841533667984e+005,-2.01213874489567e+001,-9.45007877475355e+000

5.27098251051240e+005,-2.01228322025590e+001,-9.57916235464027e+000

5.34456268434150e+005,-2.01243075248084e+001,-9.70997137951107e+000

5.41916999912011e+005,-2.01258139666645e+001,-9.84252864560004e+000

