Freq.,VOut,OutRef

1.00000000000000e+004,-3.16624986776149e+001,-4.29255007153963e-001

1.01395947979003e+004,-3.16625018026581e+001,-4.35247086325373e-001

1.02811382665607e+004,-3.16625050155511e+001,-4.41322807668767e-001

1.04246576084112e+004,-3.16625083187635e+001,-4.47483338608946e-001

1.05701804056138e+004,-3.16625117148342e+001,-4.53729862860710e-001

1.07177346253629e+004,-3.16625152063731e+001,-4.60063580655605e-001

1.08673486252606e+004,-3.16625187960639e+001,-4.66485708970226e-001

1.10190511587661e+004,-3.16625224866655e+001,-4.72997481762822e-001

1.11728713807222e+004,-3.16625262810143e+001,-4.79600150206887e-001

1.13288388529580e+004,-3.16625301820265e+001,-4.86294982934184e-001

1.14869835499703e+004,-3.16625341927003e+001,-4.93083266273701e-001

1.16473358646846e+004,-3.16625383161180e+001,-4.99966304503352e-001

1.18099266142953e+004,-3.16625425554486e+001,-5.06945420096797e-001

1.19747870461893e+004,-3.16625469139503e+001,-5.14021953977300e-001

1.21419488439505e+004,-3.16625513949727e+001,-5.21197265776307e-001

1.23114441334492e+004,-3.16625560019593e+001,-5.28472734093579e-001

1.24833054890161e+004,-3.16625607384509e+001,-5.35849756759480e-001

1.26575659397028e+004,-3.16625656080876e+001,-5.43329751105686e-001

1.28342589756290e+004,-3.16625706146113e+001,-5.50914154236578e-001

1.30134185544193e+004,-3.16625757618698e+001,-5.58604423302096e-001

1.31950791077289e+004,-3.16625810538186e+001,-5.66402035779697e-001

1.33792755478611e+004,-3.16625864945244e+001,-5.74308489756433e-001

1.35660432744767e+004,-3.16625920881683e+001,-5.82325304215699e-001

1.37554181813974e+004,-3.16625978390485e+001,-5.90454019330013e-001

1.39474366635040e+004,-3.16626037515845e+001,-5.98696196753201e-001

1.41421356237309e+004,-3.16626098303195e+001,-6.07053419922101e-001

1.43395524801583e+004,-3.16626160799249e+001,-6.15527294357902e-001

1.45397251732031e+004,-3.16626225052027e+001,-6.24119447975934e-001

1.47426921729110e+004,-3.16626291110903e+001,-6.32831531395604e-001

1.49484924863494e+004,-3.16626359026636e+001,-6.41665218256349e-001

1.51571656651040e+004,-3.16626428851413e+001,-6.50622205539902e-001

1.53687518128801e+004,-3.16626500638884e+001,-6.59704213893232e-001

1.55832915932100e+004,-3.16626574444209e+001,-6.68912987959997e-001

1.58008262372675e+004,-3.16626650324096e+001,-6.78250296711338e-001

1.60213975517924e+004,-3.16626728336848e+001,-6.87717933788047e-001

1.62450479271247e+004,-3.16626808542404e+001,-6.97317717841496e-001

1.64718203453514e+004,-3.16626891002387e+001,-7.07051492882294e-001

1.67017583885674e+004,-3.16626975780152e+001,-7.16921128633479e-001

1.69349062472505e+004,-3.16627062940833e+001,-7.26928520887666e-001

1.71713087287550e+004,-3.16627152551394e+001,-7.37075591869025e-001

1.74110112659224e+004,-3.16627244680679e+001,-7.47364290603356e-001

1.76540599258131e+004,-3.16627339399467e+001,-7.57796593287278e-001

1.79005014185594e+004,-3.16627436780524e+001,-7.68374503669826e-001

1.81503831063432e+004,-3.16627536898662e+001,-7.79100053432066e-001

1.84037530124975e+004,-3.16627639830789e+001,-7.89975302577928e-001

1.86606598307361e+004,-3.16627745655980e+001,-8.01002339825932e-001

1.89211529345119e+004,-3.16627854455524e+001,-8.12183283011263e-001

1.91852823865052e+004,-3.16627966312999e+001,-8.23520279486531e-001

1.94530989482457e+004,-3.16628081314324e+001,-8.35015506534852e-001

1.97246540898671e+004,-3.16628199547837e+001,-8.46671171784859e-001

1.99999999999999e+004,-3.16628321104351e+001,-8.58489513631474e-001

2.02791895958005e+004,-3.16628446077234e+001,-8.70472801663918e-001

2.05622765331213e+004,-3.16628574562471e+001,-8.82623337100347e-001

2.08493152168224e+004,-3.16628706658746e+001,-8.94943453223912e-001

2.11403608112276e+004,-3.16628842467512e+001,-9.07435515830167e-001

2.14354692507258e+004,-3.16628982093070e+001,-9.20101923679077e-001

2.17346972505211e+004,-3.16629125642651e+001,-9.32945108949609e-001

2.20381023175322e+004,-3.16629273226494e+001,-9.45967537706158e-001

2.23457427614443e+004,-3.16629424957935e+001,-9.59171710368810e-001

2.26576777059159e+004,-3.16629580953490e+001,-9.72560162187369e-001

2.29739670999406e+004,-3.16629741332947e+001,-9.86135463727155e-001

2.32946717293690e+004,-3.16629906219455e+001,-9.99900221357027e-001

2.36198532285905e+004,-3.16630075739621e+001,-1.01385707774704e+000

2.39495740923785e+004,-3.16630250023604e+001,-1.02800871237101e+000

2.42838976879009e+004,-3.16630429205217e+001,-1.04235784201681e+000

2.46228882668982e+004,-3.16630613422030e+001,-1.05690722130260e+000

2.49666109780322e+004,-3.16630802815468e+001,-1.07165964320326e+000

2.53151318794055e+004,-3.16630997530931e+001,-1.08661793957886e+000

2.56685179512580e+004,-3.16631197717896e+001,-1.10178498171480e+000

2.60268371088386e+004,-3.16631403530034e+001,-1.11716368086706e+000

2.63901582154578e+004,-3.16631615125328e+001,-1.13275698881634e+000

2.67585510957221e+004,-3.16631832666192e+001,-1.14856789842841e+000

2.71320865489533e+004,-3.16632056319600e+001,-1.16459944422081e+000

2.75108363627948e+004,-3.16632286257206e+001,-1.18085470294278e+000

2.78948733270080e+004,-3.16632522655481e+001,-1.19733679415541e+000

2.82842712474618e+004,-3.16632765695845e+001,-1.21404888082599e+000

2.86791049603164e+004,-3.16633015564806e+001,-1.23099416992658e+000

2.90794503464061e+004,-3.16633272454104e+001,-1.24817591304311e+000

2.94853843458219e+004,-3.16633536560854e+001,-1.26559740699024e+000

2.98969849726987e+004,-3.16633808087700e+001,-1.28326199443802e+000

3.03143313302078e+004,-3.16634087242967e+001,-1.30117306454226e+000

3.07375036257601e+004,-3.16634374240821e+001,-1.31933405358855e+000

3.11665831864199e+004,-3.16634669301432e+001,-1.33774844564100e+000

3.16016524745350e+004,-3.16634972651143e+001,-1.35641977320095e+000

3.20427951035848e+004,-3.16635284522640e+001,-1.37535161787658e+000

3.24900958542493e+004,-3.16635605155130e+001,-1.39454761105757e+000

3.29436406907028e+004,-3.16635934794525e+001,-1.41401143460260e+000

3.34035167771346e+004,-3.16636273693630e+001,-1.43374682153298e+000

3.38698124945009e+004,-3.16636622112330e+001,-1.45375755673813e+000

3.43426174575100e+004,-3.16636980317796e+001,-1.47404747768898e+000

3.48220225318448e+004,-3.16637348584678e+001,-1.49462047516141e+000

3.53081198516260e+004,-3.16637727195324e+001,-1.51548049396839e+000

3.58010028371187e+004,-3.16638116439991e+001,-1.53663153370398e+000

3.63007662126863e+004,-3.16638516617060e+001,-1.55807764949510e+000

3.68075060249948e+004,-3.16638928033274e+001,-1.57982295276454e+000

3.73213196614721e+004,-3.16639351003961e+001,-1.60187161200309e+000

3.78423058690237e+004,-3.16639785853278e+001,-1.62422785355312e+000

3.83705647730104e+004,-3.16640232914459e+001,-1.64689596240159e+000

3.89061978964912e+004,-3.16640692530060e+001,-1.66988028298395e+000

3.94493081797342e+004,-3.16641165052232e+001,-1.69318521999798e+000

3.99999999999998e+004,-3.16641650842973e+001,-1.71681523923024e+000

4.05583791916010e+004,-3.16642150274415e+001,-1.74077486838999e+000

4.11245530662425e+004,-3.16642663729098e+001,-1.76506869795842e+000

4.16986304336447e+004,-3.16643191600265e+001,-1.78970138204410e+000

4.22807216224550e+004,-3.16643734292155e+001,-1.81467763925504e+000

4.28709385014515e+004,-3.16644292220315e+001,-1.84000225357631e+000

4.34693945010421e+004,-3.16644865811908e+001,-1.86568007526415e+000

4.40762046350642e+004,-3.16645455506038e+001,-1.89171602174909e+000

4.46914855228886e+004,-3.16646061754087e+001,-1.91811507855062e+000

4.53153554118317e+004,-3.16646685020048e+001,-1.94488230020494e+000

4.59479341998812e+004,-3.16647325780882e+001,-1.97202281120382e+000

4.65893434587380e+004,-3.16647984526874e+001,-1.99954180694605e+000

4.72397064571810e+004,-3.16648661762004e+001,-2.02744455470104e+000

4.78991481847569e+004,-3.16649358004329e+001,-2.05573639458380e+000

4.85677953758016e+004,-3.16650073786370e+001,-2.08442274054391e+000

4.92457765337964e+004,-3.16650809655516e+001,-2.11350908136673e+000

4.99332219560642e+004,-3.16651566174433e+001,-2.14300098168627e+000

5.06302637588109e+004,-3.16652343921493e+001,-2.17290408301164e+000

5.13370359025159e+004,-3.16653143491201e+001,-2.20322410476725e+000

5.20536742176771e+004,-3.16653965494648e+001,-2.23396684534474e+000

5.27803164309155e+004,-3.16654810559969e+001,-2.26513818316896e+000

5.35171021914442e+004,-3.16655679332810e+001,-2.29674407777739e+000

5.42641730979066e+004,-3.16656572476818e+001,-2.32879057091269e+000

5.50216727255895e+004,-3.16657490674134e+001,-2.36128378762840e+000

5.57897466540159e+004,-3.16658434625907e+001,-2.39422993741039e+000

5.65685424949235e+004,-3.16659405052818e+001,-2.42763531530877e+000

5.73582099206328e+004,-3.16660402695615e+001,-2.46150630308768e+000

5.81589006928121e+004,-3.16661428315675e+001,-2.49584937038564e+000

5.89707686916437e+004,-3.16662482695563e+001,-2.53067107589314e+000

5.97939699453972e+004,-3.16663566639622e+001,-2.56597806854227e+000

6.06286626604156e+004,-3.16664680974572e+001,-2.60177708871151e+000

6.14750072515201e+004,-3.16665826550122e+001,-2.63807496944626e+000

6.23331663728396e+004,-3.16667004239607e+001,-2.67487863769235e+000

6.32033049490698e+004,-3.16668214940635e+001,-2.71219511554505e+000

6.40855902071694e+004,-3.16669459575753e+001,-2.75003152151359e+000

6.49801917084985e+004,-3.16670739093133e+001,-2.78839507179909e+000

6.58872813814055e+004,-3.16672054467276e+001,-2.82729308158980e+000

6.68070335542691e+004,-3.16673406699730e+001,-2.86673296636920e+000

6.77396249890018e+004,-3.16674796819836e+001,-2.90672224324181e+000

6.86852349150199e+004,-3.16676225885483e+001,-2.94726853227208e+000

6.96440450636895e+004,-3.16677694983895e+001,-2.98837955784064e+000

7.06162397032520e+004,-3.16679205232430e+001,-3.03006315001475e+000

7.16020056742374e+004,-3.16680757779401e+001,-3.07232724593611e+000

7.26015324253724e+004,-3.16682353804924e+001,-3.11517989122212e+000

7.36150120499896e+004,-3.16683994521785e+001,-3.15862924138528e+000

7.46426393229441e+004,-3.16685681176328e+001,-3.20268356326696e+000

7.56846117380472e+004,-3.16687415049370e+001,-3.24735123648818e+000

7.67411295460207e+004,-3.16689197457142e+001,-3.29264075491485e+000

7.78123957929823e+004,-3.16691029752243e+001,-3.33856072814214e+000

7.88986163594682e+004,-3.16692913324636e+001,-3.38511988299133e+000

7.99999999999995e+004,-3.16694849602656e+001,-3.43232706502569e+000

8.11167583832018e+004,-3.16696840054053e+001,-3.48019124008099e+000

8.22491061324848e+004,-3.16698886187057e+001,-3.52872149581342e+000

8.33972608672892e+004,-3.16700989551473e+001,-3.57792704326344e+000

8.45614432449099e+004,-3.16703151739805e+001,-3.62781721843538e+000

8.57418770029029e+004,-3.16705374388409e+001,-3.67840148389449e+000

8.69387890020841e+004,-3.16707659178671e+001,-3.72968943037984e+000

8.81524092701283e+004,-3.16710007838223e+001,-3.78169077843322e+000

8.93829710457770e+004,-3.16712422142186e+001,-3.83441538004552e+000

9.06307108236633e+004,-3.16714903914447e+001,-3.88787322031859e+000

9.18958683997622e+004,-3.16717455028962e+001,-3.94207441914339e+000

9.31786869174758e+004,-3.16720077411103e+001,-3.99702923289602e+000

9.44794129143618e+004,-3.16722773039032e+001,-4.05274805614748e+000

9.57982963695136e+004,-3.16725543945111e+001,-4.10924142339205e+000

9.71355907516031e+004,-3.16728392217349e+001,-4.16652001079108e+000

9.84915530675926e+004,-3.16731320000881e+001,-4.22459463793237e+000

9.98664439121282e+004,-3.16734329499498e+001,-4.28347626960631e+000

1.01260527517622e+005,-3.16737422977195e+001,-4.34317601759786e+000

1.02674071805032e+005,-3.16740602759773e+001,-4.40370514249403e+000

1.04107348435354e+005,-3.16743871236477e+001,-4.46507505550832e+000

1.05560632861831e+005,-3.16747230861672e+001,-4.52729732031943e+000

1.07034204382888e+005,-3.16750684156560e+001,-4.59038365492601e+000

1.08528346195813e+005,-3.16754233710950e+001,-4.65434593351714e+000

1.10043345451179e+005,-3.16757882185055e+001,-4.71919618835768e+000

1.11579493308032e+005,-3.16761632311344e+001,-4.78494661168933e+000

1.13137084989847e+005,-3.16765486896439e+001,-4.85160955764526e+000

1.14716419841265e+005,-3.16769448823052e+001,-4.91919754418113e+000

1.16317801385624e+005,-3.16773521051978e+001,-4.98772325501868e+000

1.17941537383287e+005,-3.16777706624125e+001,-5.05719954160585e+000

1.19587939890794e+005,-3.16782008662600e+001,-5.12763942508871e+000

1.21257325320831e+005,-3.16786430374850e+001,-5.19905609829842e+000

1.22950014503040e+005,-3.16790975054836e+001,-5.27146292775176e+000

1.24666332745679e+005,-3.16795646085283e+001,-5.34487345566337e+000

1.26406609898139e+005,-3.16800446939959e+001,-5.41930140197335e+000

1.28171180414339e+005,-3.16805381186030e+001,-5.49476066638521e+000

1.29960383416997e+005,-3.16810452486448e+001,-5.57126533041701e+000

1.31774562762811e+005,-3.16815664602416e+001,-5.64882965946412e+000

1.33614067108538e+005,-3.16821021395891e+001,-5.72746810487429e+000

1.35479249978003e+005,-3.16826526832162e+001,-5.80719530603202e+000

1.37370469830040e+005,-3.16832184982473e+001,-5.88802609245562e+000

1.39288090127379e+005,-3.16838000026715e+001,-5.96997548590363e+000

1.41232479406504e+005,-3.16843976256172e+001,-6.05305870249055e+000

1.43204011348474e+005,-3.16850118076340e+001,-6.13729115481260e+000

1.45203064850745e+005,-3.16856430009794e+001,-6.22268845408253e+000

1.47230024099979e+005,-3.16862916699134e+001,-6.30926641227241e+000

1.49285278645888e+005,-3.16869582909986e+001,-6.39704104426390e+000

1.51369223476094e+005,-3.16876433534073e+001,-6.48602857000645e+000

1.53482259092041e+005,-3.16883473592356e+001,-6.57624541668232e+000

1.55624791585964e+005,-3.16890708238238e+001,-6.66770822087705e+000

1.57797232718936e+005,-3.16898142760842e+001,-6.76043383075586e+000

1.59999999999999e+005,-3.16905782588355e+001,-6.85443930824519e+000

1.62233516766403e+005,-3.16913633291452e+001,-6.94974193121815e+000

1.64498212264969e+005,-3.16921700586782e+001,-7.04635919568409e+000

1.66794521734578e+005,-3.16929990340532e+001,-7.14430881798046e+000

1.69122886489819e+005,-3.16938508572073e+001,-7.24360873696737e+000

1.71483754005805e+005,-3.16947261457667e+001,-7.34427711622365e+000

1.73877578004168e+005,-3.16956255334267e+001,-7.44633234624398e+000

1.76304818540256e+005,-3.16965496703379e+001,-7.54979304663516e+000

1.78765942091554e+005,-3.16974992235019e+001,-7.65467806831261e+000

1.81261421647326e+005,-3.16984748771734e+001,-7.76100649569515e+000

1.83791736799524e+005,-3.16994773332719e+001,-7.86879764889723e+000

1.86357373834951e+005,-3.17005073118001e+001,-7.97807108591839e+000

1.88958825828723e+005,-3.17015655512721e+001,-8.08884660482818e+000

1.91596592739027e+005,-3.17026528091489e+001,-8.20114424594681e+000

1.94271181503206e+005,-3.17037698622828e+001,-8.31498429402035e+000

1.96983106135185e+005,-3.17049175073704e+001,-8.43038728038820e+000

1.99732887824256e+005,-3.17060965614143e+001,-8.54737398514474e+000

2.02521055035243e+005,-3.17073078621935e+001,-8.66596543929123e+000

2.05348143610063e+005,-3.17085522687433e+001,-8.78618292687899e+000

2.08214696870707e+005,-3.17098306618428e+001,-8.90804798714241e+000

2.11121265723661e+005,-3.17111439445134e+001,-9.03158241662079e+000

2.14068408765776e+005,-3.17124930425249e+001,-9.15680827126767e+000

2.17056692391625e+005,-3.17138789049120e+001,-9.28374786854748e+000

2.20086690902357e+005,-3.17153025044993e+001,-9.41242378951781e+000

2.23158986616063e+005,-3.17167648384370e+001,-9.54285888089651e+000

2.26274169979693e+005,-3.17182669287453e+001,-9.67507625711328e+000

2.29432839682530e+005,-3.17198098228685e+001,-9.80909930234289e+000

2.32635602771247e+005,-3.17213945942400e+001,-9.94495167252170e+000

2.35883074766574e+005,-3.17230223428560e+001,-1.00826572973438e+001

2.39175879781588e+005,-3.17246941958606e+001,-1.02222403822372e+001

2.42514650641661e+005,-3.17264113081397e+001,-1.03637254103185e+001

2.45900029006080e+005,-3.17281748629264e+001,-1.05071371443262e+001

2.49332665491357e+005,-3.17299860724168e+001,-1.06525006285282e+001

2.52813219796278e+005,-3.17318461783955e+001,-1.07998411906063e+001

2.56342360828676e+005,-3.17337564528730e+001,-1.09491844435146e+001

2.59920766833993e+005,-3.17357181987331e+001,-1.11005562873099e+001

2.63549125525621e+005,-3.17377327503925e+001,-1.12539829109549e+001

2.67228134217075e+005,-3.17398014744700e+001,-1.14094907940913e+001

2.70958499956006e+005,-3.17419257704688e+001,-1.15671067087818e+001

2.74740939660078e+005,-3.17441070714692e+001,-1.17268577212205e+001

2.78576180254757e+005,-3.17463468448338e+001,-1.18887711934102e+001

2.82464958813007e+005,-3.17486465929240e+001,-1.20528747848028e+001

2.86408022696948e+005,-3.17510078538295e+001,-1.22191964539063e+001

2.90406129701488e+005,-3.17534322021094e+001,-1.23877644598513e+001

2.94460048199957e+005,-3.17559212495464e+001,-1.25586073639191e+001

2.98570557291775e+005,-3.17584766459139e+001,-1.27317540310290e+001

3.02738446952187e+005,-3.17611000797559e+001,-1.29072336311815e+001

3.06964518184081e+005,-3.17637932791804e+001,-1.30850756408576e+001

3.11249583171928e+005,-3.17665580126669e+001,-1.32653098443712e+001

3.15594465437872e+005,-3.17693960898874e+001,-1.34479663351716e+001

3.19999999999997e+005,-3.17723093625413e+001,-1.36330755170962e+001

3.24467033532806e+005,-3.17752997252062e+001,-1.38206681055694e+001

3.28996424529938e+005,-3.17783691162025e+001,-1.40107751287437e+001

3.33589043469155e+005,-3.17815195184735e+001,-1.42034279285850e+001

3.38245772979638e+005,-3.17847529604813e+001,-1.43986581618937e+001

3.42967508011610e+005,-3.17880715171191e+001,-1.45964978012622e+001

3.47755156008335e+005,-3.17914773106389e+001,-1.47969791359640e+001

3.52609637080511e+005,-3.17949725115972e+001,-1.50001347727711e+001

3.57531884183106e+005,-3.17985593398171e+001,-1.52059976366956e+001

3.62522843294651e+005,-3.18022400653683e+001,-1.54146009716525e+001

3.67583473599047e+005,-3.18060170095653e+001,-1.56259783410366e+001

3.72714747669902e+005,-3.18098925459838e+001,-1.58401636282131e+001

3.77917651657445e+005,-3.18138691014966e+001,-1.60571910369118e+001

3.83193185478053e+005,-3.18179491573281e+001,-1.62770950915233e+001

3.88542363006410e+005,-3.18221352501294e+001,-1.64999106372899e+001

3.93966212270369e+005,-3.18264299730729e+001,-1.67256728403848e+001

3.99465775648511e+005,-3.18308359769685e+001,-1.69544171878725e+001

4.05042110070485e+005,-3.18353559713999e+001,-1.71861794875458e+001

4.10696287220124e+005,-3.18399927258832e+001,-1.74209958676273e+001

4.16429393741414e+005,-3.18447490710467e+001,-1.76589027763333e+001

4.22242531447321e+005,-3.18496278998334e+001,-1.78999369812850e+001

4.28136817531551e+005,-3.18546321687260e+001,-1.81441355687634e+001

4.34113384783250e+005,-3.18597648989945e+001,-1.83915359427954e+001

4.40173381804713e+005,-3.18650291779668e+001,-1.86421758240608e+001

4.46317973232124e+005,-3.18704281603228e+001,-1.88960932486118e+001

4.52548339959385e+005,-3.18759650694120e+001,-1.91533265663907e+001

4.58865679365059e+005,-3.18816431985938e+001,-1.94139144395365e+001

4.65271205542494e+005,-3.18874659126025e+001,-1.96778958404661e+001

4.71766149533147e+005,-3.18934366489341e+001,-1.99453100497187e+001

4.78351759563174e+005,-3.18995589192578e+001,-2.02161966535477e+001

4.85029301283321e+005,-3.19058363108493e+001,-2.04905955412493e+001

4.91800058012158e+005,-3.19122724880471e+001,-2.07685469022091e+001

4.98665330982714e+005,-3.19188711937311e+001,-2.10500912226548e+001

5.05626439592555e+005,-3.19256362508217e+001,-2.13352692820973e+001

5.12684721657352e+005,-3.19325715638005e+001,-2.16241221494451e+001

5.19841533667984e+005,-3.19396811202504e+001,-2.19166911787751e+001

5.27098251051240e+005,-3.19469689924142e+001,-2.22130180047425e+001

5.34456268434150e+005,-3.19544393387705e+001,-2.25131445376120e+001

5.41916999912011e+005,-3.19620964056268e+001,-2.28171129578943e+001

