Freq.,VOut,OutRef

1.00000000000000e+004,-1.26827898455036e+001,-1.47342021448861e-001

1.01395947979003e+004,-1.26827900491731e+001,-1.49398821603389e-001

1.02811382665607e+004,-1.26827902585666e+001,-1.51484332861564e-001

1.04246576084112e+004,-1.26827904738448e+001,-1.53598955983528e-001

1.05701804056138e+004,-1.26827906951732e+001,-1.55743097321816e-001

1.07177346253629e+004,-1.26827909227215e+001,-1.57917168901528e-001

1.08673486252606e+004,-1.26827911566644e+001,-1.60121588496602e-001

1.10190511587661e+004,-1.26827913971820e+001,-1.62356779710280e-001

1.11728713807222e+004,-1.26827916444586e+001,-1.64623172060377e-001

1.13288388529580e+004,-1.26827918986841e+001,-1.66921201056591e-001

1.14869835499703e+004,-1.26827921600537e+001,-1.69251308287723e-001

1.16473358646846e+004,-1.26827924287683e+001,-1.71613941503393e-001

1.18099266142953e+004,-1.26827927050339e+001,-1.74009554703783e-001

1.19747870461893e+004,-1.26827929890628e+001,-1.76438608222878e-001

1.21419488439505e+004,-1.26827932810728e+001,-1.78901568820675e-001

1.23114441334492e+004,-1.26827935812885e+001,-1.81398909767605e-001

1.24833054890161e+004,-1.26827938899399e+001,-1.83931110942297e-001

1.26575659397028e+004,-1.26827942072641e+001,-1.86498658916420e-001

1.28342589756290e+004,-1.26827945335047e+001,-1.89102047053594e-001

1.30134185544193e+004,-1.26827948689121e+001,-1.91741775601090e-001

1.31950791077289e+004,-1.26827952137435e+001,-1.94418351788440e-001

1.33792755478611e+004,-1.26827955682640e+001,-1.97132289919853e-001

1.35660432744767e+004,-1.26827959327453e+001,-1.99884111478562e-001

1.37554181813974e+004,-1.26827963074671e+001,-2.02674345224088e-001

1.39474366635040e+004,-1.26827966927170e+001,-2.05503527294389e-001

1.41421356237309e+004,-1.26827970887907e+001,-2.08372201306149e-001

1.43395524801583e+004,-1.26827974959920e+001,-2.11280918463584e-001

1.45397251732031e+004,-1.26827979146334e+001,-2.14230237660729e-001

1.47426921729110e+004,-1.26827983450360e+001,-2.17220725591161e-001

1.49484924863494e+004,-1.26827987875298e+001,-2.20252956854032e-001

1.51571656651040e+004,-1.26827992424545e+001,-2.23327514065590e-001

1.53687518128801e+004,-1.26827997101589e+001,-2.26444987971613e-001

1.55832915932100e+004,-1.26828001910018e+001,-2.29605977558853e-001

1.58008262372675e+004,-1.26828006853520e+001,-2.32811090172775e-001

1.60213975517924e+004,-1.26828011935884e+001,-2.36060941631969e-001

1.62450479271247e+004,-1.26828017161010e+001,-2.39356156344660e-001

1.64718203453514e+004,-1.26828022532902e+001,-2.42697367432867e-001

1.67017583885674e+004,-1.26828028055680e+001,-2.46085216849835e-001

1.69349062472505e+004,-1.26828033733579e+001,-2.49520355504745e-001

1.71713087287550e+004,-1.26828039570949e+001,-2.53003443388443e-001

1.74110112659224e+004,-1.26828045572268e+001,-2.56535149696174e-001

1.76540599258131e+004,-1.26828051742133e+001,-2.60116152962004e-001

1.79005014185594e+004,-1.26828058085274e+001,-2.63747141181716e-001

1.81503831063432e+004,-1.26828064606552e+001,-2.67428811951721e-001

1.84037530124975e+004,-1.26828071310963e+001,-2.71161872596819e-001

1.86606598307361e+004,-1.26828078203645e+001,-2.74947040309848e-001

1.89211529345119e+004,-1.26828085289879e+001,-2.78785042285914e-001

1.91852823865052e+004,-1.26828092575094e+001,-2.82676615864213e-001

1.94530989482457e+004,-1.26828100064869e+001,-2.86622508668857e-001

1.97246540898671e+004,-1.26828107764940e+001,-2.90623478750953e-001

1.99999999999999e+004,-1.26828115681205e+001,-2.94680294734166e-001

2.02791895958005e+004,-1.26828123819725e+001,-2.98793735962731e-001

2.05622765331213e+004,-1.26828132186732e+001,-3.02964592650007e-001

2.08493152168224e+004,-1.26828140788631e+001,-3.07193666029250e-001

2.11403608112276e+004,-1.26828149632008e+001,-3.11481768508226e-001

2.14354692507258e+004,-1.26828158723630e+001,-3.15829723824314e-001

2.17346972505211e+004,-1.26828168070455e+001,-3.20238367201970e-001

2.20381023175322e+004,-1.26828177679635e+001,-3.24708545512797e-001

2.23457427614443e+004,-1.26828187558524e+001,-3.29241117436084e-001

2.26576777059159e+004,-1.26828197714677e+001,-3.33836953627191e-001

2.29739670999406e+004,-1.26828208155863e+001,-3.38496936879134e-001

2.32946717293690e+004,-1.26828218890065e+001,-3.43221962295468e-001

2.36198532285905e+004,-1.26828229925494e+001,-3.48012937457568e-001

2.39495740923785e+004,-1.26828241270587e+001,-3.52870782602414e-001

2.42838976879009e+004,-1.26828252934015e+001,-3.57796430795733e-001

2.46228882668982e+004,-1.26828264924693e+001,-3.62790828111867e-001

2.49666109780322e+004,-1.26828277251784e+001,-3.67854933813757e-001

2.53151318794055e+004,-1.26828289924708e+001,-3.72989720535541e-001

2.56685179512580e+004,-1.26828302953142e+001,-3.78196174472077e-001

2.60268371088386e+004,-1.26828316347042e+001,-3.83475295561247e-001

2.63901582154578e+004,-1.26828330116633e+001,-3.88828097681525e-001

2.67585510957221e+004,-1.26828344272428e+001,-3.94255608841785e-001

2.71320865489533e+004,-1.26828358825235e+001,-3.99758871377152e-001

2.75108363627948e+004,-1.26828373786158e+001,-4.05338942151750e-001

2.78948733270080e+004,-1.26828389166615e+001,-4.10996892756029e-001

2.82842712474618e+004,-1.26828404978338e+001,-4.16733809714653e-001

2.86791049603164e+004,-1.26828421233388e+001,-4.22550794692879e-001

2.90794503464061e+004,-1.26828437944160e+001,-4.28448964705126e-001

2.94853843458219e+004,-1.26828455123392e+001,-4.34429452331387e-001

2.98969849726987e+004,-1.26828472784180e+001,-4.40493405929955e-001

3.03143313302078e+004,-1.26828490939982e+001,-4.46641989857621e-001

3.07375036257601e+004,-1.26828509604627e+001,-4.52876384693683e-001

3.11665831864199e+004,-1.26828528792333e+001,-4.59197787461217e-001

3.16016524745350e+004,-1.26828548517708e+001,-4.65607411858769e-001

3.20427951035848e+004,-1.26828568795769e+001,-4.72106488488125e-001

3.24900958542493e+004,-1.26828589641946e+001,-4.78696265092568e-001

3.29436406907028e+004,-1.26828611072100e+001,-4.85378006791567e-001

3.34035167771346e+004,-1.26828633102528e+001,-4.92152996322193e-001

3.38698124945009e+004,-1.26828655749982e+001,-4.99022534285116e-001

3.43426174575100e+004,-1.26828679031677e+001,-5.05987939388572e-001

3.48220225318448e+004,-1.26828702965301e+001,-5.13050548703336e-001

3.53081198516260e+004,-1.26828727569037e+001,-5.20211717913606e-001

3.58010028371187e+004,-1.26828752861566e+001,-5.27472821577475e-001

3.63007662126863e+004,-1.26828778862087e+001,-5.34835253385027e-001

3.68075060249948e+004,-1.26828805590331e+001,-5.42300426426934e-001

3.73213196614721e+004,-1.26828833066570e+001,-5.49869773459551e-001

3.78423058690237e+004,-1.26828861311639e+001,-5.57544747179917e-001

3.83705647730104e+004,-1.26828890346948e+001,-5.65326820497406e-001

3.89061978964912e+004,-1.26828920194492e+001,-5.73217486819088e-001

3.94493081797342e+004,-1.26828950876877e+001,-5.81218260327666e-001

3.99999999999998e+004,-1.26828982417332e+001,-5.89330676270633e-001

4.05583791916010e+004,-1.26829014839721e+001,-5.97556291253041e-001

4.11245530662425e+004,-1.26829048168567e+001,-6.05896683528952e-001

4.16986304336447e+004,-1.26829082429068e+001,-6.14353453303762e-001

4.22807216224550e+004,-1.26829117647111e+001,-6.22928223035100e-001

4.28709385014515e+004,-1.26829153849296e+001,-6.31622637740327e-001

4.34693945010421e+004,-1.26829191062952e+001,-6.40438365308169e-001

4.40762046350642e+004,-1.26829229316158e+001,-6.49377096814254e-001

4.46914855228886e+004,-1.26829268637760e+001,-6.58440546840034e-001

4.53153554118317e+004,-1.26829309057395e+001,-6.67630453797773e-001

4.59479341998812e+004,-1.26829350605510e+001,-6.76948580256822e-001

4.65893434587380e+004,-1.26829393313386e+001,-6.86396713279318e-001

4.72397064571810e+004,-1.26829437213156e+001,-6.95976664755221e-001

4.78991481847569e+004,-1.26829482337828e+001,-7.05690271744725e-001

4.85677953758016e+004,-1.26829528721317e+001,-7.15539396822980e-001

4.92457765337964e+004,-1.26829576398451e+001,-7.25525928435408e-001

4.99332219560642e+004,-1.26829625405016e+001,-7.35651781246864e-001

5.06302637588109e+004,-1.26829675777764e+001,-7.45918896507475e-001

5.13370359025159e+004,-1.26829727554448e+001,-7.56329242415049e-001

5.20536742176771e+004,-1.26829780773846e+001,-7.66884814484770e-001

5.27803164309155e+004,-1.26829835475784e+001,-7.77587635926048e-001

5.35171021914442e+004,-1.26829891701170e+001,-7.88439758020172e-001

5.42641730979066e+004,-1.26829949492016e+001,-7.99443260505930e-001

5.50216727255895e+004,-1.26830008891469e+001,-8.10600251971078e-001

5.57897466540159e+004,-1.26830069943842e+001,-8.21912870245071e-001

5.65685424949235e+004,-1.26830132694640e+001,-8.33383282800468e-001

5.73582099206328e+004,-1.26830197190596e+001,-8.45013687158471e-001

5.81589006928121e+004,-1.26830263479696e+001,-8.56806311300248e-001

5.89707686916437e+004,-1.26830331611218e+001,-8.68763414082263e-001

5.97939699453972e+004,-1.26830401635759e+001,-8.80887285659039e-001

6.06286626604156e+004,-1.26830473605271e+001,-8.93180247909049e-001

6.14750072515201e+004,-1.26830547573098e+001,-9.05644654869663e-001

6.23331663728396e+004,-1.26830623594004e+001,-9.18282893173713e-001

6.32033049490698e+004,-1.26830701724217e+001,-9.31097382494561e-001

6.40855902071694e+004,-1.26830782021460e+001,-9.44090575995827e-001

6.49801917084985e+004,-1.26830864544990e+001,-9.57264960788078e-001

6.58872813814055e+004,-1.26830949355638e+001,-9.70623058388097e-001

6.68070335542691e+004,-1.26831036515844e+001,-9.84167425190466e-001

6.77396249890018e+004,-1.26831126089701e+001,-9.97900652936936e-001

6.86852349150199e+004,-1.26831218142993e+001,-1.01182536920014e+000

6.96440450636895e+004,-1.26831312743238e+001,-1.02594423786642e+000

7.06162397032520e+004,-1.26831409959728e+001,-1.04025995962998e+000

7.16020056742374e+004,-1.26831509863576e+001,-1.05477527249052e+000

7.26015324253724e+004,-1.26831612527755e+001,-1.06949295225834e+000

7.36150120499896e+004,-1.26831718027147e+001,-1.08441581306632e+000

7.46426393229441e+004,-1.26831826438587e+001,-1.09954670788594e+000

7.56846117380472e+004,-1.26831937840908e+001,-1.11488852905331e+000

7.67411295460207e+004,-1.26832052314992e+001,-1.13044420879974e+000

7.78123957929823e+004,-1.26832169943813e+001,-1.14621671978842e+000

7.88986163594682e+004,-1.26832290812492e+001,-1.16220907566073e+000

7.99999999999995e+004,-1.26832415008343e+001,-1.17842433158536e+000

8.11167583832018e+004,-1.26832542620924e+001,-1.19486558481884e+000

8.22491061324848e+004,-1.26832673742088e+001,-1.21153597526880e+000

8.33972608672892e+004,-1.26832808466038e+001,-1.22843868606729e+000

8.45614432449099e+004,-1.26832946889379e+001,-1.24557694414979e+000

8.57418770029029e+004,-1.26833089111172e+001,-1.26295402084106e+000

8.69387890020841e+004,-1.26833235232986e+001,-1.28057323245072e+000

8.81524092701283e+004,-1.26833385358956e+001,-1.29843794087316e+000

8.93829710457770e+004,-1.26833539595844e+001,-1.31655155419517e+000

9.06307108236633e+004,-1.26833698053085e+001,-1.33491752731445e+000

9.18958683997622e+004,-1.26833860842854e+001,-1.35353936256099e+000

9.31786869174758e+004,-1.26834028080122e+001,-1.37242061032913e+000

9.44794129143618e+004,-1.26834199882713e+001,-1.39156486971620e+000

9.57982963695136e+004,-1.26834376371367e+001,-1.41097578916904e+000

9.71355907516031e+004,-1.26834557669797e+001,-1.43065706713944e+000

9.84915530675926e+004,-1.26834743904752e+001,-1.45061245274465e+000

9.98664439121282e+004,-1.26834935206077e+001,-1.47084574643959e+000

1.01260527517622e+005,-1.26835131706778e+001,-1.49136080069379e+000

1.02674071805032e+005,-1.26835333543081e+001,-1.51216152067940e+000

1.04107348435354e+005,-1.26835540854493e+001,-1.53325186496395e+000

1.05560632861831e+005,-1.26835753783871e+001,-1.55463584621588e+000

1.07034204382888e+005,-1.26835972477480e+001,-1.57631753191388e+000

1.08528346195813e+005,-1.26836197085060e+001,-1.59830104506653e+000

1.10043345451179e+005,-1.26836427759884e+001,-1.62059056494333e+000

1.11579493308032e+005,-1.26836664658827e+001,-1.64319032780836e+000

1.13137084989847e+005,-1.26836907942429e+001,-1.66610462766800e+000

1.14716419841265e+005,-1.26837157774955e+001,-1.68933781702417e+000

1.16317801385624e+005,-1.26837414324459e+001,-1.71289430763860e+000

1.17941537383287e+005,-1.26837677762848e+001,-1.73677857130380e+000

1.19587939890794e+005,-1.26837948265945e+001,-1.76099514062482e+000

1.21257325320831e+005,-1.26838226013547e+001,-1.78554860981039e+000

1.22950014503040e+005,-1.26838511189490e+001,-1.81044363546939e+000

1.24666332745679e+005,-1.26838803981705e+001,-1.83568493742352e+000

1.26406609898139e+005,-1.26839104582280e+001,-1.86127729952250e+000

1.28171180414339e+005,-1.26839413187519e+001,-1.88722557047264e+000

1.29960383416997e+005,-1.26839729997994e+001,-1.91353466467347e+000

1.31774562762811e+005,-1.26840055218604e+001,-1.94020956306611e+000

1.33614067108538e+005,-1.26840389058628e+001,-1.96725531398748e+000

1.35479249978003e+005,-1.26840731731775e+001,-1.99467703403818e+000

1.37370469830040e+005,-1.26841083456238e+001,-2.02247990895900e+000

1.39288090127379e+005,-1.26841444454734e+001,-2.05066919451685e+000

1.41232479406504e+005,-1.26841814954555e+001,-2.07925021740228e+000

1.43204011348474e+005,-1.26842195187612e+001,-2.10822837613522e+000

1.45203064850745e+005,-1.26842585390467e+001,-2.13760914198462e+000

1.47230024099979e+005,-1.26842985804375e+001,-2.16739805989537e+000

1.49285278645888e+005,-1.26843396675314e+001,-2.19760074942712e+000

1.51369223476094e+005,-1.26843818254019e+001,-2.22822290570528e+000

1.53482259092041e+005,-1.26844250795999e+001,-2.25927030038128e+000

1.55624791585964e+005,-1.26844694561565e+001,-2.29074878260470e+000

1.57797232718936e+005,-1.26845149815842e+001,-2.32266428000747e+000

1.59999999999999e+005,-1.26845616828781e+001,-2.35502279969875e+000

1.62233516766403e+005,-1.26846095875167e+001,-2.38783042927202e+000

1.64498212264969e+005,-1.26846587234615e+001,-2.42109333782361e+000

1.66794521734578e+005,-1.26847091191569e+001,-2.45481777698464e+000

1.69122886489819e+005,-1.26847608035285e+001,-2.48901008196381e+000

1.71483754005805e+005,-1.26848138059815e+001,-2.52367667260417e+000

1.73877578004168e+005,-1.26848681563980e+001,-2.55882405445112e+000

1.76304818540256e+005,-1.26849238851334e+001,-2.59445881983622e+000

1.78765942091554e+005,-1.26849810230125e+001,-2.63058764897154e+000

1.81261421647326e+005,-1.26850396013242e+001,-2.66721731105824e+000

1.83791736799524e+005,-1.26850996518154e+001,-2.70435466541270e+000

1.86357373834951e+005,-1.26851612066843e+001,-2.74200666260038e+000

1.88958825828723e+005,-1.26852242985724e+001,-2.78018034559144e+000

1.91596592739027e+005,-1.26852889605554e+001,-2.81888285092536e+000

1.94271181503206e+005,-1.26853552261330e+001,-2.85812140989547e+000

1.96983106135185e+005,-1.26854231292178e+001,-2.89790334974660e+000

1.99732887824256e+005,-1.26854927041230e+001,-2.93823609488935e+000

2.02521055035243e+005,-1.26855639855478e+001,-2.97912716813293e+000

2.05348143610063e+005,-1.26856370085633e+001,-3.02058419193169e+000

2.08214696870707e+005,-1.26857118085952e+001,-3.06261488965332e+000

2.11121265723661e+005,-1.26857884214064e+001,-3.10522708686146e+000

2.14068408765776e+005,-1.26858668830771e+001,-3.14842871261999e+000

2.17056692391625e+005,-1.26859472299842e+001,-3.19222780081406e+000

2.20086690902357e+005,-1.26860294987782e+001,-3.23663249149383e+000

2.23158986616063e+005,-1.26861137263592e+001,-3.28165103223584e+000

2.26274169979693e+005,-1.26861999498505e+001,-3.32729177952798e+000

2.29432839682530e+005,-1.26862882065710e+001,-3.37356320017508e+000

2.32635602771247e+005,-1.26863785340053e+001,-3.42047387272748e+000

2.35883074766574e+005,-1.26864709697718e+001,-3.46803248893312e+000

2.39175879781588e+005,-1.26865655515892e+001,-3.51624785521392e+000

2.42514650641661e+005,-1.26866623172409e+001,-3.56512889416798e+000

2.45900029006080e+005,-1.26867613045369e+001,-3.61468464609561e+000

2.49332665491357e+005,-1.26868625512740e+001,-3.66492427055532e+000

2.52813219796278e+005,-1.26869660951934e+001,-3.71585704794572e+000

2.56342360828676e+005,-1.26870719739367e+001,-3.76749238111664e+000

2.59920766833993e+005,-1.26871802249987e+001,-3.81983979701114e+000

2.63549125525621e+005,-1.26872908856788e+001,-3.87290894833750e+000

2.67228134217075e+005,-1.26874039930291e+001,-3.92670961527518e+000

2.70958499956006e+005,-1.26875195838011e+001,-3.98125170721144e+000

2.74740939660078e+005,-1.26876376943891e+001,-4.03654526451542e+000

2.78576180254757e+005,-1.26877583607714e+001,-4.09260046034733e+000

2.82464958813007e+005,-1.26878816184495e+001,-4.14942760250375e+000

2.86408022696948e+005,-1.26880075023842e+001,-4.20703713530323e+000

2.90406129701488e+005,-1.26881360469292e+001,-4.26543964151016e+000

2.94460048199957e+005,-1.26882672857630e+001,-4.32464584430226e+000

2.98570557291775e+005,-1.26884012518175e+001,-4.38466660927842e+000

3.02738446952187e+005,-1.26885379772040e+001,-4.44551294651368e+000

3.06964518184081e+005,-1.26886774931378e+001,-4.50719601265756e+000

3.11249583171928e+005,-1.26888198298597e+001,-4.56972711308167e+000

3.15594465437872e+005,-1.26889650165548e+001,-4.63311770407584e+000

3.19999999999997e+005,-1.26891130812700e+001,-4.69737939509455e+000

3.24467033532806e+005,-1.26892640508282e+001,-4.76252395105711e+000

3.28996424529938e+005,-1.26894179507413e+001,-4.82856329470018e+000

3.33589043469155e+005,-1.26895748051205e+001,-4.89550950898699e+000

3.38245772979638e+005,-1.26897346365851e+001,-4.96337483957393e+000

3.42967508011610e+005,-1.26898974661689e+001,-5.03217169733598e+000

3.47755156008335e+005,-1.26900633132255e+001,-5.10191266095288e+000

3.52609637080511e+005,-1.26902321953320e+001,-5.17261047955835e+000

3.57531884183106e+005,-1.26904041281906e+001,-5.24427807545248e+000

3.62522843294651e+005,-1.26905791255299e+001,-5.31692854688056e+000

3.67583473599047e+005,-1.26907571990044e+001,-5.39057517087992e+000

3.72714747669902e+005,-1.26909383580939e+001,-5.46523140619373e+000

3.77917651657445e+005,-1.26911226100015e+001,-5.54091089625835e+000

3.83193185478053e+005,-1.26913099595516e+001,-5.61762747225974e+000

3.88542363006410e+005,-1.26915004090883e+001,-5.69539515626585e+000

3.93966212270369e+005,-1.26916939583723e+001,-5.77422816443261e+000

3.99465775648511e+005,-1.26918906044802e+001,-5.85414091028639e+000

4.05042110070485e+005,-1.26920903417029e+001,-5.93514800808457e+000

4.10696287220124e+005,-1.26922931614457e+001,-6.01726427625420e+000

4.16429393741414e+005,-1.26924990521296e+001,-6.10050474091031e+000

4.22242531447321e+005,-1.26927079990939e+001,-6.18488463945600e+000

4.28136817531551e+005,-1.26929199845010e+001,-6.27041942426254e+000

4.34113384783250e+005,-1.26931349872435e+001,-6.35712476643310e+000

4.40173381804713e+005,-1.26933529828536e+001,-6.44501655964923e+000

4.46317973232124e+005,-1.26935739434157e+001,-6.53411092409949e+000

4.52548339959385e+005,-1.26937978374824e+001,-6.62442421049397e+000

4.58865679365059e+005,-1.26940246299942e+001,-6.71597300416079e+000

4.65271205542494e+005,-1.26942542822028e+001,-6.80877412922810e+000

4.71766149533147e+005,-1.26944867515996e+001,-6.90284465288868e+000

4.78351759563174e+005,-1.26947219918482e+001,-6.99820188974945e+000

4.85029301283321e+005,-1.26949599527230e+001,-7.09486340626307e+000

4.91800058012158e+005,-1.26952005800523e+001,-7.19284702524330e+000

4.98665330982714e+005,-1.26954438156683e+001,-7.29217083046085e+000

5.05626439592555e+005,-1.26956895973625e+001,-7.39285317132161e+000

5.12684721657352e+005,-1.26959378588483e+001,-7.49491266762351e+000

5.19841533667984e+005,-1.26961885297299e+001,-7.59836821439320e+000

5.27098251051240e+005,-1.26964415354790e+001,-7.70323898679866e+000

5.34456268434150e+005,-1.26966967974190e+001,-7.80954444513844e+000

5.41916999912011e+005,-1.26969542327161e+001,-7.91730433990450e+000

