Freq.,VOut,OutRef

1.00000000000000e+004,-1.43442733609616e+000,-1.21132264730694e-001

1.01395947979003e+004,-1.43442728075273e+000,-1.22823208522493e-001

1.02811382665607e+004,-1.43442722385350e+000,-1.24537757026173e-001

1.04246576084112e+004,-1.43442716535458e+000,-1.26276239752440e-001

1.05701804056138e+004,-1.43442710521093e+000,-1.28038990811795e-001

1.07177346253629e+004,-1.43442704337657e+000,-1.29826348976717e-001

1.08673486252606e+004,-1.43442697980366e+000,-1.31638657752418e-001

1.10190511587661e+004,-1.43442691444362e+000,-1.33476265435222e-001

1.11728713807222e+004,-1.43442684724606e+000,-1.35339525186756e-001

1.13288388529580e+004,-1.43442677815917e+000,-1.37228795098377e-001

1.14869835499703e+004,-1.43442670713017e+000,-1.39144438257011e-001

1.16473358646846e+004,-1.43442663410426e+000,-1.41086822821814e-001

1.18099266142953e+004,-1.43442655902521e+000,-1.43056322090262e-001

1.19747870461893e+004,-1.43442648183551e+000,-1.45053314569779e-001

1.21419488439505e+004,-1.43442640247565e+000,-1.47078184053069e-001

1.23114441334492e+004,-1.43442632088464e+000,-1.49131319689739e-001

1.24833054890161e+004,-1.43442623699983e+000,-1.51213116061534e-001

1.26575659397028e+004,-1.43442615075675e+000,-1.53323973257973e-001

1.28342589756290e+004,-1.43442606208909e+000,-1.55464296955005e-001

1.30134185544193e+004,-1.43442597092861e+000,-1.57634498491280e-001

1.31950791077289e+004,-1.43442587720524e+000,-1.59834994947142e-001

1.33792755478611e+004,-1.43442578084706e+000,-1.62066209224880e-001

1.35660432744767e+004,-1.43442568177975e+000,-1.64328570131971e-001

1.37554181813974e+004,-1.43442557992742e+000,-1.66622512459502e-001

1.39474366635040e+004,-1.43442547521153e+000,-1.68948477070606e-001

1.41421356237309e+004,-1.43442536755180e+000,-1.71306910980102e-001

1.43395524801583e+004,-1.43442525686529e+000,-1.73698267445399e-001

1.45397251732031e+004,-1.43442514306693e+000,-1.76123006050074e-001

1.47426921729110e+004,-1.43442502606932e+000,-1.78581592793000e-001

1.49484924863494e+004,-1.43442490578251e+000,-1.81074500178479e-001

1.51571656651040e+004,-1.43442478211387e+000,-1.83602207308129e-001

1.53687518128801e+004,-1.43442465496858e+000,-1.86165199968997e-001

1.55832915932100e+004,-1.43442452424878e+000,-1.88763970731648e-001

1.58008262372675e+004,-1.43442438985392e+000,-1.91399019042565e-001

1.60213975517924e+004,-1.43442425168067e+000,-1.94070851320412e-001

1.62450479271247e+004,-1.43442410962294e+000,-1.96779981051743e-001

1.64718203453514e+004,-1.43442396357142e+000,-1.99526928892860e-001

1.67017583885674e+004,-1.43442381341388e+000,-2.02312222768044e-001

1.69349062472505e+004,-1.43442365903484e+000,-2.05136397970776e-001

1.71713087287550e+004,-1.43442350031566e+000,-2.07999997267451e-001

1.74110112659224e+004,-1.43442333713430e+000,-2.10903571001060e-001

1.76540599258131e+004,-1.43442316936534e+000,-2.13847677197130e-001

1.79005014185594e+004,-1.43442299687962e+000,-2.16832881672698e-001

1.81503831063432e+004,-1.43442281954492e+000,-2.19859758139699e-001

1.84037530124975e+004,-1.43442263722463e+000,-2.22928888322952e-001

1.86606598307361e+004,-1.43442244977858e+000,-2.26040862066537e-001

1.89211529345119e+004,-1.43442225706282e+000,-2.29196277447559e-001

1.91852823865052e+004,-1.43442205892913e+000,-2.32395740893455e-001

1.94530989482457e+004,-1.43442185522509e+000,-2.35639867297399e-001

1.97246540898671e+004,-1.43442164579426e+000,-2.38929280135076e-001

1.99999999999999e+004,-1.43442143047570e+000,-2.42264611586048e-001

2.02791895958005e+004,-1.43442120910355e+000,-2.45646502657139e-001

2.05622765331213e+004,-1.43442098150799e+000,-2.49075603300200e-001

2.08493152168224e+004,-1.43442074751389e+000,-2.52552572542593e-001

2.11403608112276e+004,-1.43442050694132e+000,-2.56078078611270e-001

2.14354692507258e+004,-1.43442025960543e+000,-2.59652799060587e-001

2.17346972505211e+004,-1.43442000531603e+000,-2.63277420904632e-001

2.20381023175322e+004,-1.43441974387767e+000,-2.66952640746947e-001

2.23457427614443e+004,-1.43441947508938e+000,-2.70679164916290e-001

2.26576777059159e+004,-1.43441919874446e+000,-2.74457709602262e-001

2.29739670999406e+004,-1.43441891463059e+000,-2.78289000990761e-001

2.32946717293690e+004,-1.43441862252920e+000,-2.82173775407075e-001

2.36198532285905e+004,-1.43441832221589e+000,-2.86112779453919e-001

2.39495740923785e+004,-1.43441801345970e+000,-2.90106770157834e-001

2.42838976879009e+004,-1.43441769602323e+000,-2.94156515112769e-001

2.46228882668982e+004,-1.43441736966263e+000,-2.98262792627739e-001

2.49666109780322e+004,-1.43441703412685e+000,-3.02426391878204e-001

2.53151318794055e+004,-1.43441668915793e+000,-3.06648113055987e-001

2.56685179512580e+004,-1.43441633449092e+000,-3.10928767522115e-001

2.60268371088386e+004,-1.43441596985284e+000,-3.15269177967433e-001

2.63901582154578e+004,-1.43441559496363e+000,-3.19670178564591e-001

2.67585510957221e+004,-1.43441520953502e+000,-3.24132615132276e-001

2.71320865489533e+004,-1.43441481327068e+000,-3.28657345297978e-001

2.75108363627948e+004,-1.43441440586599e+000,-3.33245238660380e-001

2.78948733270080e+004,-1.43441398700779e+000,-3.37897176958405e-001

2.82842712474618e+004,-1.43441355637416e+000,-3.42614054239775e-001

2.86791049603164e+004,-1.43441311363383e+000,-3.47396777034514e-001

2.90794503464061e+004,-1.43441265844673e+000,-3.52246264525626e-001

2.94853843458219e+004,-1.43441219046278e+000,-3.57163448730325e-001

2.98969849726987e+004,-1.43441170932221e+000,-3.62149274676273e-001

3.03143313302078e+004,-1.43441121465522e+000,-3.67204700583410e-001

3.07375036257601e+004,-1.43441070608157e+000,-3.72330698048775e-001

3.11665831864199e+004,-1.43441018321018e+000,-3.77528252234039e-001

3.16016524745350e+004,-1.43440964563923e+000,-3.82798362052787e-001

3.20427951035848e+004,-1.43440909295550e+000,-3.88142040364461e-001

3.24900958542493e+004,-1.43440852473403e+000,-3.93560314168280e-001

3.29436406907028e+004,-1.43440794053800e+000,-3.99054224801276e-001

3.34035167771346e+004,-1.43440733991838e+000,-4.04624828136904e-001

3.38698124945009e+004,-1.43440672241347e+000,-4.10273194789251e-001

3.43426174575100e+004,-1.43440608754854e+000,-4.16000410319417e-001

3.48220225318448e+004,-1.43440543483564e+000,-4.21807575442595e-001

3.53081198516260e+004,-1.43440476377291e+000,-4.27695806241029e-001

3.58010028371187e+004,-1.43440407384462e+000,-4.33666234377671e-001

3.63007662126863e+004,-1.43440336452028e+000,-4.39720007314730e-001

3.68075060249948e+004,-1.43440263525473e+000,-4.45858288532648e-001

3.73213196614721e+004,-1.43440188548728e+000,-4.52082257756092e-001

3.78423058690237e+004,-1.43440111464168e+000,-4.58393111177878e-001

3.83705647730104e+004,-1.43440032212533e+000,-4.64792061691810e-001

3.89061978964912e+004,-1.43439950732904e+000,-4.71280339123761e-001

3.94493081797342e+004,-1.43439866962640e+000,-4.77859190469514e-001

3.99999999999998e+004,-1.43439780837361e+000,-4.84529880133054e-001

4.05583791916010e+004,-1.43439692290850e+000,-4.91293690171325e-001

4.11245530662425e+004,-1.43439601255048e+000,-4.98151920539335e-001

4.16986304336447e+004,-1.43439507659972e+000,-5.05105889340987e-001

4.22807216224550e+004,-1.43439411433684e+000,-5.12156933081702e-001

4.28709385014515e+004,-1.43439312502210e+000,-5.19306406925873e-001

4.34693945010421e+004,-1.43439210789509e+000,-5.26555684957609e-001

4.40762046350642e+004,-1.43439106217385e+000,-5.33906160445286e-001

4.46914855228886e+004,-1.43438998705466e+000,-5.41359246107513e-001

4.53153554118317e+004,-1.43438888171111e+000,-5.48916374386529e-001

4.59479341998812e+004,-1.43438774529344e+000,-5.56578997724195e-001

4.65893434587380e+004,-1.43438657692822e+000,-5.64348588838654e-001

4.72397064571810e+004,-1.43438537571733e+000,-5.72226641010094e-001

4.78991481847569e+004,-1.43438414073742e+000,-5.80214668366904e-001

4.85677953758016e+004,-1.43438287103924e+000,-5.88314206176309e-001

4.92457765337964e+004,-1.43438156564685e+000,-5.96526811140449e-001

4.99332219560642e+004,-1.43438022355674e+000,-6.04854061695615e-001

5.06302637588109e+004,-1.43437884373741e+000,-6.13297558314741e-001

5.13370359025159e+004,-1.43437742512826e+000,-6.21858923816247e-001

5.20536742176771e+004,-1.43437596663885e+000,-6.30539803676432e-001

5.27803164309155e+004,-1.43437446714812e+000,-6.39341866344610e-001

5.35171021914442e+004,-1.43437292550349e+000,-6.48266803565311e-001

5.42641730979066e+004,-1.43437134052009e+000,-6.57316330701603e-001

5.50216727255895e+004,-1.43436971097954e+000,-6.66492187068212e-001

5.57897466540159e+004,-1.43436803562937e+000,-6.75796136262994e-001

5.65685424949235e+004,-1.43436631318191e+000,-6.85229966507269e-001

5.73582099206328e+004,-1.43436454231323e+000,-6.94795490990170e-001

5.81589006928121e+004,-1.43436272166216e+000,-7.04494548217146e-001

5.89707686916437e+004,-1.43436084982939e+000,-7.14329002362795e-001

5.97939699453972e+004,-1.43435892537617e+000,-7.24300743630821e-001

6.06286626604156e+004,-1.43435694682345e+000,-7.34411688615789e-001

6.14750072515201e+004,-1.43435491265051e+000,-7.44663780673310e-001

6.23331663728396e+004,-1.43435282129378e+000,-7.55058990294188e-001

6.32033049490698e+004,-1.43435067114599e+000,-7.65599315481104e-001

6.40855902071694e+004,-1.43434846055457e+000,-7.76286782135283e-001

6.49801917084985e+004,-1.43434618782049e+000,-7.87123444445699e-001

6.58872813814055e+004,-1.43434385119700e+000,-7.98111385283348e-001

6.68070335542691e+004,-1.43434144888822e+000,-8.09252716603060e-001

6.77396249890018e+004,-1.43433897904789e+000,-8.20549579848734e-001

6.86852349150199e+004,-1.43433643977777e+000,-8.32004146366542e-001

6.96440450636895e+004,-1.43433382912640e+000,-8.43618617821081e-001

7.06162397032520e+004,-1.43433114508728e+000,-8.55395226621437e-001

7.16020056742374e+004,-1.43432838559774e+000,-8.67336236347634e-001

7.26015324253724e+004,-1.43432554853697e+000,-8.79443942189160e-001

7.36150120499896e+004,-1.43432263172461e+000,-8.91720671384377e-001

7.46426393229441e+004,-1.43431963291917e+000,-9.04168783668895e-001

7.56846117380472e+004,-1.43431654981594e+000,-9.16790671731344e-001

7.67411295460207e+004,-1.43431338004564e+000,-9.29588761670702e-001

7.78123957929823e+004,-1.43431012117229e+000,-9.42565513466465e-001

7.88986163594682e+004,-1.43430677069156e+000,-9.55723421449330e-001

7.99999999999995e+004,-1.43430332602860e+000,-9.69065014783553e-001

8.11167583832018e+004,-1.43429978453644e+000,-9.82592857951645e-001

8.22491061324848e+004,-1.43429614349350e+000,-9.96309551249905e-001

8.33972608672892e+004,-1.43429240010182e+000,-1.01021773128781e+000

8.45614432449099e+004,-1.43428855148493e+000,-1.02432007149523e+000

8.57418770029029e+004,-1.43428459468541e+000,-1.03861928263811e+000

8.69387890020841e+004,-1.43428052666270e+000,-1.05311811334028e+000

8.81524092701283e+004,-1.43427634429098e+000,-1.06781935061130e+000

8.93829710457770e+004,-1.43427204435644e+000,-1.08272582038498e+000

9.06307108236633e+004,-1.43426762355517e+000,-1.09784038806117e+000

9.18958683997622e+004,-1.43426307849021e+000,-1.11316595906033e+000

9.31786869174758e+004,-1.43425840566940e+000,-1.12870547937984e+000

9.44794129143618e+004,-1.43425360150224e+000,-1.14446193616477e+000

9.57982963695136e+004,-1.43424866229751e+000,-1.16043835827988e+000

9.71355907516031e+004,-1.43424358426028e+000,-1.17663781689508e+000

9.84915530675926e+004,-1.43423836348899e+000,-1.19306342607606e+000

9.98664439121282e+004,-1.43423299597248e+000,-1.20971834338452e+000

1.01260527517622e+005,-1.43422747758691e+000,-1.22660577048637e+000

1.02674071805032e+005,-1.43422180409257e+000,-1.24372895376861e+000

1.04107348435354e+005,-1.43421597113076e+000,-1.26109118496363e+000

1.05560632861831e+005,-1.43420997422024e+000,-1.27869580178530e+000

1.07034204382888e+005,-1.43420380875401e+000,-1.29654618857071e+000

1.08528346195813e+005,-1.43419746999554e+000,-1.31464577693288e+000

1.10043345451179e+005,-1.43419095307542e+000,-1.33299804642181e+000

1.11579493308032e+005,-1.43418425298729e+000,-1.35160652519558e+000

1.13137084989847e+005,-1.43417736458434e+000,-1.37047479069991e+000

1.14716419841265e+005,-1.43417028257516e+000,-1.38960647035750e+000

1.16317801385624e+005,-1.43416300151979e+000,-1.40900524226762e+000

1.17941537383287e+005,-1.43415551582537e+000,-1.42867483591592e+000

1.19587939890794e+005,-1.43414781974214e+000,-1.44861903289215e+000

1.21257325320831e+005,-1.43413990735879e+000,-1.46884166762022e+000

1.22950014503040e+005,-1.43413177259802e+000,-1.48934662809740e+000

1.24666332745679e+005,-1.43412340921195e+000,-1.51013785664408e+000

1.26406609898139e+005,-1.43411481077711e+000,-1.53121935066473e+000

1.28171180414339e+005,-1.43410597068995e+000,-1.55259516341745e+000

1.29960383416997e+005,-1.43409688216125e+000,-1.57426940479809e+000

1.31774562762811e+005,-1.43408753821133e+000,-1.59624624213158e+000

1.33614067108538e+005,-1.43407793166449e+000,-1.61852990097672e+000

1.35479249978003e+005,-1.43406805514370e+000,-1.64112466594104e+000

1.37370469830040e+005,-1.43405790106465e+000,-1.66403488150897e+000

1.39288090127379e+005,-1.43404746163027e+000,-1.68726495287915e+000

1.41232479406504e+005,-1.43403672882465e+000,-1.71081934681511e+000

1.43204011348474e+005,-1.43402569440673e+000,-1.73470259250893e+000

1.45203064850745e+005,-1.43401434990436e+000,-1.75891928245354e+000

1.47230024099979e+005,-1.43400268660747e+000,-1.78347407333176e+000

1.49285278645888e+005,-1.43399069556154e+000,-1.80837168691471e+000

1.51369223476094e+005,-1.43397836756075e+000,-1.83361691097430e+000

1.53482259092041e+005,-1.43396569314106e+000,-1.85921460020765e+000

1.55624791585964e+005,-1.43395266257271e+000,-1.88516967717622e+000

1.57797232718936e+005,-1.43393926585308e+000,-1.91148713325580e+000

1.59999999999999e+005,-1.43392549269875e+000,-1.93817202960288e+000

1.62233516766403e+005,-1.43391133253788e+000,-1.96522949813173e+000

1.64498212264969e+005,-1.43389677450199e+000,-1.99266474250770e+000

1.66794521734578e+005,-1.43388180741776e+000,-2.02048303915236e+000

1.69122886489819e+005,-1.43386641979834e+000,-2.04868973826563e+000

1.71483754005805e+005,-1.43385059983475e+000,-2.07729026485924e+000

1.73877578004168e+005,-1.43383433538682e+000,-2.10629011980762e+000

1.76304818540256e+005,-1.43381761397379e+000,-2.13569488091167e+000

1.78765942091554e+005,-1.43380042276490e+000,-2.16551020397916e+000

1.81261421647326e+005,-1.43378274856971e+000,-2.19574182391873e+000

1.83791736799524e+005,-1.43376457782764e+000,-2.22639555585180e+000

1.86357373834951e+005,-1.43374589659814e+000,-2.25747729623690e+000

1.88958825828723e+005,-1.43372669054965e+000,-2.28899302401422e+000

1.91596592739027e+005,-1.43370694494883e+000,-2.32094880176267e+000

1.94271181503206e+005,-1.43368664464948e+000,-2.35335077687449e+000

1.96983106135185e+005,-1.43366577408059e+000,-2.38620518274886e+000

1.99732887824256e+005,-1.43364431723479e+000,-2.41951833999885e+000

2.02521055035243e+005,-1.43362225765620e+000,-2.45329665767745e+000

2.05348143610063e+005,-1.43359957842759e+000,-2.48754663452228e+000

2.08214696870707e+005,-1.43357626215783e+000,-2.52227486021494e+000

2.11121265723661e+005,-1.43355229096832e+000,-2.55748801666129e+000

2.14068408765776e+005,-1.43352764647974e+000,-2.59319287928819e+000

2.17056692391625e+005,-1.43350230979766e+000,-2.62939631835962e+000

2.20086690902357e+005,-1.43347626149853e+000,-2.66610530031127e+000

2.23158986616063e+005,-1.43344948161470e+000,-2.70332688910412e+000

2.26274169979693e+005,-1.43342194961922e+000,-2.74106824759793e+000

2.29432839682530e+005,-1.43339364441043e+000,-2.77933663894328e+000

2.32635602771247e+005,-1.43336454429563e+000,-2.81813942799557e+000

2.35883074766574e+005,-1.43333462697491e+000,-2.85748408274636e+000

2.39175879781588e+005,-1.43330386952387e+000,-2.89737817577855e+000

2.42514650641661e+005,-1.43327224837654e+000,-2.93782938573968e+000

2.45900029006080e+005,-1.43323973930729e+000,-2.97884549883779e+000

2.49332665491357e+005,-1.43320631741247e+000,-3.02043441035909e+000

2.52813219796278e+005,-1.43317195709158e+000,-3.06260412620573e+000

2.56342360828676e+005,-1.43313663202782e+000,-3.10536276445844e+000

2.59920766833993e+005,-1.43310031516808e+000,-3.14871855695891e+000

2.63549125525621e+005,-1.43306297870248e+000,-3.19267985091694e+000

2.67228134217075e+005,-1.43302459404344e+000,-3.23725511053961e+000

2.70958499956006e+005,-1.43298513180371e+000,-3.28245291868495e+000

2.74740939660078e+005,-1.43294456177446e+000,-3.32828197853909e+000

2.78576180254757e+005,-1.43290285290215e+000,-3.37475111531743e+000

2.82464958813007e+005,-1.43285997326522e+000,-3.42186927799085e+000

2.86408022696948e+005,-1.43281589004988e+000,-3.46964554103671e+000

2.90406129701488e+005,-1.43277056952525e+000,-3.51808910621613e+000

2.94460048199957e+005,-1.43272397701802e+000,-3.56720930437528e+000

2.98570557291775e+005,-1.43267607688606e+000,-3.61701559727511e+000

3.02738446952187e+005,-1.43262683249175e+000,-3.66751757944602e+000

3.06964518184081e+005,-1.43257620617413e+000,-3.71872498007063e+000

3.11249583171928e+005,-1.43252415922066e+000,-3.77064766489304e+000

3.15594465437872e+005,-1.43247065183785e+000,-3.82329563815746e+000

3.19999999999997e+005,-1.43241564312142e+000,-3.87667904457407e+000

3.24467033532806e+005,-1.43235909102559e+000,-3.93080817131345e+000

3.28996424529938e+005,-1.43230095233102e+000,-3.98569345003218e+000

3.33589043469155e+005,-1.43224118261283e+000,-4.04134545892551e+000

3.38245772979638e+005,-1.43217973620686e+000,-4.09777492481237e+000

3.42967508011610e+005,-1.43211656617537e+000,-4.15499272525048e+000

3.47755156008335e+005,-1.43205162427196e+000,-4.21300989068228e+000

3.52609637080511e+005,-1.43198486090514e+000,-4.27183760661311e+000

3.57531884183106e+005,-1.43191622510128e+000,-4.33148721582128e+000

3.62522843294651e+005,-1.43184566446646e+000,-4.39197022060090e+000

3.67583473599047e+005,-1.43177312514694e+000,-4.45329828503870e+000

3.72714747669902e+005,-1.43169855178915e+000,-4.51548323732376e+000

3.77917651657445e+005,-1.43162188749803e+000,-4.57853707209209e+000

3.83193185478053e+005,-1.43154307379470e+000,-4.64247195280654e+000

3.88542363006410e+005,-1.43146205057257e+000,-4.70730021417170e+000

3.93966212270369e+005,-1.43137875605262e+000,-4.77303436458524e+000

3.99465775648511e+005,-1.43129312673729e+000,-4.83968708862606e+000

4.05042110070485e+005,-1.43120509736301e+000,-4.90727124957988e+000

4.10696287220124e+005,-1.43111460085178e+000,-4.97579989200279e+000

4.16429393741414e+005,-1.43102156826111e+000,-5.04528624432348e+000

4.22242531447321e+005,-1.43092592873289e+000,-5.11574372148469e+000

4.28136817531551e+005,-1.43082760944054e+000,-5.18718592762525e+000

4.34113384783250e+005,-1.43072653553522e+000,-5.25962665880181e+000

4.40173381804713e+005,-1.43062263009010e+000,-5.33307990575347e+000

4.46317973232124e+005,-1.43051581404345e+000,-5.40755985670708e+000

4.52548339959385e+005,-1.43040600614022e+000,-5.48308090022596e+000

4.58865679365059e+005,-1.43029312287179e+000,-5.55965762810308e+000

4.65271205542494e+005,-1.43017707841447e+000,-5.63730483829710e+000

4.71766149533147e+005,-1.43005778456605e+000,-5.71603753791514e+000

4.78351759563174e+005,-1.42993515068087e+000,-5.79587094624060e+000

4.85029301283321e+005,-1.42980908360307e+000,-5.87682049780800e+000

4.91800058012158e+005,-1.42967948759808e+000,-5.95890184552604e+000

4.98665330982714e+005,-1.42954626428249e+000,-6.04213086384810e+000

5.05626439592555e+005,-1.42940931255164e+000,-6.12652365199367e+000

5.12684721657352e+005,-1.42926852850574e+000,-6.21209653721884e+000

5.19841533667984e+005,-1.42912380537390e+000,-6.29886607813845e+000

5.27098251051240e+005,-1.42897503343603e+000,-6.38684906810120e+000

5.34456268434150e+005,-1.42882209994293e+000,-6.47606253861661e+000

5.41916999912011e+005,-1.42866488903414e+000,-6.56652376283749e+000

