Freq.,VOut,OutRef

1.00000000000000e+004,-1.22752192465065e+001,-2.21707332991620e-002

1.01395947979003e+004,-1.22752199334275e+001,-2.24801672160439e-002

1.02811382665607e+004,-1.22752206396546e+001,-2.27939182040235e-002

1.04246576084112e+004,-1.22752213657297e+001,-2.31120464264492e-002

1.05701804056138e+004,-1.22752221122105e+001,-2.34346128765475e-002

1.07177346253629e+004,-1.22752228796700e+001,-2.37616793990836e-002

1.08673486252606e+004,-1.22752236686974e+001,-2.40933086945739e-002

1.10190511587661e+004,-1.22752244798991e+001,-2.44295643301206e-002

1.11728713807222e+004,-1.22752253138978e+001,-2.47705107601519e-002

1.13288388529580e+004,-1.22752261713340e+001,-2.51162133318170e-002

1.14869835499703e+004,-1.22752270528666e+001,-2.54667382936641e-002

1.16473358646846e+004,-1.22752279591710e+001,-2.58221528283459e-002

1.18099266142953e+004,-1.22752288909446e+001,-2.61825250301185e-002

1.19747870461893e+004,-1.22752298489016e+001,-2.65479239538851e-002

1.21419488439505e+004,-1.22752308337782e+001,-2.69184196006937e-002

1.23114441334492e+004,-1.22752318463299e+001,-2.72940829493251e-002

1.24833054890161e+004,-1.22752328873349e+001,-2.76749859543122e-002

1.26575659397028e+004,-1.22752339575918e+001,-2.80612015733919e-002

1.28342589756290e+004,-1.22752350579220e+001,-2.84528037750236e-002

1.30134185544193e+004,-1.22752361891702e+001,-2.88498675490752e-002

1.31950791077289e+004,-1.22752373522043e+001,-2.92524689260085e-002

1.33792755478611e+004,-1.22752385479181e+001,-2.96606849808395e-002

1.35660432744767e+004,-1.22752397772279e+001,-3.00745938689733e-002

1.37554181813974e+004,-1.22752410410781e+001,-3.04942748144558e-002

1.39474366635040e+004,-1.22752423404384e+001,-3.09198081429005e-002

1.41421356237309e+004,-1.22752436763053e+001,-3.13512752932579e-002

1.43395524801583e+004,-1.22752450497049e+001,-3.17887588197255e-002

1.45397251732031e+004,-1.22752464616899e+001,-3.22323424321910e-002

1.47426921729110e+004,-1.22752479133443e+001,-3.26821109845496e-002

1.49484924863494e+004,-1.22752494057816e+001,-3.31381505089134e-002

1.51571656651040e+004,-1.22752509401467e+001,-3.36005482248181e-002

1.53687518128801e+004,-1.22752525176166e+001,-3.40693925541065e-002

1.55832915932100e+004,-1.22752541394015e+001,-3.45447731381035e-002

1.58008262372675e+004,-1.22752558067449e+001,-3.50267808597353e-002

1.60213975517924e+004,-1.22752575209264e+001,-3.55155078457111e-002

1.62450479271247e+004,-1.22752592832599e+001,-3.60110475033563e-002

1.64718203453514e+004,-1.22752610950973e+001,-3.65134945189007e-002

1.67017583885674e+004,-1.22752629578278e+001,-3.70229448882124e-002

1.69349062472505e+004,-1.22752648728796e+001,-3.75394959270725e-002

1.71713087287550e+004,-1.22752668417206e+001,-3.80632462932467e-002

1.74110112659224e+004,-1.22752688658610e+001,-3.85942959935871e-002

1.76540599258131e+004,-1.22752709468515e+001,-3.91327464231377e-002

1.79005014185594e+004,-1.22752730862883e+001,-3.96787003569098e-002

1.81503831063432e+004,-1.22752752858104e+001,-4.02322619936850e-002

1.84037530124975e+004,-1.22752775471036e+001,-4.07935369600429e-002

1.86606598307361e+004,-1.22752798719012e+001,-4.13626323274421e-002

1.89211529345119e+004,-1.22752822619838e+001,-4.19396566469170e-002

1.91852823865052e+004,-1.22752847191836e+001,-4.25247199459073e-002

1.94530989482457e+004,-1.22752872453824e+001,-4.31179337718791e-002

1.97246540898671e+004,-1.22752898425151e+001,-4.37194111962557e-002

1.99999999999999e+004,-1.22752925125721e+001,-4.43292668321041e-002

2.02791895958005e+004,-1.22752952575972e+001,-4.49476168745292e-002

2.05622765331213e+004,-1.22752980796934e+001,-4.55745790959690e-002

2.08493152168224e+004,-1.22753009810213e+001,-4.62102728853032e-002

2.11403608112276e+004,-1.22753039638018e+001,-4.68548192652331e-002

2.14354692507258e+004,-1.22753070303188e+001,-4.75083409041653e-002

2.17346972505211e+004,-1.22753101829197e+001,-4.81709621471756e-002

2.20381023175322e+004,-1.22753134240169e+001,-4.88428090374258e-002

2.23457427614443e+004,-1.22753167560911e+001,-4.95240093329391e-002

2.26576777059159e+004,-1.22753201816918e+001,-5.02146925336718e-002

2.29739670999406e+004,-1.22753237034394e+001,-5.09149899024990e-002

2.32946717293690e+004,-1.22753273240280e+001,-5.16250344861291e-002

2.36198532285905e+004,-1.22753310462269e+001,-5.23449611391749e-002

2.39495740923785e+004,-1.22753348728828e+001,-5.30749065461844e-002

2.42838976879009e+004,-1.22753388069215e+001,-5.38150092497274e-002

2.46228882668982e+004,-1.22753428513509e+001,-5.45654096668886e-002

2.49666109780322e+004,-1.22753470092619e+001,-5.53262501227401e-002

2.53151318794055e+004,-1.22753512838327e+001,-5.60976748616745e-002

2.56685179512580e+004,-1.22753556783294e+001,-5.68798300834614e-002

2.60268371088386e+004,-1.22753601961094e+001,-5.76728639626720e-002

2.63901582154578e+004,-1.22753648406243e+001,-5.84769266683129e-002

2.67585510957221e+004,-1.22753696154203e+001,-5.92921704044179e-002

2.71320865489533e+004,-1.22753745241442e+001,-6.01187494151371e-002

2.75108363627948e+004,-1.22753795705435e+001,-6.09568200247369e-002

2.78948733270080e+004,-1.22753847584699e+001,-6.18065406607894e-002

2.82842712474618e+004,-1.22753900918826e+001,-6.26680718759881e-002

2.86791049603164e+004,-1.22753955748509e+001,-6.35415763767970e-002

2.90794503464061e+004,-1.22754012115577e+001,-6.44272190477566e-002

2.94853843458219e+004,-1.22754070063013e+001,-6.53251669862887e-002

2.98969849726987e+004,-1.22754129635006e+001,-6.62355895145872e-002

3.03143313302078e+004,-1.22754190876966e+001,-6.71586582211827e-002

3.07375036257601e+004,-1.22754253835570e+001,-6.80945469787365e-002

3.11665831864199e+004,-1.22754318558785e+001,-6.90434319784102e-002

3.16016524745350e+004,-1.22754385095918e+001,-7.00054917482186e-002

3.20427951035848e+004,-1.22754453497641e+001,-7.09809071910288e-002

3.24900958542493e+004,-1.22754523816028e+001,-7.19698616081452e-002

3.29436406907028e+004,-1.22754596104608e+001,-7.29725407217254e-002

3.34035167771346e+004,-1.22754670418383e+001,-7.39891327152960e-002

3.38698124945009e+004,-1.22754746813884e+001,-7.50198282521770e-002

3.43426174575100e+004,-1.22754825349213e+001,-7.60648205063033e-002

3.48220225318448e+004,-1.22754906084074e+001,-7.71243051946285e-002

3.53081198516260e+004,-1.22754989079828e+001,-7.81984806024468e-002

3.58010028371187e+004,-1.22755074399532e+001,-7.92875476126350e-002

3.63007662126863e+004,-1.22755162107992e+001,-8.03917097349058e-002

3.68075060249948e+004,-1.22755252271795e+001,-8.15111731414786e-002

3.73213196614721e+004,-1.22755344959381e+001,-8.26461466822350e-002

3.78423058690237e+004,-1.22755440241072e+001,-8.37968419289482e-002

3.83705647730104e+004,-1.22755538189130e+001,-8.49634731991310e-002

3.89061978964912e+004,-1.22755638877823e+001,-8.61462575764593e-002

3.94493081797342e+004,-1.22755742383448e+001,-8.73454149630153e-002

3.99999999999998e+004,-1.22755848784425e+001,-8.85611680816034e-002

4.05583791916010e+004,-1.22755958161317e+001,-8.97937425290690e-002

4.11245530662425e+004,-1.22756070596917e+001,-9.10433667890419e-002

4.16986304336447e+004,-1.22756186176292e+001,-9.23102722714797e-002

4.22807216224550e+004,-1.22756304986847e+001,-9.35946933391811e-002

4.28709385014515e+004,-1.22756427118384e+001,-9.48968673409380e-002

4.34693945010421e+004,-1.22756552663188e+001,-9.62170346284610e-002

4.40762046350642e+004,-1.22756681716054e+001,-9.75554386075218e-002

4.46914855228886e+004,-1.22756814374396e+001,-9.89123257438622e-002

4.53153554118317e+004,-1.22756950738289e+001,-1.00287945611046e-001

4.59479341998812e+004,-1.22757090910542e+001,-1.01682550912421e-001

4.65893434587380e+004,-1.22757234996794e+001,-1.03096397503165e-001

4.72397064571810e+004,-1.22757383105562e+001,-1.04529744430529e-001

4.78991481847569e+004,-1.22757535348324e+001,-1.05982853960686e-001

4.85677953758016e+004,-1.22757691839612e+001,-1.07455991596379e-001

4.92457765337964e+004,-1.22757852697071e+001,-1.08949426120608e-001

4.99332219560642e+004,-1.22758018041564e+001,-1.10463429607276e-001

5.06302637588109e+004,-1.22758187997234e+001,-1.11998277465988e-001

5.13370359025159e+004,-1.22758362691607e+001,-1.13554248455503e-001

5.20536742176771e+004,-1.22758542255677e+001,-1.15131624713986e-001

5.27803164309155e+004,-1.22758726823991e+001,-1.16730691788849e-001

5.35171021914442e+004,-1.22758916534739e+001,-1.18351738662421e-001

5.42641730979066e+004,-1.22759111529871e+001,-1.19995057767340e-001

5.50216727255895e+004,-1.22759311955170e+001,-1.21660945020741e-001

5.57897466540159e+004,-1.22759517960355e+001,-1.23349699849954e-001

5.65685424949235e+004,-1.22759729699200e+001,-1.25061625205040e-001

5.73582099206328e+004,-1.22759947329621e+001,-1.26797027589172e-001

5.81589006928121e+004,-1.22760171013790e+001,-1.28556217079393e-001

5.89707686916437e+004,-1.22760400918243e+001,-1.30339507345421e-001

5.97939699453972e+004,-1.22760637213993e+001,-1.32147215671018e-001

6.06286626604156e+004,-1.22760880076645e+001,-1.33979662971392e-001

6.14750072515201e+004,-1.22761129686504e+001,-1.35837173817102e-001

6.23331663728396e+004,-1.22761386228710e+001,-1.37720076442044e-001

6.32033049490698e+004,-1.22761649893350e+001,-1.39628702765249e-001

6.40855902071694e+004,-1.22761920875581e+001,-1.41563388405593e-001

6.49801917084985e+004,-1.22762199375763e+001,-1.43524472694946e-001

6.58872813814055e+004,-1.22762485599588e+001,-1.45512298687796e-001

6.68070335542691e+004,-1.22762779758216e+001,-1.47527213173566e-001

6.77396249890018e+004,-1.22763082068402e+001,-1.49569566688707e-001

6.86852349150199e+004,-1.22763392752642e+001,-1.51639713520693e-001

6.96440450636895e+004,-1.22763712039319e+001,-1.53738011713314e-001

7.06162397032520e+004,-1.22764040162830e+001,-1.55864823078498e-001

7.16020056742374e+004,-1.22764377363755e+001,-1.58020513189776e-001

7.26015324253724e+004,-1.22764723888996e+001,-1.60205451386217e-001

7.36150120499896e+004,-1.22765079991926e+001,-1.62420010776209e-001

7.46426393229441e+004,-1.22765445932560e+001,-1.64664568225080e-001

7.56846117380472e+004,-1.22765821977698e+001,-1.66939504358318e-001

7.67411295460207e+004,-1.22766208401100e+001,-1.69245203545368e-001

7.78123957929823e+004,-1.22766605483640e+001,-1.71582053898184e-001

7.88986163594682e+004,-1.22767013513490e+001,-1.73950447248954e-001

7.99999999999995e+004,-1.22767432786277e+001,-1.76350779141050e-001

8.11167583832018e+004,-1.22767863605262e+001,-1.78783448809252e-001

8.22491061324848e+004,-1.22768306281520e+001,-1.81248859157491e-001

8.33972608672892e+004,-1.22768761134116e+001,-1.83747416735272e-001

8.45614432449099e+004,-1.22769228490289e+001,-1.86279531712992e-001

8.57418770029029e+004,-1.22769708685649e+001,-1.88845617841562e-001

8.69387890020841e+004,-1.22770202064348e+001,-1.91446092430694e-001

8.81524092701283e+004,-1.22770708979281e+001,-1.94081376304466e-001

8.93829710457770e+004,-1.22771229792292e+001,-1.96751893756307e-001

9.06307108236633e+004,-1.22771764874344e+001,-1.99458072513949e-001

9.18958683997622e+004,-1.22772314605749e+001,-2.02200343678826e-001

9.31786869174758e+004,-1.22772879376351e+001,-2.04979141678919e-001

9.44794129143618e+004,-1.22773459585740e+001,-2.07794904208019e-001

9.57982963695136e+004,-1.22774055643459e+001,-2.10648072162748e-001

9.71355907516031e+004,-1.22774667969210e+001,-2.13539089576565e-001

9.84915530675926e+004,-1.22775296993072e+001,-2.16468403545725e-001

9.98664439121282e+004,-1.22775943155714e+001,-2.19436464150526e-001

1.01260527517622e+005,-1.22776606908608e+001,-2.22443724375420e-001

1.02674071805032e+005,-1.22777288714252e+001,-2.25490640017092e-001

1.04107348435354e+005,-1.22777989046388e+001,-2.28577669592196e-001

1.05560632861831e+005,-1.22778708390222e+001,-2.31705274236666e-001

1.07034204382888e+005,-1.22779447242651e+001,-2.34873917597373e-001

1.08528346195813e+005,-1.22780206112486e+001,-2.38084065721147e-001

1.10043345451179e+005,-1.22780985520669e+001,-2.41336186936960e-001

1.11579493308032e+005,-1.22781786000514e+001,-2.44630751723187e-001

1.13137084989847e+005,-1.22782608097917e+001,-2.47968232583370e-001

1.14716419841265e+005,-1.22783452371590e+001,-2.51349103898439e-001

1.16317801385624e+005,-1.22784319393293e+001,-2.54773841778422e-001

1.17941537383287e+005,-1.22785209748043e+001,-2.58242923914255e-001

1.19587939890794e+005,-1.22786124034355e+001,-2.61756829405240e-001

1.21257325320831e+005,-1.22787062864453e+001,-2.65316038592364e-001

1.22950014503040e+005,-1.22788026864502e+001,-2.68921032874364e-001

1.24666332745679e+005,-1.22789016674821e+001,-2.72572294520843e-001

1.26406609898139e+005,-1.22790032950101e+001,-2.76270306474294e-001

1.28171180414339e+005,-1.22791076359623e+001,-2.80015552140855e-001

1.29960383416997e+005,-1.22792147587468e+001,-2.83808515174978e-001

1.31774562762811e+005,-1.22793247332722e+001,-2.87649679251576e-001

1.33614067108538e+005,-1.22794376309681e+001,-2.91539527832896e-001

1.35479249978003e+005,-1.22795535248048e+001,-2.95478543917306e-001

1.37370469830040e+005,-1.22796724893128e+001,-2.99467209786604e-001

1.39288090127379e+005,-1.22797946006007e+001,-3.03506006736896e-001

1.41232479406504e+005,-1.22799199363745e+001,-3.07595414797765e-001

1.43204011348474e+005,-1.22800485759525e+001,-3.11735912450913e-001

1.45203064850745e+005,-1.22801806002841e+001,-3.15927976319597e-001

1.47230024099979e+005,-1.22803160919634e+001,-3.20172080863806e-001

1.49285278645888e+005,-1.22804551352445e+001,-3.24468698052034e-001

1.51369223476094e+005,-1.22805978160543e+001,-3.28818297031099e-001

1.53482259092041e+005,-1.22807442220051e+001,-3.33221343770745e-001

1.55624791585964e+005,-1.22808944424048e+001,-3.37678300714441e-001

1.57797232718936e+005,-1.22810485682672e+001,-3.42189626396991e-001

1.59999999999999e+005,-1.22812066923188e+001,-3.46755775070395e-001

1.62233516766403e+005,-1.22813689090070e+001,-3.51377196296869e-001

1.64498212264969e+005,-1.22815353145028e+001,-3.56054334548470e-001

1.66794521734578e+005,-1.22817060067053e+001,-3.60787628780361e-001

1.69122886489819e+005,-1.22818810852418e+001,-3.65577511996932e-001

1.71483754005805e+005,-1.22820606514670e+001,-3.70424410805739e-001

1.73877578004168e+005,-1.22822448084598e+001,-3.75328744956973e-001

1.76304818540256e+005,-1.22824336610176e+001,-3.80290926871221e-001

1.78765942091554e+005,-1.22826273156482e+001,-3.85311361153927e-001

1.81261421647326e+005,-1.22828258805592e+001,-3.90390444101082e-001

1.83791736799524e+005,-1.22830294656446e+001,-3.95528563186275e-001

1.86357373834951e+005,-1.22832381824685e+001,-4.00726096541756e-001

1.88958825828723e+005,-1.22834521442459e+001,-4.05983412423041e-001

1.91596592739027e+005,-1.22836714658194e+001,-4.11300868669673e-001

1.94271181503206e+005,-1.22838962636344e+001,-4.16678812143581e-001

1.96983106135185e+005,-1.22841266557083e+001,-4.22117578168112e-001

1.99732887824256e+005,-1.22843627615979e+001,-4.27617489951076e-001

2.02521055035243e+005,-1.22846047023623e+001,-4.33178857997291e-001

2.05348143610063e+005,-1.22848526005217e+001,-4.38801979514783e-001

2.08214696870707e+005,-1.22851065800113e+001,-4.44487137813912e-001

2.11121265723661e+005,-1.22853667661318e+001,-4.50234601696408e-001

2.14068408765776e+005,-1.22856332854950e+001,-4.56044624836939e-001

2.17056692391625e+005,-1.22859062659642e+001,-4.61917445160569e-001

2.20086690902357e+005,-1.22861858365897e+001,-4.67853284216969e-001

2.23158986616063e+005,-1.22864721275396e+001,-4.73852346546356e-001

2.26274169979693e+005,-1.22867652700245e+001,-4.79914819047738e-001

2.29432839682530e+005,-1.22870653962170e+001,-4.86040870345042e-001

2.32635602771247e+005,-1.22873726391664e+001,-4.92230650144210e-001

2.35883074766574e+005,-1.22876871327049e+001,-4.98484288609862e-001

2.39175879781588e+005,-1.22880090113514e+001,-5.04801895724203e-001

2.42514650641661e+005,-1.22883384102050e+001,-5.11183560669692e-001

2.45900029006080e+005,-1.22886754648356e+001,-5.17629351202721e-001

2.49332665491357e+005,-1.22890203111659e+001,-5.24139313043799e-001

2.52813219796278e+005,-1.22893730853469e+001,-5.30713469277859e-001

2.56342360828676e+005,-1.22897339236269e+001,-5.37351819763276e-001

2.59920766833993e+005,-1.22901029622137e+001,-5.44054340558174e-001

2.63549125525621e+005,-1.22904803371286e+001,-5.50820983362270e-001

2.67228134217075e+005,-1.22908661840546e+001,-5.57651674979274e-001

2.70958499956006e+005,-1.22912606381757e+001,-5.64546316800649e-001

2.74740939660078e+005,-1.22916638340103e+001,-5.71504784312164e-001

2.78576180254757e+005,-1.22920759052358e+001,-5.78526926630424e-001

2.82464958813007e+005,-1.22924969845063e+001,-5.85612566068306e-001

2.86408022696948e+005,-1.22929272032631e+001,-5.92761497733382e-001

2.90406129701488e+005,-1.22933666915360e+001,-5.99973489163897e-001

2.94460048199957e+005,-1.22938155777397e+001,-6.07248280001866e-001

2.98570557291775e+005,-1.22942739884598e+001,-6.14585581711870e-001

3.02738446952187e+005,-1.22947420482336e+001,-6.21985077343277e-001

3.06964518184081e+005,-1.22952198793225e+001,-6.29446421343964e-001

3.11249583171928e+005,-1.22957076014773e+001,-6.36969239426086e-001

3.15594465437872e+005,-1.22962053316966e+001,-6.44553128488914e-001

3.19999999999997e+005,-1.22967131839776e+001,-6.52197656606529e-001

3.24467033532806e+005,-1.22972312690626e+001,-6.59902363066503e-001

3.28996424529938e+005,-1.22977596941758e+001,-6.67666758494114e-001

3.33589043469155e+005,-1.22982985627567e+001,-6.75490325033744e-001

3.38245772979638e+005,-1.22988479741864e+001,-6.83372516615087e-001

3.42967508011610e+005,-1.22994080235093e+001,-6.91312759290965e-001

3.47755156008335e+005,-1.22999788011497e+001,-6.99310451662824e-001

3.52609637080511e+005,-1.23005603926236e+001,-7.07364965391871e-001

3.57531884183106e+005,-1.23011528782472e+001,-7.15475645797124e-001

3.62522843294651e+005,-1.23017563328416e+001,-7.23641812552949e-001

3.67583473599047e+005,-1.23023708254351e+001,-7.31862760473994e-001

3.72714747669902e+005,-1.23029964189634e+001,-7.40137760409995e-001

3.77917651657445e+005,-1.23036331699677e+001,-7.48466060238125e-001

3.83193185478053e+005,-1.23042811282934e+001,-7.56846885960890e-001

3.88542363006410e+005,-1.23049403367879e+001,-7.65279442914943e-001

3.93966212270369e+005,-1.23056108309999e+001,-7.73762917089624e-001

3.99465775648511e+005,-1.23062926388807e+001,-7.82296476557554e-001

4.05042110070485e+005,-1.23069857804871e+001,-7.90879273025468e-001

4.10696287220124e+005,-1.23076902676901e+001,-7.99510443491041e-001

4.16429393741414e+005,-1.23084061038861e+001,-8.08189112031009e-001

4.22242531447321e+005,-1.23091332837156e+001,-8.16914391695940e-001

4.28136817531551e+005,-1.23098717927874e+001,-8.25685386531496e-001

4.34113384783250e+005,-1.23106216074119e+001,-8.34501193714527e-001

4.40173381804713e+005,-1.23113826943422e+001,-8.43360905811426e-001

4.46317973232124e+005,-1.23121550105261e+001,-8.52263613152018e-001

4.52548339959385e+005,-1.23129385028697e+001,-8.61208406317609e-001

4.58865679365059e+005,-1.23137331080124e+001,-8.70194378749051e-001

4.65271205542494e+005,-1.23145387521164e+001,-8.79220629462415e-001

4.71766149533147e+005,-1.23153553506705e+001,-8.88286265877159e-001

4.78351759563174e+005,-1.23161828083106e+001,-8.97390406743432e-001

4.85029301283321e+005,-1.23170210186561e+001,-9.06532185182005e-001

4.91800058012158e+005,-1.23178698641661e+001,-9.15710751807889e-001

4.98665330982714e+005,-1.23187292160134e+001,-9.24925277957113e-001

5.05626439592555e+005,-1.23195989339805e+001,-9.34174958990699e-001

5.12684721657352e+005,-1.23204788663754e+001,-9.43459017685424e-001

5.19841533667984e+005,-1.23213688499716e+001,-9.52776707690394e-001

5.27098251051240e+005,-1.23222687099702e+001,-9.62127317052788e-001

5.34456268434150e+005,-1.23231782599872e+001,-9.71510171800169e-001

5.41916999912011e+005,-1.23240973020654e+001,-9.80924639570147e-001

