Freq.,VOut,OutRef

1.00000000000000e+004,-1.30251288771647e+001,-1.72016788923263e-002

1.01395947979003e+004,-1.30251294186908e+001,-1.74417597177874e-002

1.02811382665607e+004,-1.30251299754369e+001,-1.76851900038950e-002

1.04246576084112e+004,-1.30251305478292e+001,-1.79320164334620e-002

1.05701804056138e+004,-1.30251311363076e+001,-1.81822863273248e-002

1.07177346253629e+004,-1.30251317413249e+001,-1.84360476600116e-002

1.08673486252606e+004,-1.30251323633453e+001,-1.86933490783979e-002

1.10190511587661e+004,-1.30251330028462e+001,-1.89542399063817e-002

1.11728713807222e+004,-1.30251336603189e+001,-1.92187701459190e-002

1.13288388529580e+004,-1.30251343362686e+001,-1.94869904943626e-002

1.14869835499703e+004,-1.30251350312141e+001,-1.97589523544148e-002

1.16473358646846e+004,-1.30251357456882e+001,-2.00347078470746e-002

1.18099266142953e+004,-1.30251364802404e+001,-2.03143098031861e-002

1.19747870461893e+004,-1.30251372354347e+001,-2.05978117917901e-002

1.21419488439505e+004,-1.30251380118501e+001,-2.08852681315814e-002

1.23114441334492e+004,-1.30251388100834e+001,-2.11767338824840e-002

1.24833054890161e+004,-1.30251396307471e+001,-2.14722648745454e-002

1.26575659397028e+004,-1.30251404744713e+001,-2.17719177075611e-002

1.28342589756290e+004,-1.30251413419038e+001,-2.20757497669202e-002

1.30134185544193e+004,-1.30251422337094e+001,-2.23838192387002e-002

1.31950791077289e+004,-1.30251431505738e+001,-2.26961851001352e-002

1.33792755478611e+004,-1.30251440932004e+001,-2.30129071551063e-002

1.35660432744767e+004,-1.30251450623124e+001,-2.33340460339329e-002

1.37554181813974e+004,-1.30251460586539e+001,-2.36596632020854e-002

1.39474366635040e+004,-1.30251470829892e+001,-2.39898209793393e-002

1.41421356237309e+004,-1.30251481361046e+001,-2.43245825424699e-002

1.43395524801583e+004,-1.30251492188080e+001,-2.46640119456393e-002

1.45397251732031e+004,-1.30251503319300e+001,-2.50081741274161e-002

1.47426921729110e+004,-1.30251514763249e+001,-2.53571349209607e-002

1.49484924863494e+004,-1.30251526528703e+001,-2.57109610714457e-002

1.51571656651040e+004,-1.30251538624689e+001,-2.60697202440470e-002

1.53687518128801e+004,-1.30251551060496e+001,-2.64334810313268e-002

1.55832915932100e+004,-1.30251563845650e+001,-2.68023129865250e-002

1.58008262372675e+004,-1.30251576989960e+001,-2.71762866133861e-002

1.60213975517924e+004,-1.30251590503518e+001,-2.75554733817042e-002

1.62450479271247e+004,-1.30251604396671e+001,-2.79399457632803e-002

1.64718203453514e+004,-1.30251618680086e+001,-2.83297772101677e-002

1.67017583885674e+004,-1.30251633364707e+001,-2.87250422005065e-002

1.69349062472505e+004,-1.30251648461804e+001,-2.91258162242905e-002

1.71713087287550e+004,-1.30251663982940e+001,-2.95321758254213e-002

1.74110112659224e+004,-1.30251679940022e+001,-2.99441985867897e-002

1.76540599258131e+004,-1.30251696345280e+001,-3.03619631672879e-002

1.79005014185594e+004,-1.30251713211293e+001,-3.07855493007546e-002

1.81503831063432e+004,-1.30251730550979e+001,-3.12150378247165e-002

1.84037530124975e+004,-1.30251748377635e+001,-3.16505106767111e-002

1.86606598307361e+004,-1.30251766704921e+001,-3.20920509248514e-002

1.89211529345119e+004,-1.30251785546880e+001,-3.25397427757917e-002

1.91852823865052e+004,-1.30251804917945e+001,-3.29936715927240e-002

1.94530989482457e+004,-1.30251824832959e+001,-3.34539239054521e-002

1.97246540898671e+004,-1.30251845307182e+001,-3.39205874281512e-002

1.99999999999999e+004,-1.30251866356290e+001,-3.43937510816244e-002

2.02791895958005e+004,-1.30251887996400e+001,-3.48735050037273e-002

2.05622765331213e+004,-1.30251910244097e+001,-3.53599405530026e-002

2.08493152168224e+004,-1.30251933116411e+001,-3.58531503470579e-002

2.11403608112276e+004,-1.30251956630852e+001,-3.63532282688366e-002

2.14354692507258e+004,-1.30251980805421e+001,-3.68602694806326e-002

2.17346972505211e+004,-1.30252005658621e+001,-3.73743704438705e-002

2.20381023175322e+004,-1.30252031209476e+001,-3.78956289315094e-002

2.23457427614443e+004,-1.30252057477544e+001,-3.84241440490920e-002

2.26576777059159e+004,-1.30252084482919e+001,-3.89600162557439e-002

2.29739670999406e+004,-1.30252112246265e+001,-3.95033473740661e-002

2.32946717293690e+004,-1.30252140788810e+001,-4.00542406168575e-002

2.36198532285905e+004,-1.30252170132402e+001,-4.06128005837605e-002

2.39495740923785e+004,-1.30252200299471e+001,-4.11791333105159e-002

2.42838976879009e+004,-1.30252231313081e+001,-4.17533462667796e-002

2.46228882668982e+004,-1.30252263196946e+001,-4.23355483737204e-002

2.49666109780322e+004,-1.30252295975440e+001,-4.29258500291949e-002

2.53151318794055e+004,-1.30252329673616e+001,-4.35243631244463e-002

2.56685179512580e+004,-1.30252364317218e+001,-4.41312010681595e-002

2.60268371088386e+004,-1.30252399932720e+001,-4.47464787929078e-002

2.63901582154578e+004,-1.30252436547326e+001,-4.53703127870720e-002

2.67585510957221e+004,-1.30252474188995e+001,-4.60028211085206e-002

2.71320865489533e+004,-1.30252512886481e+001,-4.66441233985013e-002

2.75108363627948e+004,-1.30252552669322e+001,-4.72943409145310e-002

2.78948733270080e+004,-1.30252593567882e+001,-4.79535965423102e-002

2.82842712474618e+004,-1.30252635613384e+001,-4.86220148090480e-002

2.86791049603164e+004,-1.30252678837894e+001,-4.92997219256975e-002

2.90794503464061e+004,-1.30252723274396e+001,-4.99868457787743e-002

2.94853843458219e+004,-1.30252768956778e+001,-5.06835159712319e-002

2.98969849726987e+004,-1.30252815919871e+001,-5.13898638390368e-002

3.03143313302078e+004,-1.30252864199479e+001,-5.21060224650314e-002

3.07375036257601e+004,-1.30252913832395e+001,-5.28321267102243e-002

3.11665831864199e+004,-1.30252964856442e+001,-5.35683132233292e-002

3.16016524745350e+004,-1.30253017310481e+001,-5.43147204768940e-002

3.20427951035848e+004,-1.30253071234467e+001,-5.50714887721813e-002

3.24900958542493e+004,-1.30253126669453e+001,-5.58387602733922e-002

3.29436406907028e+004,-1.30253183657633e+001,-5.66166790249273e-002

3.34035167771346e+004,-1.30253242242374e+001,-5.74053909716580e-002

3.38698124945009e+004,-1.30253302468244e+001,-5.82050439817573e-002

3.43426174575100e+004,-1.30253364381045e+001,-5.90157878713651e-002

3.48220225318448e+004,-1.30253428027842e+001,-5.98377744284608e-002

3.53081198516260e+004,-1.30253493457016e+001,-6.06711574234112e-002

3.58010028371187e+004,-1.30253560718279e+001,-6.15160926438949e-002

3.63007662126863e+004,-1.30253629862716e+001,-6.23727379157598e-002

3.68075060249948e+004,-1.30253700942829e+001,-6.32412531196569e-002

3.73213196614721e+004,-1.30253774012564e+001,-6.41218002207282e-002

3.78423058690237e+004,-1.30253849127369e+001,-6.50145432810968e-002

3.83705647730104e+004,-1.30253926344213e+001,-6.59196484952260e-002

3.89061978964912e+004,-1.30254005721635e+001,-6.68372842072776e-002

3.94493081797342e+004,-1.30254087319804e+001,-6.77676209245370e-002

3.99999999999998e+004,-1.30254171200526e+001,-6.87108313627266e-002

4.05583791916010e+004,-1.30254257427329e+001,-6.96670904417544e-002

4.11245530662425e+004,-1.30254346065473e+001,-7.06365753346521e-002

4.16986304336447e+004,-1.30254437182030e+001,-7.16194654671089e-002

4.22807216224550e+004,-1.30254530845901e+001,-7.26159425605364e-002

4.28709385014515e+004,-1.30254627127892e+001,-7.36261906382742e-002

4.34693945010421e+004,-1.30254726100749e+001,-7.46503960596425e-002

4.40762046350642e+004,-1.30254827839216e+001,-7.56887475360211e-002

4.46914855228886e+004,-1.30254932420084e+001,-7.67414361588924e-002

4.53153554118317e+004,-1.30255039922250e+001,-7.78086554190558e-002

4.59479341998812e+004,-1.30255150426777e+001,-7.88906012240741e-002

4.65893434587380e+004,-1.30255264016935e+001,-7.99874719341845e-002

4.72397064571810e+004,-1.30255380778286e+001,-8.10994683679383e-002

4.78991481847569e+004,-1.30255500798713e+001,-8.22267938392136e-002

4.85677953758016e+004,-1.30255624168510e+001,-8.33696541673368e-002

4.92457765337964e+004,-1.30255750980434e+001,-8.45282577012531e-002

4.99332219560642e+004,-1.30255881329764e+001,-8.57028153465792e-002

5.06302637588109e+004,-1.30256015314378e+001,-8.68935405795896e-002

5.13370359025159e+004,-1.30256153034817e+001,-8.81006494695687e-002

5.20536742176771e+004,-1.30256294594349e+001,-8.93243607042346e-002

5.27803164309155e+004,-1.30256440099051e+001,-9.05648956000360e-002

5.35171021914442e+004,-1.30256589657882e+001,-9.18224781272834e-002

5.42641730979066e+004,-1.30256743382743e+001,-9.30973349310630e-002

5.50216727255895e+004,-1.30256901388572e+001,-9.43896953467441e-002

5.57897466540159e+004,-1.30257063793409e+001,-9.56997914190358e-002

5.65685424949235e+004,-1.30257230718490e+001,-9.70278579154739e-002

5.73582099206328e+004,-1.30257402288317e+001,-9.83741323509261e-002

5.81589006928121e+004,-1.30257578630745e+001,-9.97388549994491e-002

5.89707686916437e+004,-1.30257759877074e+001,-1.01122268909573e-001

5.97939699453972e+004,-1.30257946162130e+001,-1.02524619921290e-001

6.06286626604156e+004,-1.30258137624364e+001,-1.03946156677476e-001

6.14750072515201e+004,-1.30258334405930e+001,-1.05387130641800e-001

6.23331663728396e+004,-1.30258536652796e+001,-1.06847796106997e-001

6.32033049490698e+004,-1.30258744514828e+001,-1.08328410208076e-001

6.40855902071694e+004,-1.30258958145895e+001,-1.09829232934366e-001

6.49801917084985e+004,-1.30259177703964e+001,-1.11350527137866e-001

6.58872813814055e+004,-1.30259403351208e+001,-1.12892558544326e-001

6.68070335542691e+004,-1.30259635254109e+001,-1.14455595756380e-001

6.77396249890018e+004,-1.30259873583564e+001,-1.16039910265286e-001

6.86852349150199e+004,-1.30260118514998e+001,-1.17645776452049e-001

6.96440450636895e+004,-1.30260370228474e+001,-1.19273471591775e-001

7.06162397032520e+004,-1.30260628908801e+001,-1.20923275861925e-001

7.16020056742374e+004,-1.30260894745665e+001,-1.22595472332190e-001

7.26015324253724e+004,-1.30261167933727e+001,-1.24290346978712e-001

7.36150120499896e+004,-1.30261448672765e+001,-1.26008188668262e-001

7.46426393229441e+004,-1.30261737167782e+001,-1.27749289164762e-001

7.56846117380472e+004,-1.30262033629143e+001,-1.29513943114679e-001

7.67411295460207e+004,-1.30262338272689e+001,-1.31302448052390e-001

7.78123957929823e+004,-1.30262651319888e+001,-1.33115104374332e-001

7.88986163594682e+004,-1.30262972997946e+001,-1.34952215345228e-001

7.99999999999995e+004,-1.30263303539954e+001,-1.36814087073626e-001

8.11167583832018e+004,-1.30263643185028e+001,-1.38701028496953e-001

8.22491061324848e+004,-1.30263992178439e+001,-1.40613351371022e-001

8.33972608672892e+004,-1.30264350771769e+001,-1.42551370239138e-001

8.45614432449099e+004,-1.30264719223037e+001,-1.44515402421706e-001

8.57418770029029e+004,-1.30265097796865e+001,-1.46505767979859e-001

8.69387890020841e+004,-1.30265486764617e+001,-1.48522789692963e-001

8.81524092701283e+004,-1.30265886404548e+001,-1.50566793028843e-001

8.93829710457770e+004,-1.30266297001971e+001,-1.52638106102298e-001

9.06307108236633e+004,-1.30266718849392e+001,-1.54737059652335e-001

9.18958683997622e+004,-1.30267152246693e+001,-1.56863986981894e-001

9.31786869174758e+004,-1.30267597501268e+001,-1.59019223935804e-001

9.44794129143618e+004,-1.30268054928208e+001,-1.61203108833563e-001

9.57982963695136e+004,-1.30268524850437e+001,-1.63415982438761e-001

9.71355907516031e+004,-1.30269007598914e+001,-1.65658187881703e-001

9.84915530675926e+004,-1.30269503512767e+001,-1.67930070623311e-001

9.98664439121282e+004,-1.30270012939479e+001,-1.70231978379113e-001

1.01260527517622e+005,-1.30270536235060e+001,-1.72564261053475e-001

1.02674071805032e+005,-1.30271073764215e+001,-1.74927270672500e-001

1.04107348435354e+005,-1.30271625900517e+001,-1.77321361306185e-001

1.05560632861831e+005,-1.30272193026583e+001,-1.79746888990020e-001

1.07034204382888e+005,-1.30272775534252e+001,-1.82204211635471e-001

1.08528346195813e+005,-1.30273373824761e+001,-1.84693688943890e-001

1.10043345451179e+005,-1.30273988308923e+001,-1.87215682307078e-001

1.11579493308032e+005,-1.30274619407300e+001,-1.89770554710883e-001

1.13137084989847e+005,-1.30275267550390e+001,-1.92358670625104e-001

1.14716419841265e+005,-1.30275933178799e+001,-1.94980395893090e-001

1.16317801385624e+005,-1.30276616743422e+001,-1.97636097611593e-001

1.17941537383287e+005,-1.30277318705623e+001,-2.00326144007152e-001

1.19587939890794e+005,-1.30278039537409e+001,-2.03050904308121e-001

1.21257325320831e+005,-1.30278779721605e+001,-2.05810748604270e-001

1.22950014503040e+005,-1.30279539752038e+001,-2.08606047702768e-001

1.24666332745679e+005,-1.30280320133702e+001,-2.11437172978990e-001

1.26406609898139e+005,-1.30281121382934e+001,-2.14304496219404e-001

1.28171180414339e+005,-1.30281944027579e+001,-2.17208389455396e-001

1.29960383416997e+005,-1.30282788607169e+001,-2.20149224788063e-001

1.31774562762811e+005,-1.30283655673069e+001,-2.23127374214912e-001

1.33614067108538e+005,-1.30284545788654e+001,-2.26143209436041e-001

1.35479249978003e+005,-1.30285459529458e+001,-2.29197101657963e-001

1.37370469830040e+005,-1.30286397483326e+001,-2.32289421392901e-001

1.39288090127379e+005,-1.30287360250564e+001,-2.35420538244232e-001

1.41232479406504e+005,-1.30288348444081e+001,-2.38590820685259e-001

1.43204011348474e+005,-1.30289362689518e+001,-2.41800635830967e-001

1.45203064850745e+005,-1.30290403625388e+001,-2.45050349196145e-001

1.47230024099979e+005,-1.30291471903194e+001,-2.48340324448657e-001

1.49285278645888e+005,-1.30292568187539e+001,-2.51670923154691e-001

1.51369223476094e+005,-1.30293693156234e+001,-2.55042504510790e-001

1.53482259092041e+005,-1.30294847500400e+001,-2.58455425065941e-001

1.55624791585964e+005,-1.30296031924549e+001,-2.61910038437982e-001

1.57797232718936e+005,-1.30297247146659e+001,-2.65406695018911e-001

1.59999999999999e+005,-1.30298493898239e+001,-2.68945741670155e-001

1.62233516766403e+005,-1.30299772924385e+001,-2.72527521403852e-001

1.64498212264969e+005,-1.30301084983811e+001,-2.76152373065021e-001

1.66794521734578e+005,-1.30302430848881e+001,-2.79820630987556e-001

1.69122886489819e+005,-1.30303811305612e+001,-2.83532624657282e-001

1.71483754005805e+005,-1.30305227153669e+001,-2.87288678353249e-001

1.73877578004168e+005,-1.30306679206337e+001,-2.91089110784719e-001

1.76304818540256e+005,-1.30308168290490e+001,-2.94934234712017e-001

1.78765942091554e+005,-1.30309695246512e+001,-2.98824356568633e-001

1.81261421647326e+005,-1.30311260928227e+001,-3.02759776060406e-001

1.83791736799524e+005,-1.30312866202790e+001,-3.06740785765932e-001

1.86357373834951e+005,-1.30314511950561e+001,-3.10767670718982e-001

1.88958825828723e+005,-1.30316199064952e+001,-3.14840707989700e-001

1.91596592739027e+005,-1.30317928452254e+001,-3.18960166249148e-001

1.94271181503206e+005,-1.30319701031431e+001,-3.23126305330151e-001

1.96983106135185e+005,-1.30321517733891e+001,-3.27339375778655e-001

1.99732887824256e+005,-1.30323379503220e+001,-3.31599618396613e-001

2.02521055035243e+005,-1.30325287294903e+001,-3.35907263772918e-001

2.05348143610063e+005,-1.30327242075986e+001,-3.40262531821166e-001

2.08214696870707e+005,-1.30329244824729e+001,-3.44665631290637e-001

2.11121265723661e+005,-1.30331296530212e+001,-3.49116759287118e-001

2.14068408765776e+005,-1.30333398191907e+001,-3.53616100783060e-001

2.17056692391625e+005,-1.30335550819207e+001,-3.58163828122889e-001

2.20086690902357e+005,-1.30337755430931e+001,-3.62760100520192e-001

2.23158986616063e+005,-1.30340013054769e+001,-3.67405063563225e-001

2.26274169979693e+005,-1.30342324726696e+001,-3.72098848705005e-001

2.29432839682530e+005,-1.30344691490342e+001,-3.76841572760392e-001

2.32635602771247e+005,-1.30347114396313e+001,-3.81633337402454e-001

2.35883074766574e+005,-1.30349594501465e+001,-3.86474228657793e-001

2.39175879781588e+005,-1.30352132868135e+001,-3.91364316402127e-001

2.42514650641661e+005,-1.30354730563320e+001,-3.96303653865307e-001

2.45900029006080e+005,-1.30357388657803e+001,-4.01292277135149e-001

2.49332665491357e+005,-1.30360108225229e+001,-4.06330204672902e-001

2.52813219796278e+005,-1.30362890341128e+001,-4.11417436832598e-001

2.56342360828676e+005,-1.30365736081887e+001,-4.16553955390360e-001

2.59920766833993e+005,-1.30368646523655e+001,-4.21739723090650e-001

2.63549125525621e+005,-1.30371622741208e+001,-4.26974683195454e-001

2.67228134217075e+005,-1.30374665806749e+001,-4.32258759056649e-001

2.70958499956006e+005,-1.30377776788637e+001,-4.37591853706819e-001

2.74740939660078e+005,-1.30380956750086e+001,-4.42973849458127e-001

2.78576180254757e+005,-1.30384206747779e+001,-4.48404607535066e-001

2.82464958813007e+005,-1.30387527830433e+001,-4.53883967725246e-001

2.86408022696948e+005,-1.30390921037305e+001,-4.59411748055132e-001

2.90406129701488e+005,-1.30394387396636e+001,-4.64987744496009e-001

2.94460048199957e+005,-1.30397927924040e+001,-4.70611730699707e-001

2.98570557291775e+005,-1.30401543620816e+001,-4.76283457772577e-001

3.02738446952187e+005,-1.30405235472234e+001,-4.82002654076436e-001

3.06964518184081e+005,-1.30409004445725e+001,-4.87769025077853e-001

3.11249583171928e+005,-1.30412851489049e+001,-4.93582253231746e-001

3.15594465437872e+005,-1.30416777528377e+001,-4.99441997918080e-001

3.19999999999997e+005,-1.30420783466341e+001,-5.05347895415206e-001

3.24467033532806e+005,-1.30424870180020e+001,-5.11299558932695e-001

3.28996424529938e+005,-1.30429038518883e+001,-5.17296578692413e-001

3.33589043469155e+005,-1.30433289302670e+001,-5.23338522070778e-001

3.38245772979638e+005,-1.30437623319255e+001,-5.29424933789637e-001

3.42967508011610e+005,-1.30442041322429e+001,-5.35555336185309e-001

3.47755156008335e+005,-1.30446544029678e+001,-5.41729229529014e-001

3.52609637080511e+005,-1.30451132119915e+001,-5.47946092418585e-001

3.57531884183106e+005,-1.30455806231165e+001,-5.54205382247864e-001

3.62522843294651e+005,-1.30460566958249e+001,-5.60506535739901e-001

3.67583473599047e+005,-1.30465414850431e+001,-5.66848969561145e-001

3.72714747669902e+005,-1.30470350409048e+001,-5.73232081015475e-001

3.77917651657445e+005,-1.30475374085135e+001,-5.79655248815687e-001

3.83193185478053e+005,-1.30480486277038e+001,-5.86117833943768e-001

3.88542363006410e+005,-1.30485687328039e+001,-5.92619180586787e-001

3.93966212270369e+005,-1.30490977523970e+001,-5.99158617173552e-001

3.99465775648511e+005,-1.30496357090858e+001,-6.05735457490759e-001

4.05042110070485e+005,-1.30501826192589e+001,-6.12349001889267e-001

4.10696287220124e+005,-1.30507384928583e+001,-6.18998538592355e-001

4.16429393741414e+005,-1.30513033331537e+001,-6.25683345083041e-001

4.22242531447321e+005,-1.30518771365180e+001,-6.32402689597600e-001

4.28136817531551e+005,-1.30524598922110e+001,-6.39155832702747e-001

4.34113384783250e+005,-1.30530515821670e+001,-6.45942028974500e-001

4.40173381804713e+005,-1.30536521807908e+001,-6.52760528766024e-001

4.46317973232124e+005,-1.30542616547614e+001,-6.59610580069103e-001

4.52548339959385e+005,-1.30548799628441e+001,-6.66491430470401e-001

4.58865679365059e+005,-1.30555070557130e+001,-6.73402329194204e-001

4.65271205542494e+005,-1.30561428757838e+001,-6.80342529236380e-001

4.71766149533147e+005,-1.30567873570583e+001,-6.87311289583276e-001

4.78351759563174e+005,-1.30574404249816e+001,-6.94307877515522e-001

4.85029301283321e+005,-1.30581019963128e+001,-7.01331570989430e-001

4.91800058012158e+005,-1.30587719790096e+001,-7.08381661098065e-001

4.98665330982714e+005,-1.30594502721287e+001,-7.15457454604902e-001

5.05626439592555e+005,-1.30601367657421e+001,-7.22558276539993e-001

5.12684721657352e+005,-1.30608313408703e+001,-7.29683472867992e-001

5.19841533667984e+005,-1.30615338694332e+001,-7.36832413205636e-001

5.27098251051240e+005,-1.30622442142193e+001,-7.44004493596187e-001

5.34456268434150e+005,-1.30629622288744e+001,-7.51199139327766e-001

5.41916999912011e+005,-1.30636877579103e+001,-7.58415807786454e-001

