Freq.,VOut,OutRef

1.00000000000000e+004,-1.78455731169422e+001,-2.44099421620371e-001

1.01395947979003e+004,-1.78455739139764e+001,-2.47506890005781e-001

1.02811382665607e+004,-1.78455747334153e+001,-2.50961923494697e-001

1.04246576084112e+004,-1.78455755758882e+001,-2.54465186013316e-001

1.05701804056138e+004,-1.78455764420428e+001,-2.58017350751557e-001

1.07177346253629e+004,-1.78455773325446e+001,-2.61619100296136e-001

1.08673486252606e+004,-1.78455782480778e+001,-2.65271126758362e-001

1.10190511587661e+004,-1.78455791893460e+001,-2.68974131908096e-001

1.11728713807222e+004,-1.78455801570725e+001,-2.72728827309626e-001

1.13288388529580e+004,-1.78455811520008e+001,-2.76535934456255e-001

1.14869835499703e+004,-1.78455821748954e+001,-2.80396184910753e-001

1.16473358646846e+004,-1.78455832265423e+001,-2.84310320443857e-001

1.18099266142953e+004,-1.78455843077494e+001,-2.88279093178160e-001

1.19747870461893e+004,-1.78455854193476e+001,-2.92303265731237e-001

1.21419488439505e+004,-1.78455865621910e+001,-2.96383611362964e-001

1.23114441334492e+004,-1.78455877371576e+001,-3.00520914124423e-001

1.24833054890161e+004,-1.78455889451501e+001,-3.04715969006075e-001

1.26575659397028e+004,-1.78455901870967e+001,-3.08969582092037e-001

1.28342589756290e+004,-1.78455914639514e+001,-3.13282570716492e-001

1.30134185544193e+004,-1.78455927766953e+001,-3.17655763616083e-001

1.31950791077289e+004,-1.78455941263369e+001,-3.22090001091619e-001

1.33792755478611e+004,-1.78455955139129e+001,-3.26586135171122e-001

1.35660432744767e+004,-1.78455969404895e+001,-3.31145029768055e-001

1.37554181813974e+004,-1.78455984071625e+001,-3.35767560852784e-001

1.39474366635040e+004,-1.78455999150586e+001,-3.40454616617083e-001

1.41421356237309e+004,-1.78456014653361e+001,-3.45207097644908e-001

1.43395524801583e+004,-1.78456030591859e+001,-3.50025917087224e-001

1.45397251732031e+004,-1.78456046978321e+001,-3.54912000834674e-001

1.47426921729110e+004,-1.78456063825337e+001,-3.59866287695251e-001

1.49484924863494e+004,-1.78456081145847e+001,-3.64889729576027e-001

1.51571656651040e+004,-1.78456098953152e+001,-3.69983291665939e-001

1.53687518128801e+004,-1.78456117260931e+001,-3.75147952617784e-001

1.55832915932100e+004,-1.78456136083245e+001,-3.80384704739713e-001

1.58008262372675e+004,-1.78456155434550e+001,-3.85694554182329e-001

1.60213975517924e+004,-1.78456175329708e+001,-3.91078521132893e-001

1.62450479271247e+004,-1.78456195783998e+001,-3.96537640012679e-001

1.64718203453514e+004,-1.78456216813128e+001,-4.02072959671277e-001

1.67017583885674e+004,-1.78456238433247e+001,-4.07685543591340e-001

1.69349062472505e+004,-1.78456260660959e+001,-4.13376470090196e-001

1.71713087287550e+004,-1.78456283513330e+001,-4.19146832528346e-001

1.74110112659224e+004,-1.78456307007909e+001,-4.24997739516362e-001

1.76540599258131e+004,-1.78456331162737e+001,-4.30930315129623e-001

1.79005014185594e+004,-1.78456355996358e+001,-4.36945699124269e-001

1.81503831063432e+004,-1.78456381527840e+001,-4.43045047151408e-001

1.84037530124975e+004,-1.78456407776787e+001,-4.49229530983472e-001

1.86606598307361e+004,-1.78456434763349e+001,-4.55500338736296e-001

1.89211529345119e+004,-1.78456462508244e+001,-4.61858675096443e-001

1.91852823865052e+004,-1.78456491032771e+001,-4.68305761553243e-001

1.94530989482457e+004,-1.78456520358828e+001,-4.74842836630002e-001

1.97246540898671e+004,-1.78456550508924e+001,-4.81471156125726e-001

1.99999999999999e+004,-1.78456581506202e+001,-4.88191993350711e-001

2.02791895958005e+004,-1.78456613374455e+001,-4.95006639373144e-001

2.05622765331213e+004,-1.78456646138141e+001,-5.01916403266546e-001

2.08493152168224e+004,-1.78456679822406e+001,-5.08922612358207e-001

2.11403608112276e+004,-1.78456714453099e+001,-5.16026612484759e-001

2.14354692507258e+004,-1.78456750056798e+001,-5.23229768249076e-001

2.17346972505211e+004,-1.78456786660822e+001,-5.30533463282002e-001

2.20381023175322e+004,-1.78456824293261e+001,-5.37939100505897e-001

2.23457427614443e+004,-1.78456862982985e+001,-5.45448102405913e-001

2.26576777059159e+004,-1.78456902759682e+001,-5.53061911297321e-001

2.29739670999406e+004,-1.78456943653867e+001,-5.60781989605281e-001

2.32946717293690e+004,-1.78456985696913e+001,-5.68609820142664e-001

2.36198532285905e+004,-1.78457028921070e+001,-5.76546906394462e-001

2.39495740923785e+004,-1.78457073359495e+001,-5.84594772804464e-001

2.42838976879009e+004,-1.78457119046272e+001,-5.92754965066856e-001

2.46228882668982e+004,-1.78457166016442e+001,-6.01029050421195e-001

2.49666109780322e+004,-1.78457214306026e+001,-6.09418617953869e-001

2.53151318794055e+004,-1.78457263952055e+001,-6.17925278897569e-001

2.56685179512580e+004,-1.78457314992600e+001,-6.26550666943375e-001

2.60268371088386e+004,-1.78457367466793e+001,-6.35296438551043e-001

2.63901582154578e+004,-1.78457421414869e+001,-6.44164273263530e-001

2.67585510957221e+004,-1.78457476878184e+001,-6.53155874031034e-001

2.71320865489533e+004,-1.78457533899257e+001,-6.62272967532857e-001

2.75108363627948e+004,-1.78457592521793e+001,-6.71517304509848e-001

2.78948733270080e+004,-1.78457652790726e+001,-6.80890660094384e-001

2.82842712474618e+004,-1.78457714752243e+001,-6.90394834153992e-001

2.86791049603164e+004,-1.78457778453828e+001,-7.00031651631214e-001

2.90794503464061e+004,-1.78457843944291e+001,-7.09802962891442e-001

2.94853843458219e+004,-1.78457911273811e+001,-7.19710644077934e-001

2.98969849726987e+004,-1.78457980493967e+001,-7.29756597467989e-001

3.03143313302078e+004,-1.78458051657787e+001,-7.39942751834488e-001

3.07375036257601e+004,-1.78458124819778e+001,-7.50271062815088e-001

3.11665831864199e+004,-1.78458200035972e+001,-7.60743513284425e-001

3.16016524745350e+004,-1.78458277363971e+001,-7.71362113730491e-001

3.20427951035848e+004,-1.78458356862985e+001,-7.82128902638023e-001

3.24900958542493e+004,-1.78458438593881e+001,-7.93045946876191e-001

3.29436406907028e+004,-1.78458522619226e+001,-8.04115342093506e-001

3.34035167771346e+004,-1.78458609003340e+001,-8.15339213112450e-001

3.38698124945009e+004,-1.78458697812334e+001,-8.26719714339250e-001

3.43426174575100e+004,-1.78458789114172e+001,-8.38259030166801e-001

3.48220225318448e+004,-1.78458882978714e+001,-8.49959375395609e-001

3.53081198516260e+004,-1.78458979477772e+001,-8.61822995651316e-001

3.58010028371187e+004,-1.78459078685164e+001,-8.73852167810964e-001

3.63007662126863e+004,-1.78459180676769e+001,-8.86049200437973e-001

3.68075060249948e+004,-1.78459285530583e+001,-8.98416434216968e-001

3.73213196614721e+004,-1.78459393326781e+001,-9.10956242400259e-001

3.78423058690237e+004,-1.78459504147775e+001,-9.23671031256100e-001

3.83705647730104e+004,-1.78459618078274e+001,-9.36563240526975e-001

3.89061978964912e+004,-1.78459735205354e+001,-9.49635343889905e-001

3.94493081797342e+004,-1.78459855618515e+001,-9.62889849426946e-001

3.99999999999998e+004,-1.78459979409756e+001,-9.76329300097380e-001

4.05583791916010e+004,-1.78460106673638e+001,-9.89956274222309e-001

4.11245530662425e+004,-1.78460237507358e+001,-1.00377338597058e+000

4.16986304336447e+004,-1.78460372010823e+001,-1.01778328585245e+000

4.22807216224550e+004,-1.78460510286721e+001,-1.03198866122353e+000

4.28709385014515e+004,-1.78460652440599e+001,-1.04639223678931e+000

4.34693945010421e+004,-1.78460798580944e+001,-1.06099677512168e+000

4.40762046350642e+004,-1.78460948819263e+001,-1.07580507718020e+000

4.46914855228886e+004,-1.78461103270162e+001,-1.09081998284007e+000

4.53153554118317e+004,-1.78461262051440e+001,-1.10604437142744e+000

4.59479341998812e+004,-1.78461425284169e+001,-1.12148116226406e+000

4.65893434587380e+004,-1.78461593092786e+001,-1.13713331521458e+000

4.72397064571810e+004,-1.78461765605188e+001,-1.15300383124551e+000

4.78991481847569e+004,-1.78461942952825e+001,-1.16909575298958e+000

4.85677953758016e+004,-1.78462125270798e+001,-1.18541216531767e+000

4.92457765337964e+004,-1.78462312697957e+001,-1.20195619591924e+000

4.99332219560642e+004,-1.78462505377009e+001,-1.21873101588916e+000

5.06302637588109e+004,-1.78462703454618e+001,-1.23573984032384e+000

5.13370359025159e+004,-1.78462907081515e+001,-1.25298592892341e+000

5.20536742176771e+004,-1.78463116412611e+001,-1.27047258660423e+000

5.27803164309155e+004,-1.78463331607109e+001,-1.28820316411635e+000

5.35171021914442e+004,-1.78463552828625e+001,-1.30618105867252e+000

5.42641730979066e+004,-1.78463780245300e+001,-1.32440971458262e+000

5.50216727255895e+004,-1.78464014029935e+001,-1.34289262389871e+000

5.57897466540159e+004,-1.78464254360108e+001,-1.36163332706588e+000

5.65685424949235e+004,-1.78464501418307e+001,-1.38063541358522e+000

5.73582099206328e+004,-1.78464755392067e+001,-1.39990252268211e+000

5.81589006928121e+004,-1.78465016474103e+001,-1.41943834398436e+000

5.89707686916437e+004,-1.78465284862451e+001,-1.43924661820939e+000

5.97939699453972e+004,-1.78465560760613e+001,-1.45933113786220e+000

6.06286626604156e+004,-1.78465844377707e+001,-1.47969574793676e+000

6.14750072515201e+004,-1.78466135928612e+001,-1.50034434663428e+000

6.23331663728396e+004,-1.78466435634134e+001,-1.52128088608361e+000

6.32033049490698e+004,-1.78466743721159e+001,-1.54250937307504e+000

6.40855902071694e+004,-1.78467060422813e+001,-1.56403386980356e+000

6.49801917084985e+004,-1.78467385978643e+001,-1.58585849461824e+000

6.58872813814055e+004,-1.78467720634778e+001,-1.60798742278566e+000

6.68070335542691e+004,-1.78468064644108e+001,-1.63042488726010e+000

6.77396249890018e+004,-1.78468418266469e+001,-1.65317517946458e+000

6.86852349150199e+004,-1.78468781768828e+001,-1.67624265008097e+000

6.96440450636895e+004,-1.78469155425471e+001,-1.69963170985227e+000

7.06162397032520e+004,-1.78469539518201e+001,-1.72334683039232e+000

7.16020056742374e+004,-1.78469934336538e+001,-1.74739254500751e+000

7.26015324253724e+004,-1.78470340177924e+001,-1.77177344952842e+000

7.36150120499896e+004,-1.78470757347933e+001,-1.79649420315173e+000

7.46426393229441e+004,-1.78471186160489e+001,-1.82155952929274e+000

7.56846117380472e+004,-1.78471626938088e+001,-1.84697421644851e+000

7.67411295460207e+004,-1.78472080012018e+001,-1.87274311907208e+000

7.78123957929823e+004,-1.78472545722602e+001,-1.89887115845603e+000

7.88986163594682e+004,-1.78473024419427e+001,-1.92536332363096e+000

7.99999999999995e+004,-1.78473516461593e+001,-1.95222467226919e+000

8.11167583832018e+004,-1.78474022217962e+001,-1.97946033160425e+000

8.22491061324848e+004,-1.78474542067412e+001,-2.00707549936050e+000

8.33972608672892e+004,-1.78475076399101e+001,-2.03507544469286e+000

8.45614432449099e+004,-1.78475625612738e+001,-2.06346550913871e+000

8.57418770029029e+004,-1.78476190118852e+001,-2.09225110758233e+000

8.69387890020841e+004,-1.78476770339078e+001,-2.12143772923002e+000

8.81524092701283e+004,-1.78477366706446e+001,-2.15103093859651e+000

8.93829710457770e+004,-1.78477979665671e+001,-2.18103637650419e+000

9.06307108236633e+004,-1.78478609673462e+001,-2.21145976109433e+000

9.18958683997622e+004,-1.78479257198823e+001,-2.24230688884986e+000

9.31786869174758e+004,-1.78479922723380e+001,-2.27358363562958e+000

9.44794129143618e+004,-1.78480606741691e+001,-2.30529595771782e+000

9.57982963695136e+004,-1.78481309761591e+001,-2.33744989288120e+000

9.71355907516031e+004,-1.78482032304521e+001,-2.37005156144331e+000

9.84915530675926e+004,-1.78482774905878e+001,-2.40310716736808e+000

9.98664439121282e+004,-1.78483538115368e+001,-2.43662299935845e+000

1.01260527517622e+005,-1.78484322497371e+001,-2.47060543196471e+000

1.02674071805032e+005,-1.78485128631307e+001,-2.50506092670928e+000

1.04107348435354e+005,-1.78485957112017e+001,-2.53999603322241e+000

1.05560632861831e+005,-1.78486808550150e+001,-2.57541739038979e+000

1.07034204382888e+005,-1.78487683572557e+001,-2.61133172751733e+000

1.08528346195813e+005,-1.78488582822695e+001,-2.64774586550353e+000

1.10043345451179e+005,-1.78489506961040e+001,-2.68466671803138e+000

1.11579493308032e+005,-1.78490456665507e+001,-2.72210129276778e+000

1.13137084989847e+005,-1.78491432631880e+001,-2.76005669258107e+000

1.14716419841265e+005,-1.78492435574254e+001,-2.79854011676996e+000

1.16317801385624e+005,-1.78493466225478e+001,-2.83755886230615e+000

1.17941537383287e+005,-1.78494525337618e+001,-2.87712032509113e+000

1.19587939890794e+005,-1.78495613682418e+001,-2.91723200122852e+000

1.21257325320831e+005,-1.78496732051781e+001,-2.95790148830647e+000

1.22950014503040e+005,-1.78497881258252e+001,-2.99913648669876e+000

1.24666332745679e+005,-1.78499062135512e+001,-3.04094480087638e+000

1.26406609898139e+005,-1.78500275538885e+001,-3.08333434073587e+000

1.28171180414339e+005,-1.78501522345851e+001,-3.12631312294060e+000

1.29960383416997e+005,-1.78502803456572e+001,-3.16988927227813e+000

1.31774562762811e+005,-1.78504119794423e+001,-3.21407102302922e+000

1.33614067108538e+005,-1.78505472306537e+001,-3.25886672035617e+000

1.35479249978003e+005,-1.78506861964363e+001,-3.30428482170064e+000

1.37370469830040e+005,-1.78508289764222e+001,-3.35033389820137e+000

1.39288090127379e+005,-1.78509756727888e+001,-3.39702263612325e+000

1.41232479406504e+005,-1.78511263903169e+001,-3.44435983830390e+000

1.43204011348474e+005,-1.78512812364499e+001,-3.49235442561432e+000

1.45203064850745e+005,-1.78514403213547e+001,-3.54101543843569e+000

1.47230024099979e+005,-1.78516037579829e+001,-3.59035203815038e+000

1.49285278645888e+005,-1.78517716621329e+001,-3.64037350865156e+000

1.51369223476094e+005,-1.78519441525139e+001,-3.69108925786478e+000

1.53482259092041e+005,-1.78521213508098e+001,-3.74250881928944e+000

1.55624791585964e+005,-1.78523033817453e+001,-3.79464185355276e+000

1.57797232718936e+005,-1.78524903731518e+001,-3.84749814998342e+000

1.59999999999999e+005,-1.78526824560349e+001,-3.90108762819881e+000

1.62233516766403e+005,-1.78528797646432e+001,-3.95542033971142e+000

1.64498212264969e+005,-1.78530824365373e+001,-4.01050646955015e+000

1.66794521734578e+005,-1.78532906126602e+001,-4.06635633790043e+000

1.69122886489819e+005,-1.78535044374092e+001,-4.12298040175953e+000

1.71483754005805e+005,-1.78537240587074e+001,-4.18038925661134e+000

1.73877578004168e+005,-1.78539496280775e+001,-4.23859363811830e+000

1.76304818540256e+005,-1.78541813007160e+001,-4.29760442383107e+000

1.78765942091554e+005,-1.78544192355678e+001,-4.35743263491611e+000

1.81261421647326e+005,-1.78546635954027e+001,-4.41808943790377e+000

1.83791736799524e+005,-1.78549145468922e+001,-4.47958614645235e+000

1.86357373834951e+005,-1.78551722606872e+001,-4.54193422313393e+000

1.88958825828723e+005,-1.78554369114965e+001,-4.60514528123832e+000

1.91596592739027e+005,-1.78557086781667e+001,-4.66923108659820e+000

1.94271181503206e+005,-1.78559877437622e+001,-4.73420355943297e+000

1.96983106135185e+005,-1.78562742956465e+001,-4.80007477621415e+000

1.99732887824256e+005,-1.78565685255641e+001,-4.86685697155294e+000

2.02521055035243e+005,-1.78568706297234e+001,-4.93456254010774e+000

2.05348143610063e+005,-1.78571808088798e+001,-5.00320403851465e+000

2.08214696870707e+005,-1.78574992684205e+001,-5.07279418734145e+000

2.11121265723661e+005,-1.78578262184493e+001,-5.14334587306262e+000

2.14068408765776e+005,-1.78581618738722e+001,-5.21487215006038e+000

2.17056692391625e+005,-1.78585064544839e+001,-5.28738624264970e+000

2.20086690902357e+005,-1.78588601850552e+001,-5.36090154712717e+000

2.23158986616063e+005,-1.78592232954208e+001,-5.43543163384694e+000

2.26274169979693e+005,-1.78595960205676e+001,-5.51099024932288e+000

2.29432839682530e+005,-1.78599786007241e+001,-5.58759131835808e+000

2.32635602771247e+005,-1.78603712814507e+001,-5.66524894620170e+000

2.35883074766574e+005,-1.78607743137295e+001,-5.74397742073625e+000

2.39175879781588e+005,-1.78611879540565e+001,-5.82379121469339e+000

2.42514650641661e+005,-1.78616124645329e+001,-5.90470498790081e+000

2.45900029006080e+005,-1.78620481129584e+001,-5.98673358956141e+000

2.49332665491357e+005,-1.78624951729243e+001,-6.06989206056466e+000

2.52813219796278e+005,-1.78629539239078e+001,-6.15419563583261e+000

2.56342360828676e+005,-1.78634246513671e+001,-6.23965974669927e+000

2.59920766833993e+005,-1.78639076468374e+001,-6.32630002332755e+000

2.63549125525621e+005,-1.78644032080275e+001,-6.41413229716341e+000

2.67228134217075e+005,-1.78649116389172e+001,-6.50317260342794e+000

2.70958499956006e+005,-1.78654332498567e+001,-6.59343718364916e+000

2.74740939660078e+005,-1.78659683576658e+001,-6.68494248823573e+000

2.78576180254757e+005,-1.78665172857349e+001,-6.77770517909284e+000

2.82464958813007e+005,-1.78670803641275e+001,-6.87174213228152e+000

2.86408022696948e+005,-1.78676579296836e+001,-6.96707044072418e+000

2.90406129701488e+005,-1.78682503261244e+001,-7.06370741695668e+000

2.94460048199957e+005,-1.78688579041597e+001,-7.16167059592813e+000

2.98570557291775e+005,-1.78694810215957e+001,-7.26097773785137e+000

3.02738446952187e+005,-1.78701200434459e+001,-7.36164683110471e+000

3.06964518184081e+005,-1.78707753420432e+001,-7.46369609518637e+000

3.11249583171928e+005,-1.78714472971550e+001,-7.56714398372416e+000

3.15594465437872e+005,-1.78721362961007e+001,-7.67200918754053e+000

3.19999999999997e+005,-1.78728427338715e+001,-7.77831063777586e+000

3.24467033532806e+005,-1.78735670132541e+001,-7.88606750907168e+000

3.28996424529938e+005,-1.78743095449567e+001,-7.99529922281368e+000

3.33589043469155e+005,-1.78750707477397e+001,-8.10602545043865e+000

3.38245772979638e+005,-1.78758510485493e+001,-8.21826611680441e+000

3.42967508011610e+005,-1.78766508826562e+001,-8.33204140362595e+000

3.47755156008335e+005,-1.78774706937983e+001,-8.44737175297844e+000

3.52609637080511e+005,-1.78783109343291e+001,-8.56427787086906e+000

3.57531884183106e+005,-1.78791720653708e+001,-8.68278073087749e+000

3.62522843294651e+005,-1.78800545569738e+001,-8.80290157786939e+000

3.67583473599047e+005,-1.78809588882828e+001,-8.92466193178010e+000

3.72714747669902e+005,-1.78818855477085e+001,-9.04808359147303e+000

3.77917651657445e+005,-1.78828350331085e+001,-9.17318863867100e+000

3.83193185478053e+005,-1.78838078519744e+001,-9.29999944196434e+000

3.88542363006410e+005,-1.78848045216282e+001,-9.42853866089237e+000

3.93966212270369e+005,-1.78858255694277e+001,-9.55882925010317e+000

3.99465775648511e+005,-1.78868715329814e+001,-9.69089446358845e+000

4.05042110070485e+005,-1.78879429603735e+001,-9.82475785899599e+000

4.10696287220124e+005,-1.78890404104005e+001,-9.96044330201742e+000

4.16429393741414e+005,-1.78901644528181e+001,-1.00979749708537e+001

4.22242531447321e+005,-1.78913156686021e+001,-1.02373773607553e+001

4.28136817531551e+005,-1.78924946502209e+001,-1.03786752886379e+001

4.34113384783250e+005,-1.78937020019223e+001,-1.05218938977713e+001

4.40173381804713e+005,-1.78949383400348e+001,-1.06670586625426e+001

4.46317973232124e+005,-1.78962042932841e+001,-1.08141953932878e+001

4.52548339959385e+005,-1.78975005031253e+001,-1.09633302411947e+001

4.58865679365059e+005,-1.78988276240921e+001,-1.11144897032722e+001

4.65271205542494e+005,-1.79001863241636e+001,-1.12677006273829e+001

4.71766149533147e+005,-1.79015772851491e+001,-1.14229902173377e+001

4.78351759563174e+005,-1.79030012030922e+001,-1.15803860380492e+001

4.85029301283321e+005,-1.79044587886945e+001,-1.17399160207389e+001

4.91800058012158e+005,-1.79059507677602e+001,-1.19016084681943e+001

4.98665330982714e+005,-1.79074778816616e+001,-1.20654920600742e+001

5.05626439592555e+005,-1.79090408878271e+001,-1.22315958582531e+001

5.12684721657352e+005,-1.79106405602514e+001,-1.23999493122040e+001

5.19841533667984e+005,-1.79122776900298e+001,-1.25705822644113e+001

5.27098251051240e+005,-1.79139530859160e+001,-1.27435249558086e+001

5.34456268434150e+005,-1.79156675749051e+001,-1.29188080312360e+001

5.41916999912011e+005,-1.79174220028414e+001,-1.30964625449094e+001

