Freq.,VOut,OutRef

1.00000000000000e+004,-2.88716550984579e+001,-4.85692416443843e-002

1.01395947979003e+004,-2.88716553370084e+001,-4.92472252434205e-002

1.02811382665607e+004,-2.88716555822636e+001,-4.99346723872503e-002

1.04246576084112e+004,-2.88716558344120e+001,-5.06317151491887e-002

1.05701804056138e+004,-2.88716560936469e+001,-5.13384874474367e-002

1.07177346253629e+004,-2.88716563601675e+001,-5.20551250658988e-002

1.08673486252606e+004,-2.88716566341788e+001,-5.27817656821305e-002

1.10190511587661e+004,-2.88716569158910e+001,-5.35185488957042e-002

1.11728713807222e+004,-2.88716572055204e+001,-5.42656162528876e-002

1.13288388529580e+004,-2.88716575032892e+001,-5.50231112755774e-002

1.14869835499703e+004,-2.88716578094268e+001,-5.57911794815307e-002

1.16473358646846e+004,-2.88716581241679e+001,-5.65699684247362e-002

1.18099266142953e+004,-2.88716584477539e+001,-5.73596277162728e-002

1.19747870461893e+004,-2.88716587804337e+001,-5.81603090493137e-002

1.21419488439505e+004,-2.88716591224626e+001,-5.89721662360036e-002

1.23114441334492e+004,-2.88716594741033e+001,-5.97953552330088e-002

1.24833054890161e+004,-2.88716598356257e+001,-6.06300341714576e-002

1.26575659397028e+004,-2.88716602073073e+001,-6.14763633891458e-002

1.28342589756290e+004,-2.88716605894337e+001,-6.23345054558423e-002

1.30134185544193e+004,-2.88716609822980e+001,-6.32046252124508e-002

1.31950791077289e+004,-2.88716613862021e+001,-6.40868897951125e-002

1.33792755478611e+004,-2.88716618014556e+001,-6.49814686737453e-002

1.35660432744767e+004,-2.88716622283778e+001,-6.58885336765499e-002

1.37554181813974e+004,-2.88716626672961e+001,-6.68082590309521e-002

1.39474366635040e+004,-2.88716631185475e+001,-6.77408213928255e-002

1.41421356237309e+004,-2.88716635824782e+001,-6.86863998806111e-002

1.43395524801583e+004,-2.88716640594445e+001,-6.96451761076437e-002

1.45397251732031e+004,-2.88716645498124e+001,-7.06173342222317e-002

1.47426921729110e+004,-2.88716650539581e+001,-7.16030609375464e-002

1.49484924863494e+004,-2.88716655722687e+001,-7.26025455698180e-002

1.51571656651040e+004,-2.88716661051414e+001,-7.36159800765271e-002

1.53687518128801e+004,-2.88716666529858e+001,-7.46435590848783e-002

1.55832915932100e+004,-2.88716672162218e+001,-7.56854799400267e-002

1.58008262372675e+004,-2.88716677952817e+001,-7.67419427343836e-002

1.60213975517924e+004,-2.88716683906097e+001,-7.78131503507520e-002

1.62450479271247e+004,-2.88716690026624e+001,-7.88993084985985e-002

1.64718203453514e+004,-2.88716696319093e+001,-8.00006257531149e-002

1.67017583885674e+004,-2.88716702788333e+001,-8.11173135951681e-002

1.69349062472505e+004,-2.88716709439306e+001,-8.22495864539748e-002

1.71713087287550e+004,-2.88716716277109e+001,-8.33976617463838e-002

1.74110112659224e+004,-2.88716723306991e+001,-8.45617599157098e-002

1.76540599258131e+004,-2.88716730534340e+001,-8.57421044788508e-002

1.79005014185594e+004,-2.88716737964697e+001,-8.69389220658231e-002

1.81503831063432e+004,-2.88716745603761e+001,-8.81524424624056e-002

1.84037530124975e+004,-2.88716753457389e+001,-8.93828986553931e-002

1.86606598307361e+004,-2.88716761531600e+001,-9.06305268764599e-002

1.89211529345119e+004,-2.88716769832585e+001,-9.18955666478828e-002

1.91852823865052e+004,-2.88716778366706e+001,-9.31782608265671e-002

1.94530989482457e+004,-2.88716787140504e+001,-9.44788556520620e-002

1.97246540898671e+004,-2.88716796160704e+001,-9.57976007901672e-002

1.99999999999999e+004,-2.88716805434217e+001,-9.71347493858903e-002

2.02791895958005e+004,-2.88716814968149e+001,-9.84905581063118e-002

2.05622765331213e+004,-2.88716824769804e+001,-9.98652871940595e-002

2.08493152168224e+004,-2.88716834846693e+001,-1.01259200509775e-001

2.11403608112276e+004,-2.88716845206533e+001,-1.02672565591475e-001

2.14354692507258e+004,-2.88716855857260e+001,-1.04105653697170e-001

2.17346972505211e+004,-2.88716866807029e+001,-1.05558739862287e-001

2.20381023175322e+004,-2.88716878064228e+001,-1.07032102946181e-001

2.23457427614443e+004,-2.88716889637476e+001,-1.08526025690846e-001

2.26576777059159e+004,-2.88716901535633e+001,-1.10040794771939e-001

2.29739670999406e+004,-2.88716913767806e+001,-1.11576700852298e-001

2.32946717293690e+004,-2.88716926343361e+001,-1.13134038635462e-001

2.36198532285905e+004,-2.88716939271920e+001,-1.14713106929162e-001

2.39495740923785e+004,-2.88716952563375e+001,-1.16314208693050e-001

2.42838976879009e+004,-2.88716966227900e+001,-1.17937651099042e-001

2.46228882668982e+004,-2.88716980275947e+001,-1.19583745591218e-001

2.49666109780322e+004,-2.88716994718262e+001,-1.21252807944131e-001

2.53151318794055e+004,-2.88717009565889e+001,-1.22945158321230e-001

2.56685179512580e+004,-2.88717024830184e+001,-1.24661121336092e-001

2.60268371088386e+004,-2.88717040522819e+001,-1.26401026111808e-001

2.63901582154578e+004,-2.88717056655788e+001,-1.28165206348612e-001

2.67585510957221e+004,-2.88717073241423e+001,-1.29954000379979e-001

2.71320865489533e+004,-2.88717090292404e+001,-1.31767751239521e-001

2.75108363627948e+004,-2.88717107821752e+001,-1.33606806730395e-001

2.78948733270080e+004,-2.88717125842867e+001,-1.35471519478613e-001

2.82842712474618e+004,-2.88717144369509e+001,-1.37362247013151e-001

2.86791049603164e+004,-2.88717163415828e+001,-1.39279351824989e-001

2.90794503464061e+004,-2.88717182996369e+001,-1.41223201436713e-001

2.94853843458219e+004,-2.88717203126077e+001,-1.43194168473251e-001

2.98969849726987e+004,-2.88717223820321e+001,-1.45192630728365e-001

3.03143313302078e+004,-2.88717245094888e+001,-1.47218971241730e-001

3.07375036257601e+004,-2.88717266966014e+001,-1.49273578364330e-001

3.11665831864199e+004,-2.88717289450379e+001,-1.51356845834501e-001

3.16016524745350e+004,-2.88717312565132e+001,-1.53469172852349e-001

3.20427951035848e+004,-2.88717336327897e+001,-1.55610964150312e-001

3.24900958542493e+004,-2.88717360756787e+001,-1.57782630075719e-001

3.29436406907028e+004,-2.88717385870420e+001,-1.59984586660402e-001

3.34035167771346e+004,-2.88717411687928e+001,-1.62217255703518e-001

3.38698124945009e+004,-2.88717438228979e+001,-1.64481064847771e-001

3.43426174575100e+004,-2.88717465513785e+001,-1.66776447657196e-001

3.48220225318448e+004,-2.88717493563116e+001,-1.69103843705121e-001

3.53081198516260e+004,-2.88717522398324e+001,-1.71463698646871e-001

3.58010028371187e+004,-2.88717552041345e+001,-1.73856464310536e-001

3.63007662126863e+004,-2.88717582514732e+001,-1.76282598773828e-001

3.68075060249948e+004,-2.88717613841655e+001,-1.78742566455799e-001

3.73213196614721e+004,-2.88717646045932e+001,-1.81236838197720e-001

3.78423058690237e+004,-2.88717679152035e+001,-1.83765891354183e-001

3.83705647730104e+004,-2.88717713185115e+001,-1.86330209878814e-001

3.89061978964912e+004,-2.88717748171023e+001,-1.88930284412967e-001

3.94493081797342e+004,-2.88717784136317e+001,-1.91566612381229e-001

3.99999999999998e+004,-2.88717821108296e+001,-1.94239698076441e-001

4.05583791916010e+004,-2.88717859115007e+001,-1.96950052759854e-001

4.11245530662425e+004,-2.88717898185275e+001,-1.99698194747272e-001

4.16986304336447e+004,-2.88717938348718e+001,-2.02484649512027e-001

4.22807216224550e+004,-2.88717979635774e+001,-2.05309949774850e-001

4.28709385014515e+004,-2.88718022077716e+001,-2.08174635607251e-001

4.34693945010421e+004,-2.88718065706681e+001,-2.11079254526453e-001

4.40762046350642e+004,-2.88718110555689e+001,-2.14024361596664e-001

4.46914855228886e+004,-2.88718156658671e+001,-2.17010519530078e-001

4.53153554118317e+004,-2.88718204050487e+001,-2.20038298791707e-001

4.59479341998812e+004,-2.88718252766958e+001,-2.23108277699909e-001

4.65893434587380e+004,-2.88718302844887e+001,-2.26221042534327e-001

4.72397064571810e+004,-2.88718354322091e+001,-2.29377187638131e-001

4.78991481847569e+004,-2.88718407237417e+001,-2.32577315532705e-001

4.85677953758016e+004,-2.88718461630782e+001,-2.35822037020301e-001

4.92457765337964e+004,-2.88718517543192e+001,-2.39111971298054e-001

4.99332219560642e+004,-2.88718575016781e+001,-2.42447746066025e-001

5.06302637588109e+004,-2.88718634094827e+001,-2.45829997645269e-001

5.13370359025159e+004,-2.88718694821799e+001,-2.49259371086960e-001

5.20536742176771e+004,-2.88718757243373e+001,-2.52736520292039e-001

5.27803164309155e+004,-2.88718821406473e+001,-2.56262108125787e-001

5.35171021914442e+004,-2.88718887359303e+001,-2.59836806538369e-001

5.42641730979066e+004,-2.88718955151378e+001,-2.63461296681592e-001

5.50216727255895e+004,-2.88719024833561e+001,-2.67136269033443e-001

5.57897466540159e+004,-2.88719096458096e+001,-2.70862423518421e-001

5.65685424949235e+004,-2.88719170078647e+001,-2.74640469632182e-001

5.73582099206328e+004,-2.88719245750330e+001,-2.78471126568056e-001

5.81589006928121e+004,-2.88719323529758e+001,-2.82355123341306e-001

5.89707686916437e+004,-2.88719403475074e+001,-2.86293198920911e-001

5.97939699453972e+004,-2.88719485645997e+001,-2.90286102354216e-001

6.06286626604156e+004,-2.88719570103854e+001,-2.94334592903410e-001

6.14750072515201e+004,-2.88719656911627e+001,-2.98439440175526e-001

6.23331663728396e+004,-2.88719746133996e+001,-3.02601424257061e-001

6.32033049490698e+004,-2.88719837837382e+001,-3.06821335847790e-001

6.40855902071694e+004,-2.88719932089992e+001,-3.11099976399072e-001

6.49801917084985e+004,-2.88720028961860e+001,-3.15438158253941e-001

6.58872813814055e+004,-2.88720128524900e+001,-3.19836704782831e-001

6.68070335542691e+004,-2.88720230852951e+001,-3.24296450530440e-001

6.77396249890018e+004,-2.88720336021824e+001,-3.28818241352377e-001

6.86852349150199e+004,-2.88720444109356e+001,-3.33402934564991e-001

6.96440450636895e+004,-2.88720555195457e+001,-3.38051399086557e-001

7.06162397032520e+004,-2.88720669362162e+001,-3.42764515588799e-001

7.16020056742374e+004,-2.88720786693688e+001,-3.47543176642419e-001

7.26015324253724e+004,-2.88720907276485e+001,-3.52388286868661e-001

7.36150120499896e+004,-2.88721031199292e+001,-3.57300763090208e-001

7.46426393229441e+004,-2.88721158553193e+001,-3.62281534486458e-001

7.56846117380472e+004,-2.88721289431676e+001,-3.67331542745842e-001

7.67411295460207e+004,-2.88721423930690e+001,-3.72451742223293e-001

7.78123957929823e+004,-2.88721562148709e+001,-3.77643100096027e-001

7.88986163594682e+004,-2.88721704186787e+001,-3.82906596525913e-001

7.99999999999995e+004,-2.88721850148627e+001,-3.88243224816945e-001

8.11167583832018e+004,-2.88722000140640e+001,-3.93653991578542e-001

8.22491061324848e+004,-2.88722154272011e+001,-3.99139916888703e-001

8.33972608672892e+004,-2.88722312654766e+001,-4.04702034459320e-001

8.45614432449099e+004,-2.88722475403840e+001,-4.10341391801937e-001

8.57418770029029e+004,-2.88722642637141e+001,-4.16059050395330e-001

8.69387890020841e+004,-2.88722814475625e+001,-4.21856085856565e-001

8.81524092701283e+004,-2.88722991043365e+001,-4.27733588106834e-001

8.93829710457770e+004,-2.88723172467622e+001,-4.33692661549886e-001

9.06307108236633e+004,-2.88723358878920e+001,-4.39734425239441e-001

9.18958683997622e+004,-2.88723550411119e+001,-4.45860013057546e-001

9.31786869174758e+004,-2.88723747201491e+001,-4.52070573888971e-001

9.44794129143618e+004,-2.88723949390797e+001,-4.58367271799106e-001

9.57982963695136e+004,-2.88724157123368e+001,-4.64751286211715e-001

9.71355907516031e+004,-2.88724370547176e+001,-4.71223812090409e-001

9.84915530675926e+004,-2.88724589813925e+001,-4.77786060118248e-001

9.98664439121282e+004,-2.88724815079122e+001,-4.84439256882194e-001

1.01260527517622e+005,-2.88725046502167e+001,-4.91184645054658e-001

1.02674071805032e+005,-2.88725284246434e+001,-4.98023483578509e-001

1.04107348435354e+005,-2.88725528479351e+001,-5.04957047855716e-001

1.05560632861831e+005,-2.88725779372493e+001,-5.11986629932379e-001

1.07034204382888e+005,-2.88726037101662e+001,-5.19113538687565e-001

1.08528346195813e+005,-2.88726301846978e+001,-5.26339100023680e-001

1.10043345451179e+005,-2.88726573792963e+001,-5.33664657055697e-001

1.11579493308032e+005,-2.88726853128634e+001,-5.41091570304232e-001

1.13137084989847e+005,-2.88727140047588e+001,-5.48621217888447e-001

1.14716419841265e+005,-2.88727434748096e+001,-5.56254995718380e-001

1.16317801385624e+005,-2.88727737433190e+001,-5.63994317690459e-001

1.17941537383287e+005,-2.88728048310755e+001,-5.71840615885051e-001

1.19587939890794e+005,-2.88728367593621e+001,-5.79795340760099e-001

1.21257325320831e+005,-2.88728695499653e+001,-5.87859961351660e-001

1.22950014503040e+005,-2.88729032251845e+001,-5.96035965470618e-001

1.24666332745679e+005,-2.88729378078409e+001,-6.04324859902525e-001

1.26406609898139e+005,-2.88729733212870e+001,-6.12728170607517e-001

1.28171180414339e+005,-2.88730097894154e+001,-6.21247442923370e-001

1.29960383416997e+005,-2.88730472366682e+001,-6.29884241763975e-001

1.31774562762811e+005,-2.88730856880458e+001,-6.38640151825282e-001

1.33614067108538e+005,-2.88731251691164e+001,-6.47516777786976e-001

1.35479249978003e+005,-2.88731657060244e+001,-6.56515744516092e-001

1.37370469830040e+005,-2.88732073254998e+001,-6.65638697273095e-001

1.39288090127379e+005,-2.88732500548665e+001,-6.74887301916867e-001

1.41232479406504e+005,-2.88732939220511e+001,-6.84263245110838e-001

1.43204011348474e+005,-2.88733389555917e+001,-6.93768234529464e-001

1.45203064850745e+005,-2.88733851846455e+001,-7.03403999066692e-001

1.47230024099979e+005,-2.88734326389978e+001,-7.13172289042452e-001

1.49285278645888e+005,-2.88734813490693e+001,-7.23074876413555e-001

1.51369223476094e+005,-2.88735313459241e+001,-7.33113554980821e-001

1.53482259092041e+005,-2.88735826612769e+001,-7.43290140601849e-001

1.55624791585964e+005,-2.88736353275007e+001,-7.53606471398042e-001

1.57797232718936e+005,-2.88736893776327e+001,-7.64064407970454e-001

1.59999999999999e+005,-2.88737448453819e+001,-7.74665833607948e-001

1.62233516766403e+005,-2.88738017651344e+001,-7.85412654502392e-001

1.64498212264969e+005,-2.88738601719595e+001,-7.96306799962263e-001

1.66794521734578e+005,-2.88739201016149e+001,-8.07350222625729e-001

1.69122886489819e+005,-2.88739815905517e+001,-8.18544898676426e-001

1.71483754005805e+005,-2.88740446759185e+001,-8.29892828061506e-001

1.73877578004168e+005,-2.88741093955654e+001,-8.41396034706327e-001

1.76304818540256e+005,-2.88741757880472e+001,-8.53056566734173e-001

1.78765942091554e+005,-2.88742438926258e+001,-8.64876496685453e-001

1.81261421647326e+005,-2.88743137492723e+001,-8.76857921739451e-001

1.83791736799524e+005,-2.88743853986685e+001,-8.89002963934893e-001

1.86357373834951e+005,-2.88744588822070e+001,-9.01313770395480e-001

1.88958825828723e+005,-2.88745342419910e+001,-9.13792513554837e-001

1.91596592739027e+005,-2.88746115208338e+001,-9.26441391382563e-001

1.94271181503206e+005,-2.88746907622559e+001,-9.39262627615641e-001

1.96983106135185e+005,-2.88747720104827e+001,-9.52258471990068e-001

1.99732887824256e+005,-2.88748553104409e+001,-9.65431200472558e-001

2.02521055035243e+005,-2.88749407077530e+001,-9.78783115499862e-001

2.05348143610063e+005,-2.88750282487317e+001,-9.92316546218286e-001

2.08214696870707e+005,-2.88751179803728e+001,-1.00603384872520e+000

2.11121265723661e+005,-2.88752099503471e+001,-1.01993740631774e+000

2.14068408765776e+005,-2.88753042069907e+001,-1.03402962974113e+000

2.17056692391625e+005,-2.88754007992948e+001,-1.04831295744479e+000

2.20086690902357e+005,-2.88754997768930e+001,-1.06278985584207e+000

2.23158986616063e+005,-2.88756011900483e+001,-1.07746281957237e+000

2.26274169979693e+005,-2.88757050896386e+001,-1.09233437177286e+000

2.29432839682530e+005,-2.88758115271393e+001,-1.10740706435451e+000

2.32635602771247e+005,-2.88759205546070e+001,-1.12268347828175e+000

2.35883074766574e+005,-2.88760322246587e+001,-1.13816622386395e+000

2.39175879781588e+005,-2.88761465904516e+001,-1.15385794105017e+000

2.42514650641661e+005,-2.88762637056601e+001,-1.16976129973564e+000

2.45900029006080e+005,-2.88763836244515e+001,-1.18587900007265e+000

2.49332665491357e+005,-2.88765064014597e+001,-1.20221377279553e+000

2.52813219796278e+005,-2.88766320917576e+001,-1.21876837955121e+000

2.56342360828676e+005,-2.88767607508265e+001,-1.23554561324509e+000

2.59920766833993e+005,-2.88768924345253e+001,-1.25254829839432e+000

2.63549125525621e+005,-2.88770271990565e+001,-1.26977929149532e+000

2.67228134217075e+005,-2.88771651009307e+001,-1.28724148140554e+000

2.70958499956006e+005,-2.88773061969291e+001,-1.30493778973736e+000

2.74740939660078e+005,-2.88774505440642e+001,-1.32287117126839e+000

2.78576180254757e+005,-2.88775981995384e+001,-1.34104461436590e+000

2.82464958813007e+005,-2.88777492207008e+001,-1.35946114143071e+000

2.86408022696948e+005,-2.88779036650009e+001,-1.37812380935821e+000

2.90406129701488e+005,-2.88780615899427e+001,-1.39703571001564e+000

2.94460048199957e+005,-2.88782230530341e+001,-1.41619997074347e+000

2.98570557291775e+005,-2.88783881117363e+001,-1.43561975487652e+000

3.02738446952187e+005,-2.88785568234105e+001,-1.45529826228596e+000

3.06964518184081e+005,-2.88787292452627e+001,-1.47523872994621e+000

3.11249583171928e+005,-2.88789054342869e+001,-1.49544443252748e+000

3.15594465437872e+005,-2.88790854472065e+001,-1.51591868301182e+000

3.19999999999997e+005,-2.88792693404140e+001,-1.53666483333802e+000

3.24467033532806e+005,-2.88794571699090e+001,-1.55768627507474e+000

3.28996424529938e+005,-2.88796489912346e+001,-1.57898644012280e+000

3.33589043469155e+005,-2.88798448594125e+001,-1.60056880144952e+000

3.38245772979638e+005,-2.88800448288773e+001,-1.62243687385248e+000

3.42967508011610e+005,-2.88802489534082e+001,-1.64459421476104e+000

3.47755156008335e+005,-2.88804572860614e+001,-1.66704442506911e+000

3.52609637080511e+005,-2.88806698791006e+001,-1.68979115000481e+000

3.57531884183106e+005,-2.88808867839269e+001,-1.71283808003843e+000

3.62522843294651e+005,-2.88811080510083e+001,-1.73618895182760e+000

3.67583473599047e+005,-2.88813337298090e+001,-1.75984754920176e+000

3.72714747669902e+005,-2.88815638687185e+001,-1.78381770418921e+000

3.77917651657445e+005,-2.88817985149806e+001,-1.80810329808354e+000

3.83193185478053e+005,-2.88820377146230e+001,-1.83270826255507e+000

3.88542363006410e+005,-2.88822815123879e+001,-1.85763658080411e+000

3.93966212270369e+005,-2.88825299516625e+001,-1.88289228876005e+000

3.99465775648511e+005,-2.88827830744115e+001,-1.90847947632668e+000

4.05042110070485e+005,-2.88830409211107e+001,-1.93440228867135e+000

4.10696287220124e+005,-2.88833035306829e+001,-1.96066492756268e+000

4.16429393741414e+005,-2.88835709404350e+001,-1.98727165275634e+000

4.22242531447321e+005,-2.88838431859984e+001,-2.01422678342668e+000

4.28136817531551e+005,-2.88841203012716e+001,-2.04153469964766e+000

4.34113384783250e+005,-2.88844023183665e+001,-2.06919984392219e+000

4.40173381804713e+005,-2.88846892675576e+001,-2.09722672275879e+000

4.46317973232124e+005,-2.88849811772353e+001,-2.12561990829843e+000

4.52548339959385e+005,-2.88852780738640e+001,-2.15438403998670e+000

4.58865679365059e+005,-2.88855799819439e+001,-2.18352382629538e+000

4.65271205542494e+005,-2.88858869239785e+001,-2.21304404649137e+000

4.71766149533147e+005,-2.88861989204469e+001,-2.24294955245043e+000

4.78351759563174e+005,-2.88865159897828e+001,-2.27324527051722e+000

4.85029301283321e+005,-2.88868381483589e+001,-2.30393620340936e+000

4.91800058012158e+005,-2.88871654104782e+001,-2.33502743216461e+000

4.98665330982714e+005,-2.88874977883716e+001,-2.36652411813102e+000

5.05626439592555e+005,-2.88878352922042e+001,-2.39843150499392e+000

5.12684721657352e+005,-2.88881779300873e+001,-2.43075492084529e+000

5.19841533667984e+005,-2.88885257081005e+001,-2.46349978028604e+000

5.27098251051240e+005,-2.88888786303201e+001,-2.49667158656392e+000

5.34456268434150e+005,-2.88892366988576e+001,-2.53027593374486e+000

5.41916999912011e+005,-2.88895999139064e+001,-2.56431850891036e+000

