Freq.,VOut,OutRef

1.00000000000000e+004,-9.92976661433853e+000,-1.33453648507232e-001

1.01395947979003e+004,-9.92976666693326e+000,-1.35316579751334e-001

1.02811382665607e+004,-9.92976672100527e+000,-1.37205516025001e-001

1.04246576084112e+004,-9.92976677659592e+000,-1.39120820323856e-001

1.05701804056138e+004,-9.92976683374769e+000,-1.41062860709333e-001

1.07177346253629e+004,-9.92976689250474e+000,-1.43032010376968e-001

1.08673486252606e+004,-9.92976695291168e+000,-1.45028647736026e-001

1.10190511587661e+004,-9.92976701501510e+000,-1.47053156472341e-001

1.11728713807222e+004,-9.92976707886262e+000,-1.49105925628107e-001

1.13288388529580e+004,-9.92976714450283e+000,-1.51187349678033e-001

1.14869835499703e+004,-9.92976721198619e+000,-1.53297828599093e-001

1.16473358646846e+004,-9.92976728136459e+000,-1.55437767949689e-001

1.18099266142953e+004,-9.92976735269072e+000,-1.57607578952842e-001

1.19747870461893e+004,-9.92976742601968e+000,-1.59807678564910e-001

1.21419488439505e+004,-9.92976750140738e+000,-1.62038489565742e-001

1.23114441334492e+004,-9.92976757891149e+000,-1.64300440634196e-001

1.24833054890161e+004,-9.92976765859144e+000,-1.66593966430703e-001

1.26575659397028e+004,-9.92976774050825e+000,-1.68919507682630e-001

1.28342589756290e+004,-9.92976782472454e+000,-1.71277511268159e-001

1.30134185544193e+004,-9.92976791130491e+000,-1.73668430300814e-001

1.31950791077289e+004,-9.92976800031528e+000,-1.76092724220229e-001

1.33792755478611e+004,-9.92976809182419e+000,-1.78550858873143e-001

1.35660432744767e+004,-9.92976818590125e+000,-1.81043306612092e-001

1.37554181813974e+004,-9.92976828261866e+000,-1.83570546378142e-001

1.39474366635040e+004,-9.92976838205031e+000,-1.86133063796891e-001

1.41421356237309e+004,-9.92976848427224e+000,-1.88731351271176e-001

1.43395524801583e+004,-9.92976858936248e+000,-1.91365908075599e-001

1.45397251732031e+004,-9.92976869740166e+000,-1.94037240449495e-001

1.47426921729110e+004,-9.92976880847214e+000,-1.96745861699174e-001

1.49484924863494e+004,-9.92976892265878e+000,-1.99492292293320e-001

1.51571656651040e+004,-9.92976904004883e+000,-2.02277059962663e-001

1.53687518128801e+004,-9.92976916073210e+000,-2.05100699801460e-001

1.55832915932100e+004,-9.92976928480070e+000,-2.07963754371117e-001

1.58008262372675e+004,-9.92976941234922e+000,-2.10866773805192e-001

1.60213975517924e+004,-9.92976954347526e+000,-2.13810315911043e-001

1.62450479271247e+004,-9.92976967827884e+000,-2.16794946280701e-001

1.64718203453514e+004,-9.92976981686283e+000,-2.19821238398133e-001

1.67017583885674e+004,-9.92976995933300e+000,-2.22889773748772e-001

1.69349062472505e+004,-9.92977010579791e+000,-2.26001141932224e-001

1.71713087287550e+004,-9.92977025636947e+000,-2.29155940772607e-001

1.74110112659224e+004,-9.92977041116228e+000,-2.32354776438039e-001

1.76540599258131e+004,-9.92977057029450e+000,-2.35598263551483e-001

1.79005014185594e+004,-9.92977073388738e+000,-2.38887025312600e-001

1.81503831063432e+004,-9.92977090206558e+000,-2.42221693615137e-001

1.84037530124975e+004,-9.92977107495733e+000,-2.45602909168761e-001

1.86606598307361e+004,-9.92977125269402e+000,-2.49031321624097e-001

1.89211529345119e+004,-9.92977143541117e+000,-2.52507589692131e-001

1.91852823865052e+004,-9.92977162324794e+000,-2.56032381274498e-001

1.94530989482457e+004,-9.92977181634705e+000,-2.59606373592176e-001

1.97246540898671e+004,-9.92977201485564e+000,-2.63230253311197e-001

1.99999999999999e+004,-9.92977221892449e+000,-2.66904716679064e-001

2.02791895958005e+004,-9.92977242870887e+000,-2.70630469654334e-001

2.05622765331213e+004,-9.92977264436821e+000,-2.74408228044088e-001

2.08493152168224e+004,-9.92977286606623e+000,-2.78238717641427e-001

2.11403608112276e+004,-9.92977309397156e+000,-2.82122674361474e-001

2.14354692507258e+004,-9.92977332825704e+000,-2.86060844387065e-001

2.17346972505211e+004,-9.92977356910072e+000,-2.90053984306764e-001

2.20381023175322e+004,-9.92977381668523e+000,-2.94102861264345e-001

2.23457427614443e+004,-9.92977407119833e+000,-2.98208253103006e-001

2.26576777059159e+004,-9.92977433283297e+000,-3.02370948514889e-001

2.29739670999406e+004,-9.92977460178755e+000,-3.06591747192000e-001

2.32946717293690e+004,-9.92977487826565e+000,-3.10871459981032e-001

2.36198532285905e+004,-9.92977516247699e+000,-3.15210909034267e-001

2.39495740923785e+004,-9.92977545463630e+000,-3.19610927974047e-001

2.42838976879009e+004,-9.92977575496479e+000,-3.24072362045660e-001

2.46228882668982e+004,-9.92977606368972e+000,-3.28596068281607e-001

2.49666109780322e+004,-9.92977638104437e+000,-3.33182915666931e-001

2.53151318794055e+004,-9.92977670726849e+000,-3.37833785304682e-001

2.56685179512580e+004,-9.92977704260846e+000,-3.42549570583737e-001

2.60268371088386e+004,-9.92977738731739e+000,-3.47331177350432e-001

2.63901582154578e+004,-9.92977774165546e+000,-3.52179524080887e-001

2.67585510957221e+004,-9.92977810588954e+000,-3.57095542060415e-001

2.71320865489533e+004,-9.92977848029446e+000,-3.62080175554856e-001

2.75108363627948e+004,-9.92977886515204e+000,-3.67134381998361e-001

2.78948733270080e+004,-9.92977926075209e+000,-3.72259132171379e-001

2.82842712474618e+004,-9.92977966739201e+000,-3.77455410389869e-001

2.86791049603164e+004,-9.92978008537769e+000,-3.82724214690081e-001

2.90794503464061e+004,-9.92978051502310e+000,-3.88066557022066e-001

2.94853843458219e+004,-9.92978095665089e+000,-3.93483463441480e-001

2.98969849726987e+004,-9.92978141059240e+000,-3.98975974306761e-001

3.03143313302078e+004,-9.92978187718805e+000,-4.04545144476401e-001

3.07375036257601e+004,-9.92978235678738e+000,-4.10192043512859e-001

3.11665831864199e+004,-9.92978284974955e+000,-4.15917755884010e-001

3.16016524745350e+004,-9.92978335644330e+000,-4.21723381172520e-001

3.20427951035848e+004,-9.92978387724753e+000,-4.27610034283908e-001

3.24900958542493e+004,-9.92978441255113e+000,-4.33578845661921e-001

3.29436406907028e+004,-9.92978496275391e+000,-4.39630961499913e-001

3.34035167771346e+004,-9.92978552826589e+000,-4.45767543966075e-001

3.38698124945009e+004,-9.92978610950867e+000,-4.51989771417809e-001

3.43426174575100e+004,-9.92978670691480e+000,-4.58298838632966e-001

3.48220225318448e+004,-9.92978732092861e+000,-4.64695957033531e-001

3.53081198516260e+004,-9.92978795200640e+000,-4.71182354917993e-001

3.58010028371187e+004,-9.92978860061662e+000,-4.77759277695137e-001

3.63007662126863e+004,-9.92978926724011e+000,-4.84427988123210e-001

3.68075060249948e+004,-9.92978995237100e+000,-4.91189766546125e-001

3.73213196614721e+004,-9.92979065651599e+000,-4.98045911143860e-001

3.78423058690237e+004,-9.92979138019581e+000,-5.04997738172866e-001

3.83705647730104e+004,-9.92979212394466e+000,-5.12046582221956e-001

3.89061978964912e+004,-9.92979288831112e+000,-5.19193796463303e-001

3.94493081797342e+004,-9.92979367385824e+000,-5.26440752911147e-001

3.99999999999998e+004,-9.92979448116395e+000,-5.33788842682680e-001

4.05583791916010e+004,-9.92979531082139e+000,-5.41239476262994e-001

4.11245530662425e+004,-9.92979616343943e+000,-5.48794083771866e-001

4.16986304336447e+004,-9.92979703964295e+000,-5.56454115236941e-001

4.22807216224550e+004,-9.92979794007301e+000,-5.64221040869810e-001

4.28709385014515e+004,-9.92979886538780e+000,-5.72096351342789e-001

4.34693945010421e+004,-9.92979981626242e+000,-5.80081558075277e-001

4.40762046350642e+004,-9.92980079338967e+000,-5.88178193518326e-001

4.46914855228886e+004,-9.92980179748040e+000,-5.96387811446206e-001

4.53153554118317e+004,-9.92980282926389e+000,-6.04711987251145e-001

4.59479341998812e+004,-9.92980388948820e+000,-6.13152318242951e-001

4.65893434587380e+004,-9.92980497892079e+000,-6.21710423950520e-001

4.72397064571810e+004,-9.92980609834890e+000,-6.30387946429436e-001

4.78991481847569e+004,-9.92980724857999e+000,-6.39186550572521e-001

4.85677953758016e+004,-9.92980843044199e+000,-6.48107924427314e-001

4.92457765337964e+004,-9.92980964478422e+000,-6.57153779512134e-001

4.99332219560642e+004,-9.92981089247748e+000,-6.66325851142487e-001

5.06302637588109e+004,-9.92981217441475e+000,-6.75625898758344e-001

5.13370359025159e+004,-9.92981349151150e+000,-6.85055706257285e-001

5.20536742176771e+004,-9.92981484470622e+000,-6.94617082331494e-001

5.27803164309155e+004,-9.92981623496118e+000,-7.04311860808563e-001

5.35171021914442e+004,-9.92981766326248e+000,-7.14141900999644e-001

5.42641730979066e+004,-9.92981913062105e+000,-7.24109088047532e-001

5.50216727255895e+004,-9.92982063807262e+000,-7.34215333286038e-001

5.57897466540159e+004,-9.92982218667883e+000,-7.44462574596431e-001

5.65685424949235e+004,-9.92982377752721e+000,-7.54852776775788e-001

5.73582099206328e+004,-9.92982541173226e+000,-7.65387931904123e-001

5.81589006928121e+004,-9.92982709043532e+000,-7.76070059723010e-001

5.89707686916437e+004,-9.92982881480573e+000,-7.86901208011940e-001

5.97939699453972e+004,-9.92983058604096e+000,-7.97883452976199e-001

6.06286626604156e+004,-9.92983240536746e+000,-8.09018899634453e-001

6.14750072515201e+004,-9.92983427404074e+000,-8.20309682217519e-001

6.23331663728396e+004,-9.92983619334645e+000,-8.31757964565432e-001

6.32033049490698e+004,-9.92983816460056e+000,-8.43365940535579e-001

6.40855902071694e+004,-9.92984018914993e+000,-8.55135834413612e-001

6.49801917084985e+004,-9.92984226837297e+000,-8.67069901330143e-001

6.58872813814055e+004,-9.92984440368020e+000,-8.79170427681905e-001

6.68070335542691e+004,-9.92984659651448e+000,-8.91439731561897e-001

6.77396249890018e+004,-9.92984884835189e+000,-9.03880163190150e-001

6.86852349150199e+004,-9.92985116070210e+000,-9.16494105354795e-001

6.96440450636895e+004,-9.92985353510870e+000,-9.29283973856535e-001

7.06162397032520e+004,-9.92985597314995e+000,-9.42252217959155e-001

7.16020056742374e+004,-9.92985847643920e+000,-9.55401320845786e-001

7.26015324253724e+004,-9.92986104662526e+000,-9.68733800082188e-001

7.36150120499896e+004,-9.92986368539288e+000,-9.82252208085836e-001

7.46426393229441e+004,-9.92986639446330e+000,-9.95959132599002e-001

7.56846117380472e+004,-9.92986917559454e+000,-1.00985719717140e+000

7.67411295460207e+004,-9.92987203058180e+000,-1.02394906164675e+000

7.78123957929823e+004,-9.92987496125802e+000,-1.03823742265563e+000

7.88986163594682e+004,-9.92987796949397e+000,-1.05272501411615e+000

7.99999999999995e+004,-9.92988105719862e+000,-1.06741460774101e+000

8.11167583832018e+004,-9.92988422631963e+000,-1.08230901354829e+000

8.22491061324848e+004,-9.92988747884340e+000,-1.09741108038275e+000

8.33972608672892e+004,-9.92989081679525e+000,-1.11272369644185e+000

8.45614432449099e+004,-9.92989424223980e+000,-1.12824978980750e+000

8.57418770029029e+004,-9.92989775728101e+000,-1.14399232898674e+000

8.69387890020841e+004,-9.92990136406196e+000,-1.15995432345918e+000

8.81524092701283e+004,-9.92990506476552e+000,-1.17613882422851e+000

8.93829710457770e+004,-9.92990886161360e+000,-1.19254892438563e+000

9.06307108236633e+004,-9.92991275686757e+000,-1.20918775967481e+000

9.18958683997622e+004,-9.92991675282791e+000,-1.22605850906929e+000

9.31786869174758e+004,-9.92992085183406e+000,-1.24316439535316e+000

9.44794129143618e+004,-9.92992505626379e+000,-1.26050868571330e+000

9.57982963695136e+004,-9.92992936853335e+000,-1.27809469233308e+000

9.71355907516031e+004,-9.92993379109646e+000,-1.29592577300018e+000

9.84915530675926e+004,-9.92993832644423e+000,-1.31400533171648e+000

9.98664439121282e+004,-9.92994297710400e+000,-1.33233681932008e+000

1.01260527517622e+005,-9.92994774563883e+000,-1.35092373411260e+000

1.02674071805032e+005,-9.92995263464662e+000,-1.36976962249332e+000

1.04107348435354e+005,-9.92995764675882e+000,-1.38887807960592e+000

1.05560632861831e+005,-9.92996278463960e+000,-1.40825274998678e+000

1.07034204382888e+005,-9.92996805098435e+000,-1.42789732822671e+000

1.08528346195813e+005,-9.92997344851817e+000,-1.44781555963928e+000

1.10043345451179e+005,-9.92997897999438e+000,-1.46801124093575e+000

1.11579493308032e+005,-9.92998464819265e+000,-1.48848822091095e+000

1.13137084989847e+005,-9.92999045591710e+000,-1.50925040113547e+000

1.14716419841265e+005,-9.92999640599392e+000,-1.53030173665913e+000

1.16317801385624e+005,-9.93000250126932e+000,-1.55164623671903e+000

1.17941537383287e+005,-9.93000874460665e+000,-1.57328796546098e+000

1.19587939890794e+005,-9.93001513888368e+000,-1.59523104266641e+000

1.21257325320831e+005,-9.93002168698952e+000,-1.61747964448955e+000

1.22950014503040e+005,-9.93002839182119e+000,-1.64003800420488e+000

1.24666332745679e+005,-9.93003525628013e+000,-1.66291041296013e+000

1.26406609898139e+005,-9.93004228326825e+000,-1.68610122054286e+000

1.28171180414339e+005,-9.93004947568359e+000,-1.70961483615379e+000

1.29960383416997e+005,-9.93005683641593e+000,-1.73345572919046e+000

1.31774562762811e+005,-9.93006436834179e+000,-1.75762843004007e+000

1.33614067108538e+005,-9.93007207431913e+000,-1.78213753088318e+000

1.35479249978003e+005,-9.93007995718183e+000,-1.80698768650540e+000

1.37370469830040e+005,-9.93008801973340e+000,-1.83218361512169e+000

1.39288090127379e+005,-9.93009626474080e+000,-1.85773009920717e+000

1.41232479406504e+005,-9.93010469492722e+000,-1.88363198634225e+000

1.43204011348474e+005,-9.93011331296466e+000,-1.90989419006545e+000

1.45203064850745e+005,-9.93012212146616e+000,-1.93652169073735e+000

1.47230024099979e+005,-9.93013112297718e+000,-1.96351953641571e+000

1.49285278645888e+005,-9.93014031996675e+000,-1.99089284374036e+000

1.51369223476094e+005,-9.93014971481760e+000,-2.01864679883082e+000

1.53482259092041e+005,-9.93015930981607e+000,-2.04678665819410e+000

1.55624791585964e+005,-9.93016910714135e+000,-2.07531774964256e+000

1.57797232718936e+005,-9.93017910885373e+000,-2.10424547322539e+000

1.59999999999999e+005,-9.93018931688233e+000,-2.13357530217185e+000

1.62233516766403e+005,-9.93019973301221e+000,-2.16331278384372e+000

1.64498212264969e+005,-9.93021035887043e+000,-2.19346354070291e+000

1.66794521734578e+005,-9.93022119591151e+000,-2.22403327128960e+000

1.69122886489819e+005,-9.93023224540185e+000,-2.25502775121342e+000

1.71483754005805e+005,-9.93024350840340e+000,-2.28645283415759e+000

1.73877578004168e+005,-9.93025498575626e+000,-2.31831445289549e+000

1.76304818540256e+005,-9.93026667806037e+000,-2.35061862032122e+000

1.78765942091554e+005,-9.93027858565626e+000,-2.38337143049265e+000

1.81261421647326e+005,-9.93029070860431e+000,-2.41657905969037e+000

1.83791736799524e+005,-9.93030304666361e+000,-2.45024776748677e+000

1.86357373834951e+005,-9.93031559926884e+000,-2.48438389783468e+000

1.88958825828723e+005,-9.93032836550655e+000,-2.51899388016596e+000

1.91596592739027e+005,-9.93034134408988e+000,-2.55408423050847e+000

1.94271181503206e+005,-9.93035453333201e+000,-2.58966155261630e+000

1.96983106135185e+005,-9.93036793111809e+000,-2.62573253911766e+000

1.99732887824256e+005,-9.93038153487626e+000,-2.66230397267621e+000

2.02521055035243e+005,-9.93039534154634e+000,-2.69938272717242e+000

2.05348143610063e+005,-9.93040934754766e+000,-2.73697576889931e+000

2.08214696870707e+005,-9.93042354874517e+000,-2.77509015777570e+000

2.11121265723661e+005,-9.93043794041356e+000,-2.81373304857948e+000

2.14068408765776e+005,-9.93045251719995e+000,-2.85291169219675e+000

2.17056692391625e+005,-9.93046727308494e+000,-2.89263343689101e+000

2.20086690902357e+005,-9.93048220134108e+000,-2.93290572959296e+000

2.23158986616063e+005,-9.93049729449057e+000,-2.97373611720724e+000

2.26274169979693e+005,-9.93051254425992e+000,-3.01513224794265e+000

2.29432839682530e+005,-9.93052794153324e+000,-3.05710187266260e+000

2.32635602771247e+005,-9.93054347630316e+000,-3.09965284625699e+000

2.35883074766574e+005,-9.93055913761967e+000,-3.14279312903679e+000

2.39175879781588e+005,-9.93057491353677e+000,-3.18653078815260e+000

2.42514650641661e+005,-9.93059079105669e+000,-3.23087399903593e+000

2.45900029006080e+005,-9.93060675607192e+000,-3.27583104686668e+000

2.49332665491357e+005,-9.93062279330494e+000,-3.32141032806413e+000

2.52813219796278e+005,-9.93063888624508e+000,-3.36762035180680e+000

2.56342360828676e+005,-9.93065501708319e+000,-3.41446974157745e+000

2.59920766833993e+005,-9.93067116664369e+000,-3.46196723673761e+000

2.63549125525621e+005,-9.93068731431397e+000,-3.51012169412948e+000

2.67228134217075e+005,-9.93070343797088e+000,-3.55894208971065e+000

2.70958499956006e+005,-9.93071951390493e+000,-3.60843752021615e+000

2.74740939660078e+005,-9.93073551674112e+000,-3.65861720485634e+000

2.78576180254757e+005,-9.93075141935766e+000,-3.70949048704423e+000

2.82464958813007e+005,-9.93076719280084e+000,-3.76106683616137e+000

2.86408022696948e+005,-9.93078280619820e+000,-3.81335584935428e+000

2.90406129701488e+005,-9.93079822666754e+000,-3.86636725337109e+000

2.94460048199957e+005,-9.93081341922380e+000,-3.92011090643513e+000

2.98570557291775e+005,-9.93082834668258e+000,-3.97459680015564e+000

3.02738446952187e+005,-9.93084296956075e+000,-4.02983506148123e+000

3.06964518184081e+005,-9.93085724597390e+000,-4.08583595469361e+000

3.11249583171928e+005,-9.93087113153074e+000,-4.14260988344478e+000

3.15594465437872e+005,-9.93088457922477e+000,-4.20016739283748e+000

3.19999999999997e+005,-9.93089753932260e+000,-4.25851917155194e+000

3.24467033532806e+005,-9.93090995924906e+000,-4.31767605402059e+000

3.28996424529938e+005,-9.93092178346988e+000,-4.37764902264939e+000

3.33589043469155e+005,-9.93093295337085e+000,-4.43844921009007e+000

3.38245772979638e+005,-9.93094340713426e+000,-4.50008790156402e+000

3.42967508011610e+005,-9.93095307961252e+000,-4.56257653723776e+000

3.47755156008335e+005,-9.93096190219854e+000,-4.62592671465493e+000

3.52609637080511e+005,-9.93096980269392e+000,-4.69015019122020e+000

3.57531884183106e+005,-9.93097670517375e+000,-4.75525888674554e+000

3.62522843294651e+005,-9.93098252984931e+000,-4.82126488605025e+000

3.67583473599047e+005,-9.93098719292785e+000,-4.88818044162424e+000

3.72714747669902e+005,-9.93099060647002e+000,-4.95601797635232e+000

3.77917651657445e+005,-9.93099267824509e+000,-5.02479008630035e+000

3.83193185478053e+005,-9.93099331158355e+000,-5.09450954356748e+000

3.88542363006410e+005,-9.93099240522805e+000,-5.16518929920299e+000

3.93966212270369e+005,-9.93098985318196e+000,-5.23684248619122e+000

3.99465775648511e+005,-9.93098554455637e+000,-5.30948242250370e+000

4.05042110070485e+005,-9.93097936341512e+000,-5.38312261422283e+000

4.10696287220124e+005,-9.93097118861854e+000,-5.45777675873509e+000

4.16429393741414e+005,-9.93096089366566e+000,-5.53345874799664e+000

4.22242531447321e+005,-9.93094834653530e+000,-5.61018267187256e+000

4.28136817531551e+005,-9.93093340952612e+000,-5.68796282154977e+000

4.34113384783250e+005,-9.93091593909565e+000,-5.76681369302597e+000

4.40173381804713e+005,-9.93089578569899e+000,-5.84674999067385e+000

4.46317973232124e+005,-9.93087279362690e+000,-5.92778663088211e+000

4.52548339959385e+005,-9.93084680084334e+000,-6.00993874577571e+000

4.58865679365059e+005,-9.93081763882351e+000,-6.09322168701153e+000

4.65271205542494e+005,-9.93078513239148e+000,-6.17765102965571e+000

4.71766149533147e+005,-9.93074909955852e+000,-6.26324257613828e+000

4.78351759563174e+005,-9.93070935136165e+000,-6.35001236028839e+000

4.85029301283321e+005,-9.93066569170297e+000,-6.43797665144932e+000

4.91800058012158e+005,-9.93061791719015e+000,-6.52715195867253e+000

4.98665330982714e+005,-9.93056581697766e+000,-6.61755503499260e+000

5.05626439592555e+005,-9.93050917260912e+000,-6.70920288178321e+000

5.12684721657352e+005,-9.93044775786167e+000,-6.80211275319050e+000

5.19841533667984e+005,-9.93038133859111e+000,-6.89630216064811e+000

5.27098251051240e+005,-9.93030967257929e+000,-6.99178887747104e+000

5.34456268434150e+005,-9.93023250938295e+000,-7.08859094352843e+000

5.41916999912011e+005,-9.93014959018480e+000,-7.18672666999441e+000

