Freq.,VOut,OutRef

1.00000000000000e+004,-1.16737586637839e+001,-6.89974176151340e-002

1.01395947979003e+004,-1.16737588710642e+001,-6.99605673500693e-002

1.02811382665607e+004,-1.16737590841699e+001,-7.09371613761736e-002

1.04246576084112e+004,-1.16737593032644e+001,-7.19273873380836e-002

1.05701804056138e+004,-1.16737595285166e+001,-7.29314354916042e-002

1.07177346253629e+004,-1.16737597600989e+001,-7.39494987551832e-002

1.08673486252606e+004,-1.16737599981894e+001,-7.49817727334759e-002

1.10190511587661e+004,-1.16737602429707e+001,-7.60284557628996e-002

1.11728713807222e+004,-1.16737604946311e+001,-7.70897489435467e-002

1.13288388529580e+004,-1.16737607533635e+001,-7.81658561850462e-002

1.14869835499703e+004,-1.16737610193668e+001,-7.92569842383943e-002

1.16473358646846e+004,-1.16737612928452e+001,-8.03633427409413e-002

1.18099266142953e+004,-1.16737615740086e+001,-8.14851442538007e-002

1.19747870461893e+004,-1.16737618630728e+001,-8.26226043033993e-002

1.21419488439505e+004,-1.16737621602596e+001,-8.37759414239076e-002

1.23114441334492e+004,-1.16737624657975e+001,-8.49453771936901e-002

1.24833054890161e+004,-1.16737627799208e+001,-8.61311362867039e-002

1.26575659397028e+004,-1.16737631028706e+001,-8.73334465090210e-002

1.28342589756290e+004,-1.16737634348948e+001,-8.85525388439909e-002

1.30134185544193e+004,-1.16737637762485e+001,-8.97886474958815e-002

1.31950791077289e+004,-1.16737641271932e+001,-9.10420099386666e-002

1.33792755478611e+004,-1.16737644879985e+001,-9.23128669561055e-002

1.35660432744767e+004,-1.16737648589415e+001,-9.36014626887398e-002

1.37554181813974e+004,-1.16737652403064e+001,-9.49080446862957e-002

1.39474366635040e+004,-1.16737656323861e+001,-9.62328639479976e-002

1.41421356237309e+004,-1.16737660354815e+001,-9.75761749730777e-002

1.43395524801583e+004,-1.16737664499018e+001,-9.89382358120666e-002

1.45397251732031e+004,-1.16737668759649e+001,-1.00319308112510e-001

1.47426921729110e+004,-1.16737673139978e+001,-1.01719657172047e-001

1.49484924863494e+004,-1.16737677643362e+001,-1.03139551987206e-001

1.51571656651040e+004,-1.16737682273261e+001,-1.04579265302821e-001

1.53687518128801e+004,-1.16737687033220e+001,-1.06039073672833e-001

1.55832915932100e+004,-1.16737691926894e+001,-1.07519257500279e-001

1.58008262372675e+004,-1.16737696958035e+001,-1.09020101102303e-001

1.60213975517924e+004,-1.16737702130501e+001,-1.10541892759367e-001

1.62450479271247e+004,-1.16737707448260e+001,-1.12084924769482e-001

1.64718203453514e+004,-1.16737712915387e+001,-1.13649493508769e-001

1.67017583885674e+004,-1.16737718536074e+001,-1.15235899481803e-001

1.69349062472505e+004,-1.16737724314632e+001,-1.16844447383535e-001

1.71713087287550e+004,-1.16737730255490e+001,-1.18475446156961e-001

1.74110112659224e+004,-1.16737736363201e+001,-1.20129209050949e-001

1.76540599258131e+004,-1.16737742642448e+001,-1.21806053679895e-001

1.79005014185594e+004,-1.16737749098043e+001,-1.23506302086536e-001

1.81503831063432e+004,-1.16737755734933e+001,-1.25230280801588e-001

1.84037530124975e+004,-1.16737762558203e+001,-1.26978320906783e-001

1.86606598307361e+004,-1.16737769573081e+001,-1.28750758097355e-001

1.89211529345119e+004,-1.16737776784942e+001,-1.30547932746676e-001

1.91852823865052e+004,-1.16737784199311e+001,-1.32370189971382e-001

1.94530989482457e+004,-1.16737791821869e+001,-1.34217879696542e-001

1.97246540898671e+004,-1.16737799658450e+001,-1.36091356724778e-001

1.99999999999999e+004,-1.16737807715058e+001,-1.37990980800433e-001

2.02791895958005e+004,-1.16737815997861e+001,-1.39917116680388e-001

2.05622765331213e+004,-1.16737824513203e+001,-1.41870134201796e-001

2.08493152168224e+004,-1.16737833267601e+001,-1.43850408356087e-001

2.11403608112276e+004,-1.16737842267757e+001,-1.45858319356982e-001

2.14354692507258e+004,-1.16737851520559e+001,-1.47894252713909e-001

2.17346972505211e+004,-1.16737861033091e+001,-1.49958599305228e-001

2.20381023175322e+004,-1.16737870812628e+001,-1.52051755455834e-001

2.23457427614443e+004,-1.16737880866653e+001,-1.54174123007590e-001

2.26576777059159e+004,-1.16737891202860e+001,-1.56326109396933e-001

2.29739670999406e+004,-1.16737901829153e+001,-1.58508127736867e-001

2.32946717293690e+004,-1.16737912753658e+001,-1.60720596890435e-001

2.36198532285905e+004,-1.16737923984731e+001,-1.62963941551944e-001

2.39495740923785e+004,-1.16737935530955e+001,-1.65238592329524e-001

2.42838976879009e+004,-1.16737947401160e+001,-1.67544985823319e-001

2.46228882668982e+004,-1.16737959604416e+001,-1.69883564713438e-001

2.49666109780322e+004,-1.16737972150051e+001,-1.72254777837906e-001

2.53151318794055e+004,-1.16737985047648e+001,-1.74659080284624e-001

2.56685179512580e+004,-1.16737998307061e+001,-1.77096933470882e-001

2.60268371088386e+004,-1.16738011938416e+001,-1.79568805238597e-001

2.63901582154578e+004,-1.16738025952125e+001,-1.82075169933814e-001

2.67585510957221e+004,-1.16738040358885e+001,-1.84616508505903e-001

2.71320865489533e+004,-1.16738055169694e+001,-1.87193308592530e-001

2.75108363627948e+004,-1.16738070395856e+001,-1.89806064615009e-001

2.78948733270080e+004,-1.16738086048992e+001,-1.92455277868040e-001

2.82842712474618e+004,-1.16738102141037e+001,-1.95141456623313e-001

2.86791049603164e+004,-1.16738118684271e+001,-1.97865116214308e-001

2.90794503464061e+004,-1.16738135691305e+001,-2.00626779143103e-001

2.94853843458219e+004,-1.16738153175107e+001,-2.03426975172713e-001

2.98969849726987e+004,-1.16738171149001e+001,-2.06266241433086e-001

3.03143313302078e+004,-1.16738189626686e+001,-2.09145122516709e-001

3.07375036257601e+004,-1.16738208622237e+001,-2.12064170585298e-001

3.11665831864199e+004,-1.16738228150121e+001,-2.15023945474130e-001

3.16016524745350e+004,-1.16738248225209e+001,-2.18025014794731e-001

3.20427951035848e+004,-1.16738268862779e+001,-2.21067954045320e-001

3.24900958542493e+004,-1.16738290078541e+001,-2.24153346715224e-001

3.29436406907028e+004,-1.16738311888631e+001,-2.27281784400326e-001

3.34035167771346e+004,-1.16738334309640e+001,-2.30453866908157e-001

3.38698124945009e+004,-1.16738357358614e+001,-2.33670202375670e-001

3.43426174575100e+004,-1.16738381053075e+001,-2.36931407380825e-001

3.48220225318448e+004,-1.16738405411025e+001,-2.40238107060116e-001

3.53081198516260e+004,-1.16738430450967e+001,-2.43590935225114e-001

3.58010028371187e+004,-1.16738456191914e+001,-2.46990534481642e-001

3.63007662126863e+004,-1.16738482653408e+001,-2.50437556348351e-001

3.68075060249948e+004,-1.16738509855526e+001,-2.53932661383153e-001

3.73213196614721e+004,-1.16738537818903e+001,-2.57476519302901e-001

3.78423058690237e+004,-1.16738566564741e+001,-2.61069809111218e-001

3.83705647730104e+004,-1.16738596114830e+001,-2.64713219223016e-001

3.89061978964912e+004,-1.16738626491557e+001,-2.68407447595712e-001

3.94493081797342e+004,-1.16738657717929e+001,-2.72153201857775e-001

3.99999999999998e+004,-1.16738689817583e+001,-2.75951199442758e-001

4.05583791916010e+004,-1.16738722814810e+001,-2.79802167720561e-001

4.11245530662425e+004,-1.16738756734566e+001,-2.83706844134414e-001

4.16986304336447e+004,-1.16738791602495e+001,-2.87665976337129e-001

4.22807216224550e+004,-1.16738827444948e+001,-2.91680322330488e-001

4.28709385014515e+004,-1.16738864288991e+001,-2.95750650609001e-001

4.34693945010421e+004,-1.16738902162442e+001,-2.99877740296495e-001

4.40762046350642e+004,-1.16738941093873e+001,-3.04062381296590e-001

4.46914855228886e+004,-1.16738981112647e+001,-3.08305374434146e-001

4.53153554118317e+004,-1.16739022248923e+001,-3.12607531607052e-001

4.59479341998812e+004,-1.16739064533691e+001,-3.16969675934865e-001

4.65893434587380e+004,-1.16739107998783e+001,-3.21392641910831e-001

4.72397064571810e+004,-1.16739152676905e+001,-3.25877275554577e-001

4.78991481847569e+004,-1.16739198601651e+001,-3.30424434570614e-001

4.85677953758016e+004,-1.16739245807532e+001,-3.35034988505133e-001

4.92457765337964e+004,-1.16739294330001e+001,-3.39709818904696e-001

4.99332219560642e+004,-1.16739344205475e+001,-3.44449819478015e-001

5.06302637588109e+004,-1.16739395471358e+001,-3.49255896262634e-001

5.13370359025159e+004,-1.16739448166074e+001,-3.54128967788083e-001

5.20536742176771e+004,-1.16739502329085e+001,-3.59069965244852e-001

5.27803164309155e+004,-1.16739558000929e+001,-3.64079832653163e-001

5.35171021914442e+004,-1.16739615223236e+001,-3.69159527037786e-001

5.42641730979066e+004,-1.16739674038764e+001,-3.74310018599718e-001

5.50216727255895e+004,-1.16739734491426e+001,-3.79532290894822e-001

5.57897466540159e+004,-1.16739796626321e+001,-3.84827341009463e-001

5.65685424949235e+004,-1.16739860489760e+001,-3.90196179745842e-001

5.73582099206328e+004,-1.16739926129306e+001,-3.95639831799305e-001

5.81589006928121e+004,-1.16739993593797e+001,-4.01159335948765e-001

5.89707686916437e+004,-1.16740062933384e+001,-4.06755745239721e-001

5.97939699453972e+004,-1.16740134199562e+001,-4.12430127177966e-001

6.06286626604156e+004,-1.16740207445206e+001,-4.18183563917862e-001

6.14750072515201e+004,-1.16740282724603e+001,-4.24017152459318e-001

6.23331663728396e+004,-1.16740360093492e+001,-4.29932004842288e-001

6.32033049490698e+004,-1.16740439609098e+001,-4.35929248346543e-001

6.40855902071694e+004,-1.16740521330167e+001,-4.42010025694216e-001

6.49801917084985e+004,-1.16740605317008e+001,-4.48175495249574e-001

6.58872813814055e+004,-1.16740691631532e+001,-4.54426831228958e-001

6.68070335542691e+004,-1.16740780337286e+001,-4.60765223906252e-001

6.77396249890018e+004,-1.16740871499499e+001,-4.67191879824948e-001

6.86852349150199e+004,-1.16740965185126e+001,-4.73708022010015e-001

6.96440450636895e+004,-1.16741061462880e+001,-4.80314890185423e-001

7.06162397032520e+004,-1.16741160403285e+001,-4.87013740989183e-001

7.16020056742374e+004,-1.16741262078714e+001,-4.93805848196090e-001

7.26015324253724e+004,-1.16741366563435e+001,-5.00692502940255e-001

7.36150120499896e+004,-1.16741473933660e+001,-5.07675013938322e-001

7.46426393229441e+004,-1.16741584267586e+001,-5.14754707720571e-001

7.56846117380472e+004,-1.16741697645447e+001,-5.21932928857280e-001

7.67411295460207e+004,-1.16741814149561e+001,-5.29211040194947e-001

7.78123957929823e+004,-1.16741933864372e+001,-5.36590423091008e-001

7.88986163594682e+004,-1.16742056876514e+001,-5.44072477648988e-001

7.99999999999995e+004,-1.16742183274850e+001,-5.51658622962073e-001

8.11167583832018e+004,-1.16742313150527e+001,-5.59350297354761e-001

8.22491061324848e+004,-1.16742446597029e+001,-5.67148958627464e-001

8.33972608672892e+004,-1.16742583710234e+001,-5.75056084305863e-001

8.45614432449099e+004,-1.16742724588459e+001,-5.83073171891266e-001

8.57418770029029e+004,-1.16742869332522e+001,-5.91201739113705e-001

8.69387890020841e+004,-1.16743018045798e+001,-5.99443324185835e-001

8.81524092701283e+004,-1.16743170834271e+001,-6.07799486064779e-001

8.93829710457770e+004,-1.16743327806597e+001,-6.16271804709903e-001

9.06307108236633e+004,-1.16743489074153e+001,-6.24861881348345e-001

9.18958683997622e+004,-1.16743654751109e+001,-6.33571338739566e-001

9.31786869174758e+004,-1.16743824954476e+001,-6.42401821444134e-001

9.44794129143618e+004,-1.16743999804169e+001,-6.51354996097253e-001

9.57982963695136e+004,-1.16744179423073e+001,-6.60432551679574e-001

9.71355907516031e+004,-1.16744363937098e+001,-6.69636199794219e-001

9.84915530675926e+004,-1.16744553475243e+001,-6.78967674948378e-001

9.98664439121282e+004,-1.16744748169660e+001,-6.88428734831603e-001

1.01260527517622e+005,-1.16744948155716e+001,-6.98021160602018e-001

1.02674071805032e+005,-1.16745153572057e+001,-7.07746757171734e-001

1.04107348435354e+005,-1.16745364560668e+001,-7.17607353497601e-001

1.05560632861831e+005,-1.16745581266945e+001,-7.27604802871637e-001

1.07034204382888e+005,-1.16745803839749e+001,-7.37740983217638e-001

1.08528346195813e+005,-1.16746032431478e+001,-7.48017797385881e-001

1.10043345451179e+005,-1.16746267198131e+001,-7.58437173454114e-001

1.11579493308032e+005,-1.16746508299370e+001,-7.69001065028477e-001

1.13137084989847e+005,-1.16746755898585e+001,-7.79711451550810e-001

1.14716419841265e+005,-1.16747010162959e+001,-7.90570338602669e-001

1.16317801385624e+005,-1.16747271263533e+001,-8.01579758216880e-001

1.17941537383287e+005,-1.16747539375268e+001,-8.12741769190814e-001

1.19587939890794e+005,-1.16747814677112e+001,-8.24058457397776e-001

1.21257325320831e+005,-1.16748097352054e+001,-8.35531936108860e-001

1.22950014503040e+005,-1.16748387587198e+001,-8.47164346309100e-001

1.24666332745679e+005,-1.16748685573815e+001,-8.58957857021492e-001

1.26406609898139e+005,-1.16748991507405e+001,-8.70914665632136e-001

1.28171180414339e+005,-1.16749305587762e+001,-8.83036998216807e-001

1.29960383416997e+005,-1.16749628019019e+001,-8.95327109872027e-001

1.31774562762811e+005,-1.16749959009721e+001,-9.07787285044635e-001

1.33614067108538e+005,-1.16750298772863e+001,-9.20419837870278e-001

1.35479249978003e+005,-1.16750647525953e+001,-9.33227112509586e-001

1.37370469830040e+005,-1.16751005491060e+001,-9.46211483486773e-001

1.39288090127379e+005,-1.16751372894862e+001,-9.59375356032984e-001

1.41232479406504e+005,-1.16751749968689e+001,-9.72721166431968e-001

1.43204011348474e+005,-1.16752136948572e+001,-9.86251382367039e-001

1.45203064850745e+005,-1.16752534075280e+001,-9.99968503270069e-001

1.47230024099979e+005,-1.16752941594354e+001,-1.01387506067633e+000

1.49285278645888e+005,-1.16753359756145e+001,-1.02797361857836e+000

1.51369223476094e+005,-1.16753788815842e+001,-1.04226677378457e+000

1.53482259092041e+005,-1.16754229033497e+001,-1.05675715627897e+000

1.55624791585964e+005,-1.16754680674046e+001,-1.07144742958526e+000

1.57797232718936e+005,-1.16755144007324e+001,-1.08634029113377e+000

1.59999999999999e+005,-1.16755619308080e+001,-1.10143847262891e+000

1.62233516766403e+005,-1.16756106855983e+001,-1.11674474042083e+000

1.64498212264969e+005,-1.16756606935613e+001,-1.13226189588283e+000

1.66794521734578e+005,-1.16757119836469e+001,-1.14799277578625e+000

1.69122886489819e+005,-1.16757645852946e+001,-1.16394025268328e+000

1.71483754005805e+005,-1.16758185284317e+001,-1.18010723529053e+000

1.73877578004168e+005,-1.16758738434713e+001,-1.19649666887641e+000

1.76304818540256e+005,-1.16759305613076e+001,-1.21311153565339e+000

1.78765942091554e+005,-1.16759887133128e+001,-1.22995485517094e+000

1.81261421647326e+005,-1.16760483313311e+001,-1.24702968471535e+000

1.83791736799524e+005,-1.16761094476730e+001,-1.26433911971073e+000

1.86357373834951e+005,-1.16761720951080e+001,-1.28188629412692e+000

1.88958825828723e+005,-1.16762363068566e+001,-1.29967438088917e+000

1.91596592739027e+005,-1.16763021165811e+001,-1.31770659229303e+000

1.94271181503206e+005,-1.16763695583752e+001,-1.33598618042473e+000

1.96983106135185e+005,-1.16764386667527e+001,-1.35451643758608e+000

1.99732887824256e+005,-1.16765094766342e+001,-1.37330069672466e+000

2.02521055035243e+005,-1.16765820233339e+001,-1.39234233186837e+000

2.05348143610063e+005,-1.16766563425434e+001,-1.41164475856836e+000

2.08214696870707e+005,-1.16767324703152e+001,-1.43121143434475e+000

2.11121265723661e+005,-1.16768104430446e+001,-1.45104585914256e+000

2.14068408765776e+005,-1.16768902974492e+001,-1.47115157579163e+000

2.17056692391625e+005,-1.16769720705481e+001,-1.49153217047529e+000

2.20086690902357e+005,-1.16770557996387e+001,-1.51219127320569e+000

2.23158986616063e+005,-1.16771415222714e+001,-1.53313255830958e+000

2.26274169979693e+005,-1.16772292762233e+001,-1.55435974491991e+000

2.29432839682530e+005,-1.16773190994697e+001,-1.57587659747930e+000

2.32635602771247e+005,-1.16774110301539e+001,-1.59768692625076e+000

2.35883074766574e+005,-1.16775051065543e+001,-1.61979458784161e+000

2.39175879781588e+005,-1.16776013670508e+001,-1.64220348573590e+000

2.42514650641661e+005,-1.16776998500875e+001,-1.66491757084120e+000

2.45900029006080e+005,-1.16778005941347e+001,-1.68794084204456e+000

2.49332665491357e+005,-1.16779036376479e+001,-1.71127734678445e+000

2.52813219796278e+005,-1.16780090190245e+001,-1.73493118163584e+000

2.56342360828676e+005,-1.16781167765591e+001,-1.75890649290863e+000

2.59920766833993e+005,-1.16782269483951e+001,-1.78320747726413e+000

2.63549125525621e+005,-1.16783395724749e+001,-1.80783838234562e+000

2.67228134217075e+005,-1.16784546864875e+001,-1.83280350742877e+000

2.70958499956006e+005,-1.16785723278135e+001,-1.85810720408747e+000

2.74740939660078e+005,-1.16786925334673e+001,-1.88375387688267e+000

2.78576180254757e+005,-1.16788153400375e+001,-1.90974798406836e+000

2.82464958813007e+005,-1.16789407836245e+001,-1.93609403832125e+000

2.86408022696948e+005,-1.16790688997746e+001,-1.96279660749264e+000

2.90406129701488e+005,-1.16791997234135e+001,-1.98986031538300e+000

2.94460048199957e+005,-1.16793332887752e+001,-2.01728984254354e+000

2.98570557291775e+005,-1.16794696293300e+001,-2.04508992710238e+000

3.02738446952187e+005,-1.16796087777085e+001,-2.07326536561944e+000

3.06964518184081e+005,-1.16797507656243e+001,-2.10182101396922e+000

3.11249583171928e+005,-1.16798956237940e+001,-2.13076178825350e+000

3.15594465437872e+005,-1.16800433818536e+001,-2.16009266574786e+000

3.19999999999997e+005,-1.16801940682747e+001,-2.18981868587772e+000

3.24467033532806e+005,-1.16803477102762e+001,-2.21994495123027e+000

3.28996424529938e+005,-1.16805043337353e+001,-2.25047662860310e+000

3.33589043469155e+005,-1.16806639630955e+001,-2.28141895008709e+000

3.38245772979638e+005,-1.16808266212731e+001,-2.31277721419056e+000

3.42967508011610e+005,-1.16809923295616e+001,-2.34455678700118e+000

3.47755156008335e+005,-1.16811611075341e+001,-2.37676310338998e+000

3.52609637080511e+005,-1.16813329729442e+001,-2.40940166825763e+000

3.57531884183106e+005,-1.16815079416261e+001,-2.44247805782536e+000

3.62522843294651e+005,-1.16816860273918e+001,-2.47599792097026e+000

3.67583473599047e+005,-1.16818672419289e+001,-2.50996698060772e+000

3.72714747669902e+005,-1.16820515946964e+001,-2.54439103512138e+000

3.77917651657445e+005,-1.16822390928199e+001,-2.57927595984309e+000

3.83193185478053e+005,-1.16824297409869e+001,-2.61462770858184e+000

3.88542363006410e+005,-1.16826235413412e+001,-2.65045231520522e+000

3.93966212270369e+005,-1.16828204933774e+001,-2.68675589527282e+000

3.99465775648511e+005,-1.16830205938365e+001,-2.72354464772233e+000

4.05042110070485e+005,-1.16832238366006e+001,-2.76082485661156e+000

4.10696287220124e+005,-1.16834302125896e+001,-2.79860289291410e+000

4.16429393741414e+005,-1.16836397096592e+001,-2.83688521637111e+000

4.22242531447321e+005,-1.16838523124989e+001,-2.87567837739983e+000

4.28136817531551e+005,-1.16840680025340e+001,-2.91498901905791e+000

4.34113384783250e+005,-1.16842867578277e+001,-2.95482387906590e+000

4.40173381804713e+005,-1.16845085529871e+001,-2.99518979188563e+000

4.46317973232124e+005,-1.16847333590714e+001,-3.03609369085706e+000

4.52548339959385e+005,-1.16849611435036e+001,-3.07754261039199e+000

4.58865679365059e+005,-1.16851918699853e+001,-3.11954368822402e+000

4.65271205542494e+005,-1.16854254984162e+001,-3.16210416771563e+000

4.71766149533147e+005,-1.16856619848174e+001,-3.20523140022032e+000

4.78351759563174e+005,-1.16859012812593e+001,-3.24893284750141e+000

4.85029301283321e+005,-1.16861433357950e+001,-3.29321608420268e+000

4.91800058012158e+005,-1.16863880923983e+001,-3.33808880037396e+000

4.98665330982714e+005,-1.16866354909084e+001,-3.38355880404750e+000

5.05626439592555e+005,-1.16868854669803e+001,-3.42963402386434e+000

5.12684721657352e+005,-1.16871379520408e+001,-3.47632251175041e+000

5.19841533667984e+005,-1.16873928732527e+001,-3.52363244563761e+000

5.27098251051240e+005,-1.16876501534845e+001,-3.57157213223108e+000

5.34456268434150e+005,-1.16879097112887e+001,-3.62015000981836e+000

5.41916999912011e+005,-1.16881714608865e+001,-3.66937465111872e+000

