Freq.,VOut,OutRef

1.00000000000000e+004,-1.28880268609435e+001,-1.18411517382924e-001

1.01395947979003e+004,-1.28880271403912e+001,-1.20064456998874e-001

1.02811382665607e+004,-1.28880274276926e+001,-1.21740469791317e-001

1.04246576084112e+004,-1.28880277230686e+001,-1.23439877806636e-001

1.05701804056138e+004,-1.28880280267457e+001,-1.25163007586402e-001

1.07177346253629e+004,-1.28880283389573e+001,-1.26910190227878e-001

1.08673486252606e+004,-1.28880286599429e+001,-1.28681761449480e-001

1.10190511587661e+004,-1.28880289899493e+001,-1.30478061651764e-001

1.11728713807222e+004,-1.28880293292299e+001,-1.32299435985258e-001

1.13288388529580e+004,-1.28880296780450e+001,-1.34146234419446e-001

1.14869835499703e+004,-1.28880300366627e+001,-1.36018811802439e-001

1.16473358646846e+004,-1.28880304053581e+001,-1.37917527937714e-001

1.18099266142953e+004,-1.28880307844144e+001,-1.39842747646500e-001

1.19747870461893e+004,-1.28880311741226e+001,-1.41794840840053e-001

1.21419488439505e+004,-1.28880315747819e+001,-1.43774182591060e-001

1.23114441334492e+004,-1.28880319867001e+001,-1.45781153204406e-001

1.24833054890161e+004,-1.28880324101929e+001,-1.47816138294239e-001

1.26575659397028e+004,-1.28880328455860e+001,-1.49879528849952e-001

1.28342589756290e+004,-1.28880332932131e+001,-1.51971721318768e-001

1.30134185544193e+004,-1.28880337534182e+001,-1.54093117677006e-001

1.31950791077289e+004,-1.28880342265543e+001,-1.56244125510325e-001

1.33792755478611e+004,-1.28880347129845e+001,-1.58425158090572e-001

1.35660432744767e+004,-1.28880352130823e+001,-1.60636634452211e-001

1.37554181813974e+004,-1.28880357272314e+001,-1.62878979478065e-001

1.39474366635040e+004,-1.28880362558262e+001,-1.65152623977707e-001

1.41421356237309e+004,-1.28880367992727e+001,-1.67458004767779e-001

1.43395524801583e+004,-1.28880373579876e+001,-1.69795564761002e-001

1.45397251732031e+004,-1.28880379323996e+001,-1.72165753047985e-001

1.47426921729110e+004,-1.28880385229496e+001,-1.74569024980517e-001

1.49484924863494e+004,-1.28880391300905e+001,-1.77005842266102e-001

1.51571656651040e+004,-1.28880397542881e+001,-1.79476673049109e-001

1.53687518128801e+004,-1.28880403960213e+001,-1.81981992004158e-001

1.55832915932100e+004,-1.28880410557823e+001,-1.84522280426745e-001

1.58008262372675e+004,-1.28880417340771e+001,-1.87098026324504e-001

1.60213975517924e+004,-1.28880424314261e+001,-1.89709724511196e-001

1.62450479271247e+004,-1.28880431483640e+001,-1.92357876701311e-001

1.64718203453514e+004,-1.28880438854406e+001,-1.95042991607238e-001

1.67017583885674e+004,-1.28880446432210e+001,-1.97765585035096e-001

1.69349062472505e+004,-1.28880454222863e+001,-2.00526179982466e-001

1.71713087287550e+004,-1.28880462232338e+001,-2.03325306742690e-001

1.74110112659224e+004,-1.28880470466775e+001,-2.06163503001390e-001

1.76540599258131e+004,-1.28880478932488e+001,-2.09041313941603e-001

1.79005014185594e+004,-1.28880487635965e+001,-2.11959292350662e-001

1.81503831063432e+004,-1.28880496583875e+001,-2.14917998721545e-001

1.84037530124975e+004,-1.28880505783079e+001,-2.17918001361147e-001

1.86606598307361e+004,-1.28880515240624e+001,-2.20959876501454e-001

1.89211529345119e+004,-1.28880524963759e+001,-2.24044208406925e-001

1.91852823865052e+004,-1.28880534959930e+001,-2.27171589488959e-001

1.94530989482457e+004,-1.28880545236799e+001,-2.30342620414750e-001

1.97246540898671e+004,-1.28880555802238e+001,-2.33557910226336e-001

1.99999999999999e+004,-1.28880566664337e+001,-2.36818076456744e-001

2.02791895958005e+004,-1.28880577831417e+001,-2.40123745245515e-001

2.05622765331213e+004,-1.28880589312030e+001,-2.43475551457877e-001

2.08493152168224e+004,-1.28880601114965e+001,-2.46874138811560e-001

2.11403608112276e+004,-1.28880613249260e+001,-2.50320159992460e-001

2.14354692507258e+004,-1.28880625724205e+001,-2.53814276784016e-001

2.17346972505211e+004,-1.28880638549347e+001,-2.57357160192598e-001

2.20381023175322e+004,-1.28880651734503e+001,-2.60949490574029e-001

2.23457427614443e+004,-1.28880665289763e+001,-2.64591957766502e-001

2.26576777059159e+004,-1.28880679225498e+001,-2.68285261218326e-001

2.29739670999406e+004,-1.28880693552371e+001,-2.72030110124325e-001

2.32946717293690e+004,-1.28880708281341e+001,-2.75827223559714e-001

2.36198532285905e+004,-1.28880723423671e+001,-2.79677330619438e-001

2.39495740923785e+004,-1.28880738990945e+001,-2.83581170551719e-001

2.42838976879009e+004,-1.28880754995063e+001,-2.87539492906548e-001

2.46228882668982e+004,-1.28880771448262e+001,-2.91553057671666e-001

2.49666109780322e+004,-1.28880788363117e+001,-2.95622635422364e-001

2.53151318794055e+004,-1.28880805752557e+001,-2.99749007464262e-001

2.56685179512580e+004,-1.28880823629868e+001,-3.03932965986175e-001

2.60268371088386e+004,-1.28880842008711e+001,-3.08175314205944e-001

2.63901582154578e+004,-1.28880860903122e+001,-3.12476866529465e-001

2.67585510957221e+004,-1.28880880327533e+001,-3.16838448699789e-001

2.71320865489533e+004,-1.28880900296777e+001,-3.21260897956977e-001

2.75108363627948e+004,-1.28880920826098e+001,-3.25745063197654e-001

2.78948733270080e+004,-1.28880941931167e+001,-3.30291805136094e-001

2.82842712474618e+004,-1.28880963628090e+001,-3.34901996466689e-001

2.86791049603164e+004,-1.28880985933421e+001,-3.39576522031001e-001

2.90794503464061e+004,-1.28881008864174e+001,-3.44316278985770e-001

2.94853843458219e+004,-1.28881032437841e+001,-3.49122176970900e-001

2.98969849726987e+004,-1.28881056672393e+001,-3.53995138286723e-001

3.03143313302078e+004,-1.28881081586306e+001,-3.58936098064206e-001

3.07375036257601e+004,-1.28881107198566e+001,-3.63946004446721e-001

3.11665831864199e+004,-1.28881133528690e+001,-3.69025818765021e-001

3.16016524745350e+004,-1.28881160596734e+001,-3.74176515723109e-001

3.20427951035848e+004,-1.28881188423311e+001,-3.79399083582745e-001

3.24900958542493e+004,-1.28881217029609e+001,-3.84694524347700e-001

3.29436406907028e+004,-1.28881246437400e+001,-3.90063853956736e-001

3.34035167771346e+004,-1.28881276669060e+001,-3.95508102474427e-001

3.38698124945009e+004,-1.28881307747589e+001,-4.01028314285470e-001

3.43426174575100e+004,-1.28881339696620e+001,-4.06625548292785e-001

3.48220225318448e+004,-1.28881372540445e+001,-4.12300878117621e-001

3.53081198516260e+004,-1.28881406304022e+001,-4.18055392303085e-001

3.58010028371187e+004,-1.28881441013005e+001,-4.23890194518462e-001

3.63007662126863e+004,-1.28881476693757e+001,-4.29806403766335e-001

3.68075060249948e+004,-1.28881513373367e+001,-4.35805154597655e-001

3.73213196614721e+004,-1.28881551079676e+001,-4.41887597321636e-001

3.78423058690237e+004,-1.28881589841292e+001,-4.48054898224227e-001

3.83705647730104e+004,-1.28881629687613e+001,-4.54308239787891e-001

3.89061978964912e+004,-1.28881670648848e+001,-4.60648820913771e-001

3.94493081797342e+004,-1.28881712756040e+001,-4.67077857146773e-001

3.99999999999998e+004,-1.28881756041087e+001,-4.73596580903987e-001

4.05583791916010e+004,-1.28881800536763e+001,-4.80206241709190e-001

4.11245530662425e+004,-1.28881846276752e+001,-4.86908106421317e-001

4.16986304336447e+004,-1.28881893295655e+001,-4.93703459479512e-001

4.22807216224550e+004,-1.28881941629032e+001,-5.00593603137632e-001

4.28709385014515e+004,-1.28881991313415e+001,-5.07579857712485e-001

4.34693945010421e+004,-1.28882042386345e+001,-5.14663561827995e-001

4.40762046350642e+004,-1.28882094886386e+001,-5.21846072668733e-001

4.46914855228886e+004,-1.28882148853166e+001,-5.29128766231724e-001

4.53153554118317e+004,-1.28882204327394e+001,-5.36513037583602e-001

4.59479341998812e+004,-1.28882261350900e+001,-5.44000301120716e-001

4.65893434587380e+004,-1.28882319966650e+001,-5.51591990836394e-001

4.72397064571810e+004,-1.28882380218793e+001,-5.59289560581808e-001

4.78991481847569e+004,-1.28882442152680e+001,-5.67094484343783e-001

4.85677953758016e+004,-1.28882505814901e+001,-5.75008256513330e-001

4.92457765337964e+004,-1.28882571253316e+001,-5.83032392167252e-001

4.99332219560642e+004,-1.28882638517091e+001,-5.91168427347719e-001

5.06302637588109e+004,-1.28882707656731e+001,-5.99417919347767e-001

5.13370359025159e+004,-1.28882778724110e+001,-6.07782447000868e-001

5.20536742176771e+004,-1.28882851772518e+001,-6.16263610971800e-001

5.27803164309155e+004,-1.28882926856689e+001,-6.24863034053220e-001

5.35171021914442e+004,-1.28883004032841e+001,-6.33582361467517e-001

5.42641730979066e+004,-1.28883083358717e+001,-6.42423261167189e-001

5.50216727255895e+004,-1.28883164893622e+001,-6.51387424145800e-001

5.57897466540159e+004,-1.28883248698464e+001,-6.60476564747519e-001

5.65685424949235e+004,-1.28883334835796e+001,-6.69692420983575e-001

5.73582099206328e+004,-1.28883423369860e+001,-6.79036754851255e-001

5.81589006928121e+004,-1.28883514366628e+001,-6.88511352657102e-001

5.89707686916437e+004,-1.28883607893845e+001,-6.98118025346715e-001

5.97939699453972e+004,-1.28883704021081e+001,-7.07858608831768e-001

6.06286626604156e+004,-1.28883802819769e+001,-7.17734964331445e-001

6.14750072515201e+004,-1.28883904363260e+001,-7.27748978708042e-001

6.23331663728396e+004,-1.28884008726867e+001,-7.37902564813808e-001

6.32033049490698e+004,-1.28884115987918e+001,-7.48197661837025e-001

6.40855902071694e+004,-1.28884226225800e+001,-7.58636235658319e-001

6.49801917084985e+004,-1.28884339522022e+001,-7.69220279203487e-001

6.58872813814055e+004,-1.28884455960259e+001,-7.79951812808033e-001

6.68070335542691e+004,-1.28884575626406e+001,-7.90832884582429e-001

6.77396249890018e+004,-1.28884698608642e+001,-8.01865570781126e-001

6.86852349150199e+004,-1.28884824997475e+001,-8.13051976179136e-001

6.96440450636895e+004,-1.28884954885810e+001,-8.24394234449951e-001

7.06162397032520e+004,-1.28885088369000e+001,-8.35894508550619e-001

7.16020056742374e+004,-1.28885225544911e+001,-8.47554991109157e-001

7.26015324253724e+004,-1.28885366513978e+001,-8.59377904818396e-001

7.36150120499896e+004,-1.28885511379274e+001,-8.71365502833346e-001

7.46426393229441e+004,-1.28885660246570e+001,-8.83520069173612e-001

7.56846117380472e+004,-1.28885813224398e+001,-8.95843919131889e-001

7.67411295460207e+004,-1.28885970424120e+001,-9.08339399683696e-001

7.78123957929823e+004,-1.28886131959994e+001,-9.21008889906590e-001

7.88986163594682e+004,-1.28886297949244e+001,-9.33854801399929e-001

7.99999999999995e+004,-1.28886468512126e+001,-9.46879578713009e-001

8.11167583832018e+004,-1.28886643772003e+001,-9.60085699774906e-001

8.22491061324848e+004,-1.28886823855417e+001,-9.73475676331970e-001

8.33972608672892e+004,-1.28887008892159e+001,-9.87052054388969e-001

8.45614432449099e+004,-1.28887199015344e+001,-1.00081741465577e+000

8.57418770029029e+004,-1.28887394361491e+001,-1.01477437299822e+000

8.69387890020841e+004,-1.28887595070596e+001,-1.02892558089426e+000

8.81524092701283e+004,-1.28887801286212e+001,-1.04327372589688e+000

8.93829710457770e+004,-1.28888013155524e+001,-1.05782153209986e+000

9.06307108236633e+004,-1.28888230829437e+001,-1.07257176060985e+000

9.18958683997622e+004,-1.28888454462651e+001,-1.08752721002321e+000

9.31786869174758e+004,-1.28888684213745e+001,-1.10269071690897e+000

9.44794129143618e+004,-1.28888920245262e+001,-1.11806515629570e+000

9.57982963695136e+004,-1.28889162723794e+001,-1.13365344216422e+000

9.71355907516031e+004,-1.28889411820063e+001,-1.14945852794639e+000

9.84915530675926e+004,-1.28889667709012e+001,-1.16548340702794e+000

9.98664439121282e+004,-1.28889930569892e+001,-1.18173111325749e+000

1.01260527517622e+005,-1.28890200586346e+001,-1.19820472146039e+000

1.02674071805032e+005,-1.28890477946503e+001,-1.21490734795859e+000

1.04107348435354e+005,-1.28890762843063e+001,-1.23184215109519e+000

1.05560632861831e+005,-1.28891055473390e+001,-1.24901233176544e+000

1.07034204382888e+005,-1.28891356039600e+001,-1.26642113395190e+000

1.08528346195813e+005,-1.28891664748656e+001,-1.28407184526613e+000

1.10043345451179e+005,-1.28891981812456e+001,-1.30196779749558e+000

1.11579493308032e+005,-1.28892307447924e+001,-1.32011236715573e+000

1.13137084989847e+005,-1.28892641877105e+001,-1.33850897604847e+000

1.14716419841265e+005,-1.28892985327255e+001,-1.35716109182585e+000

1.16317801385624e+005,-1.28893338030934e+001,-1.37607222855789e+000

1.17941537383287e+005,-1.28893700226092e+001,-1.39524594730921e+000

1.19587939890794e+005,-1.28894072156171e+001,-1.41468585671812e+000

1.21257325320831e+005,-1.28894454070184e+001,-1.43439561358389e+000

1.22950014503040e+005,-1.28894846222814e+001,-1.45437892345711e+000

1.24666332745679e+005,-1.28895248874499e+001,-1.47463954123955e+000

1.26406609898139e+005,-1.28895662291519e+001,-1.49518127178556e+000

1.28171180414339e+005,-1.28896086746087e+001,-1.51600797051238e+000

1.29960383416997e+005,-1.28896522516432e+001,-1.53712354401485e+000

1.31774562762811e+005,-1.28896969886884e+001,-1.55853195068656e+000

1.33614067108538e+005,-1.28897429147955e+001,-1.58023720134668e+000

1.35479249978003e+005,-1.28897900596422e+001,-1.60224335987329e+000

1.37370469830040e+005,-1.28898384535402e+001,-1.62455454384151e+000

1.39288090127379e+005,-1.28898881274428e+001,-1.64717492516892e+000

1.41232479406504e+005,-1.28899391129523e+001,-1.67010873076682e+000

1.43204011348474e+005,-1.28899914423268e+001,-1.69336024319726e+000

1.45203064850745e+005,-1.28900451484869e+001,-1.71693380133631e+000

1.47230024099979e+005,-1.28901002650218e+001,-1.74083380104494e+000

1.49285278645888e+005,-1.28901568261949e+001,-1.76506469584412e+000

1.51369223476094e+005,-1.28902148669497e+001,-1.78963099759804e+000

1.53482259092041e+005,-1.28902744229145e+001,-1.81453727720326e+000

1.55624791585964e+005,-1.28903355304063e+001,-1.83978816528542e+000

1.57797232718936e+005,-1.28903982264351e+001,-1.86538835290080e+000

1.59999999999999e+005,-1.28904625487069e+001,-1.89134259224673e+000

1.62233516766403e+005,-1.28905285356263e+001,-1.91765569737826e+000

1.64498212264969e+005,-1.28905962262981e+001,-1.94433254493133e+000

1.66794521734578e+005,-1.28906656605289e+001,-1.97137807485483e+000

1.69122886489819e+005,-1.28907368788271e+001,-1.99879729114788e+000

1.71483754005805e+005,-1.28908099224021e+001,-2.02659526260801e+000

1.73877578004168e+005,-1.28908848331635e+001,-2.05477712358322e+000

1.76304818540256e+005,-1.28909616537181e+001,-2.08334807473535e+000

1.78765942091554e+005,-1.28910404273670e+001,-2.11231338380984e+000

1.81261421647326e+005,-1.28911211981009e+001,-2.14167838641536e+000

1.83791736799524e+005,-1.28912040105946e+001,-2.17144848681037e+000

1.86357373834951e+005,-1.28912889102000e+001,-2.20162915870097e+000

1.88958825828723e+005,-1.28913759429386e+001,-2.23222594604631e+000

1.91596592739027e+005,-1.28914651554915e+001,-2.26324446387443e+000

1.94271181503206e+005,-1.28915565951893e+001,-2.29469039910842e+000

1.96983106135185e+005,-1.28916503099992e+001,-2.32656951140221e+000

1.99732887824256e+005,-1.28917463485122e+001,-2.35888763398746e+000

2.02521055035243e+005,-1.28918447599268e+001,-2.39165067453258e+000

2.05348143610063e+005,-1.28919455940329e+001,-2.42486461601152e+000

2.08214696870707e+005,-1.28920489011923e+001,-2.45853551758712e+000

2.11121265723661e+005,-1.28921547323186e+001,-2.49266951550523e+000

2.14068408765776e+005,-1.28922631388549e+001,-2.52727282400288e+000

2.17056692391625e+005,-1.28923741727488e+001,-2.56235173623016e+000

2.20086690902357e+005,-1.28924878864266e+001,-2.59791262518727e+000

2.23158986616063e+005,-1.28926043327641e+001,-2.63396194467553e+000

2.26274169979693e+005,-1.28927235650561e+001,-2.67050623026554e+000

2.29432839682530e+005,-1.28928456369835e+001,-2.70755210028055e+000

2.32635602771247e+005,-1.28929706025776e+001,-2.74510625679871e+000

2.35883074766574e+005,-1.28930985161821e+001,-2.78317548667275e+000

2.39175879781588e+005,-1.28932294324132e+001,-2.82176666256879e+000

2.42514650641661e+005,-1.28933634061163e+001,-2.86088674402519e+000

2.45900029006080e+005,-1.28935004923207e+001,-2.90054277853282e+000

2.49332665491357e+005,-1.28936407461910e+001,-2.94074190263803e+000

2.52813219796278e+005,-1.28937842229761e+001,-2.98149134306672e+000

2.56342360828676e+005,-1.28939309779558e+001,-3.02279841787422e+000

2.59920766833993e+005,-1.28940810663833e+001,-3.06467053762111e+000

2.63549125525621e+005,-1.28942345434260e+001,-3.10711520657398e+000

2.67228134217075e+005,-1.28943914641025e+001,-3.15014002393624e+000

2.70958499956006e+005,-1.28945518832171e+001,-3.19375268510567e+000

2.74740939660078e+005,-1.28947158552910e+001,-3.23796098296524e+000

2.78576180254757e+005,-1.28948834344900e+001,-3.28277280920478e+000

2.82464958813007e+005,-1.28950546745501e+001,-3.32819615567542e+000

2.86408022696948e+005,-1.28952296286991e+001,-3.37423911578166e+000

2.90406129701488e+005,-1.28954083495752e+001,-3.42090988590737e+000

2.94460048199957e+005,-1.28955908891431e+001,-3.46821676688140e+000

2.98570557291775e+005,-1.28957772986060e+001,-3.51616816548426e+000

3.02738446952187e+005,-1.28959676283154e+001,-3.56477259599409e+000

3.06964518184081e+005,-1.28961619276776e+001,-3.61403868177811e+000

3.11249583171928e+005,-1.28963602450568e+001,-3.66397515692852e+000

3.15594465437872e+005,-1.28965626276759e+001,-3.71459086794614e+000

3.19999999999997e+005,-1.28967691215141e+001,-3.76589477547165e+000

3.24467033532806e+005,-1.28969797712019e+001,-3.81789595606882e+000

3.28996424529938e+005,-1.28971946199131e+001,-3.87060360406032e+000

3.33589043469155e+005,-1.28974137092551e+001,-3.92402703341742e+000

3.38245772979638e+005,-1.28976370791557e+001,-3.97817567970706e+000

3.42967508011610e+005,-1.28978647677488e+001,-4.03305910209628e+000

3.47755156008335e+005,-1.28980968112570e+001,-4.08868698541858e+000

3.52609637080511e+005,-1.28983332438734e+001,-4.14506914230101e+000

3.57531884183106e+005,-1.28985740976407e+001,-4.20221551535553e+000

3.62522843294651e+005,-1.28988194023299e+001,-4.26013617943684e+000

3.67583473599047e+005,-1.28990691853167e+001,-4.31884134396811e+000

3.72714747669902e+005,-1.28993234714585e+001,-4.37834135533461e+000

3.77917651657445e+005,-1.28995822829687e+001,-4.43864669935107e+000

3.83193185478053e+005,-1.28998456392929e+001,-4.49976800379897e+000

3.88542363006410e+005,-1.29001135569837e+001,-4.56171604104047e+000

3.93966212270369e+005,-1.29003860495761e+001,-4.62450173070680e+000

3.99465775648511e+005,-1.29006631274637e+001,-4.68813614246351e+000

4.05042110070485e+005,-1.29009447977762e+001,-4.75263049885631e+000

4.10696287220124e+005,-1.29012310642579e+001,-4.81799617823292e+000

4.16429393741414e+005,-1.29015219271486e+001,-4.88424471774903e+000

4.22242531447321e+005,-1.29018173830660e+001,-4.95138781645274e+000

4.28136817531551e+005,-1.29021174248921e+001,-5.01943733845286e+000

4.34113384783250e+005,-1.29024220416612e+001,-5.08840531616914e+000

4.40173381804713e+005,-1.29027312184528e+001,-5.15830395366527e+000

4.46317973232124e+005,-1.29030449362884e+001,-5.22914563006505e+000

4.52548339959385e+005,-1.29033631720317e+001,-5.30094290305300e+000

4.58865679365059e+005,-1.29036858982959e+001,-5.37370851245534e+000

4.65271205542494e+005,-1.29040130833548e+001,-5.44745538390578e+000

4.71766149533147e+005,-1.29043446910606e+001,-5.52219663259250e+000

4.78351759563174e+005,-1.29046806807682e+001,-5.59794556708573e+000

4.85029301283321e+005,-1.29050210072666e+001,-5.67471569324507e+000

4.91800058012158e+005,-1.29053656207175e+001,-5.75252071820714e+000

4.98665330982714e+005,-1.29057144666017e+001,-5.83137455444844e+000

5.05626439592555e+005,-1.29060674856747e+001,-5.91129132392436e+000

5.12684721657352e+005,-1.29064246139297e+001,-5.99228536228275e+000

5.19841533667984e+005,-1.29067857825716e+001,-6.07437122314611e+000

5.27098251051240e+005,-1.29071509179986e+001,-6.15756368246567e+000

5.34456268434150e+005,-1.29075199417958e+001,-6.24187774293898e+000

5.41916999912011e+005,-1.29078927707376e+001,-6.32732863849324e+000

