Freq.,VOut,OutRef

1.00000000000000e+004,-2.43056389506648e+001,-4.14152005873921e-001

1.01395947979003e+004,-2.43056416261428e+001,-4.19933268283135e-001

1.02811382665607e+004,-2.43056443768325e+001,-4.25795230534945e-001

1.04246576084112e+004,-2.43056472048481e+001,-4.31739019005758e-001

1.05701804056138e+004,-2.43056501123632e+001,-4.37765775788908e-001

1.07177346253629e+004,-2.43056531016123e+001,-4.43876658914118e-001

1.08673486252606e+004,-2.43056561748929e+001,-4.50072842569738e-001

1.10190511587661e+004,-2.43056593345671e+001,-4.56355517326541e-001

1.11728713807222e+004,-2.43056625830632e+001,-4.62725890369969e-001

1.13288388529580e+004,-2.43056659228779e+001,-4.69185185726524e-001

1.14869835499703e+004,-2.43056693565780e+001,-4.75734644503872e-001

1.16473358646846e+004,-2.43056728868023e+001,-4.82375525123835e-001

1.18099266142953e+004,-2.43056765162640e+001,-4.89109103567816e-001

1.19747870461893e+004,-2.43056802477524e+001,-4.95936673619132e-001

1.21419488439505e+004,-2.43056840841352e+001,-5.02859547112191e-001

1.23114441334492e+004,-2.43056880283607e+001,-5.09879054183475e-001

1.24833054890161e+004,-2.43056920834600e+001,-5.16996543527627e-001

1.26575659397028e+004,-2.43056962525497e+001,-5.24213382653562e-001

1.28342589756290e+004,-2.43057005388333e+001,-5.31530958150626e-001

1.30134185544193e+004,-2.43057049456049e+001,-5.38950675950864e-001

1.31950791077289e+004,-2.43057094762511e+001,-5.46473961599570e-001

1.33792755478611e+004,-2.43057141342533e+001,-5.54102260530690e-001

1.35660432744767e+004,-2.43057189231911e+001,-5.61837038339786e-001

1.37554181813974e+004,-2.43057238467446e+001,-5.69679781068255e-001

1.39474366635040e+004,-2.43057289086970e+001,-5.77631995487913e-001

1.41421356237309e+004,-2.43057341129382e+001,-5.85695209387320e-001

1.43395524801583e+004,-2.43057394634672e+001,-5.93870971867541e-001

1.45397251732031e+004,-2.43057449643954e+001,-6.02160853635696e-001

1.47426921729110e+004,-2.43057506199496e+001,-6.10566447309913e-001

1.49484924863494e+004,-2.43057564344755e+001,-6.19089367721104e-001

1.51571656651040e+004,-2.43057624124409e+001,-6.27731252223044e-001

1.53687518128801e+004,-2.43057685584390e+001,-6.36493761006866e-001

1.55832915932100e+004,-2.43057748771920e+001,-6.45378577418698e-001

1.58008262372675e+004,-2.43057813735550e+001,-6.54387408281105e-001

1.60213975517924e+004,-2.43057880525192e+001,-6.63521984221378e-001

1.62450479271247e+004,-2.43057949192162e+001,-6.72784060001934e-001

1.64718203453514e+004,-2.43058019789217e+001,-6.82175414856295e-001

1.67017583885674e+004,-2.43058092370596e+001,-6.91697852829365e-001

1.69349062472505e+004,-2.43058166992061e+001,-7.01353203123950e-001

1.71713087287550e+004,-2.43058243710941e+001,-7.11143320449365e-001

1.74110112659224e+004,-2.43058322586175e+001,-7.21070085377231e-001

1.76540599258131e+004,-2.43058403678359e+001,-7.31135404700664e-001

1.79005014185594e+004,-2.43058487049787e+001,-7.41341211800633e-001

1.81503831063432e+004,-2.43058572764506e+001,-7.51689467012668e-001

1.84037530124975e+004,-2.43058660888361e+001,-7.62182158005500e-001

1.86606598307361e+004,-2.43058751489045e+001,-7.72821300157634e-001

1.89211529345119e+004,-2.43058844636154e+001,-7.83608936945822e-001

1.91852823865052e+004,-2.43058940401238e+001,-7.94547140333106e-001

1.94530989482457e+004,-2.43059038857854e+001,-8.05638011166803e-001

1.97246540898671e+004,-2.43059140081628e+001,-8.16883679578635e-001

1.99999999999999e+004,-2.43059244150306e+001,-8.28286305393119e-001

2.02791895958005e+004,-2.43059351143821e+001,-8.39848078538075e-001

2.05622765331213e+004,-2.43059461144345e+001,-8.51571219466386e-001

2.08493152168224e+004,-2.43059574236364e+001,-8.63457979575826e-001

2.11403608112276e+004,-2.43059690506731e+001,-8.75510641641863e-001

2.14354692507258e+004,-2.43059810044738e+001,-8.87731520253803e-001

2.17346972505211e+004,-2.43059932942184e+001,-9.00122962254819e-001

2.20381023175322e+004,-2.43060059293448e+001,-9.12687347189883e-001

2.23457427614443e+004,-2.43060189195553e+001,-9.25427087761761e-001

2.26576777059159e+004,-2.43060322748252e+001,-9.38344630288957e-001

2.29739670999406e+004,-2.43060460054092e+001,-9.51442455174783e-001

2.32946717293690e+004,-2.43060601218500e+001,-9.64723077377868e-001

2.36198532285905e+004,-2.43060746349864e+001,-9.78189046892987e-001

2.39495740923785e+004,-2.43060895559613e+001,-9.91842949237102e-001

2.42838976879009e+004,-2.43061048962301e+001,-1.00568740594234e+000

2.46228882668982e+004,-2.43061206675700e+001,-1.01972507505357e+000

2.49666109780322e+004,-2.43061368820884e+001,-1.03395865163760e+000

2.53151318794055e+004,-2.43061535522326e+001,-1.04839086829422e+000

2.56685179512580e+004,-2.43061706907992e+001,-1.06302449567669e+000

2.60268371088386e+004,-2.43061883109435e+001,-1.07786234302054e+000

2.63901582154578e+004,-2.43062064261903e+001,-1.09290725867579e+000

2.67585510957221e+004,-2.43062250504435e+001,-1.10816213065067e+000

2.71320865489533e+004,-2.43062441979972e+001,-1.12362988716029e+000

2.75108363627948e+004,-2.43062638835462e+001,-1.13931349718291e+000

2.78948733270080e+004,-2.43062841221980e+001,-1.15521597102411e+000

2.82842712474618e+004,-2.43063049294831e+001,-1.17134036089025e+000

2.86791049603164e+004,-2.43063263213681e+001,-1.18768976146560e+000

2.90794503464061e+004,-2.43063483142669e+001,-1.20426731050263e+000

2.94853843458219e+004,-2.43063709250541e+001,-1.22107618941520e+000

2.98969849726987e+004,-2.43063941710773e+001,-1.23811962388364e+000

3.03143313302078e+004,-2.43064180701701e+001,-1.25540088446661e+000

3.07375036257601e+004,-2.43064426406665e+001,-1.27292328722059e+000

3.11665831864199e+004,-2.43064679014143e+001,-1.29069019432778e+000

3.16016524745350e+004,-2.43064938717893e+001,-1.30870501473527e+000

3.20427951035848e+004,-2.43065205717110e+001,-1.32697120479806e+000

3.24900958542493e+004,-2.43065480216564e+001,-1.34549226893516e+000

3.29436406907028e+004,-2.43065762426767e+001,-1.36427176029200e+000

3.34035167771346e+004,-2.43066052564131e+001,-1.38331328141161e+000

3.38698124945009e+004,-2.43066350851128e+001,-1.40262048491761e+000

3.43426174575100e+004,-2.43066657516463e+001,-1.42219707420335e+000

3.48220225318448e+004,-2.43066972795249e+001,-1.44204680413058e+000

3.53081198516260e+004,-2.43067296929182e+001,-1.46217348174035e+000

3.58010028371187e+004,-2.43067630166729e+001,-1.48258096696920e+000

3.63007662126863e+004,-2.43067972763314e+001,-1.50327317337841e+000

3.68075060249948e+004,-2.43068324981513e+001,-1.52425406889188e+000

3.73213196614721e+004,-2.43068687091251e+001,-1.54552767654212e+000

3.78423058690237e+004,-2.43069059370012e+001,-1.56709807522991e+000

3.83705647730104e+004,-2.43069442103046e+001,-1.58896940049015e+000

3.89061978964912e+004,-2.43069835583584e+001,-1.61114584526986e+000

3.94493081797342e+004,-2.43070240113067e+001,-1.63363166071713e+000

3.99999999999998e+004,-2.43070656001365e+001,-1.65643115697852e+000

4.05583791916010e+004,-2.43071083567019e+001,-1.67954870400987e+000

4.11245530662425e+004,-2.43071523137481e+001,-1.70298873239375e+000

4.16986304336447e+004,-2.43071975049359e+001,-1.72675573417138e+000

4.22807216224550e+004,-2.43072439648675e+001,-1.75085426368460e+000

4.28709385014515e+004,-2.43072917291127e+001,-1.77528893842747e+000

4.34693945010421e+004,-2.43073408342353e+001,-1.80006443991010e+000

4.40762046350642e+004,-2.43073913178212e+001,-1.82518551453506e+000

4.46914855228886e+004,-2.43074432185070e+001,-1.85065697448154e+000

4.53153554118317e+004,-2.43074965760085e+001,-1.87648369860611e+000

4.59479341998812e+004,-2.43075514311511e+001,-1.90267063335019e+000

4.65893434587380e+004,-2.43076078259006e+001,-1.92922279366330e+000

4.72397064571810e+004,-2.43076658033947e+001,-1.95614526393617e+000

4.78991481847569e+004,-2.43077254079756e+001,-1.98344319894562e+000

4.85677953758016e+004,-2.43077866852235e+001,-2.01112182481360e+000

4.92457765337964e+004,-2.43078496819904e+001,-2.03918643997693e+000

4.99332219560642e+004,-2.43079144464361e+001,-2.06764241617004e+000

5.06302637588109e+004,-2.43079810280638e+001,-2.09649519941987e+000

5.13370359025159e+004,-2.43080494777575e+001,-2.12575031105448e+000

5.20536742176771e+004,-2.43081198478205e+001,-2.15541334872401e+000

5.27803164309155e+004,-2.43081921920139e+001,-2.18548998743429e+000

5.35171021914442e+004,-2.43082665655978e+001,-2.21598598059364e+000

5.42641730979066e+004,-2.43083430253719e+001,-2.24690716107391e+000

5.50216727255895e+004,-2.43084216297188e+001,-2.27825944228330e+000

5.57897466540159e+004,-2.43085024386470e+001,-2.31004881925491e+000

5.65685424949235e+004,-2.43085855138361e+001,-2.34228136974563e+000

5.73582099206328e+004,-2.43086709186830e+001,-2.37496325535308e+000

5.81589006928121e+004,-2.43087587183487e+001,-2.40810072264201e+000

5.89707686916437e+004,-2.43088489798077e+001,-2.44170010428831e+000

5.97939699453972e+004,-2.43089417718973e+001,-2.47576782023518e+000

6.06286626604156e+004,-2.43090371653688e+001,-2.51031037886475e+000

6.14750072515201e+004,-2.43091352329408e+001,-2.54533437818206e+000

6.23331663728396e+004,-2.43092360493524e+001,-2.58084650701716e+000

6.32033049490698e+004,-2.43093396914195e+001,-2.61685354623762e+000

6.40855902071694e+004,-2.43094462380910e+001,-2.65336236998002e+000

6.49801917084985e+004,-2.43095557705081e+001,-2.69037994689193e+000

6.58872813814055e+004,-2.43096683720638e+001,-2.72791334139338e+000

6.68070335542691e+004,-2.43097841284648e+001,-2.76596971495014e+000

6.77396249890018e+004,-2.43099031277948e+001,-2.80455632736387e+000

6.86852349150199e+004,-2.43100254605795e+001,-2.84368053807662e+000

6.96440450636895e+004,-2.43101512198535e+001,-2.88334980749208e+000

7.06162397032520e+004,-2.43102805012284e+001,-2.92357169831118e+000

7.16020056742374e+004,-2.43104134029635e+001,-2.96435387688410e+000

7.26015324253724e+004,-2.43105500260380e+001,-3.00570411457775e+000

7.36150120499896e+004,-2.43106904742246e+001,-3.04763028915938e+000

7.46426393229441e+004,-2.43108348541662e+001,-3.09014038619604e+000

7.56846117380472e+004,-2.43109832754534e+001,-3.13324250046915e+000

7.67411295460207e+004,-2.43111358507051e+001,-3.17694483740776e+000

7.78123957929823e+004,-2.43112926956499e+001,-3.22125571453543e+000

7.88986163594682e+004,-2.43114539292114e+001,-3.26618356293475e+000

7.99999999999995e+004,-2.43116196735941e+001,-3.31173692872751e+000

8.11167583832018e+004,-2.43117900543723e+001,-3.35792447457308e+000

8.22491061324848e+004,-2.43119652005811e+001,-3.40475498118095e+000

8.33972608672892e+004,-2.43121452448104e+001,-3.45223734884121e+000

8.45614432449099e+004,-2.43123303233000e+001,-3.50038059897232e+000

8.57418770029029e+004,-2.43125205760387e+001,-3.54919387568412e+000

8.69387890020841e+004,-2.43127161468645e+001,-3.59868644735836e+000

8.81524092701283e+004,-2.43129171835687e+001,-3.64886770824678e+000

8.93829710457770e+004,-2.43131238380016e+001,-3.69974718008439e+000

9.06307108236633e+004,-2.43133362661813e+001,-3.75133451372157e+000

9.18958683997622e+004,-2.43135546284061e+001,-3.80363949077146e+000

9.31786869174758e+004,-2.43137790893677e+001,-3.85667202527498e+000

9.44794129143618e+004,-2.43140098182697e+001,-3.91044216538372e+000

9.57982963695136e+004,-2.43142469889475e+001,-3.96496009505747e+000

9.71355907516031e+004,-2.43144907799912e+001,-4.02023613578163e+000

9.84915530675926e+004,-2.43147413748731e+001,-4.07628074829880e+000

9.98664439121282e+004,-2.43149989620765e+001,-4.13310453435963e+000

1.01260527517622e+005,-2.43152637352287e+001,-4.19071823848913e+000

1.02674071805032e+005,-2.43155358932376e+001,-4.24913274977014e+000

1.04107348435354e+005,-2.43158156404309e+001,-4.30835910364404e+000

1.05560632861831e+005,-2.43161031866993e+001,-4.36840848372814e+000

1.07034204382888e+005,-2.43163987476429e+001,-4.42929222364948e+000

1.08528346195813e+005,-2.43167025447217e+001,-4.49102180889537e+000

1.10043345451179e+005,-2.43170148054088e+001,-4.55360887868083e+000

1.11579493308032e+005,-2.43173357633488e+001,-4.61706522783262e+000

1.13137084989847e+005,-2.43176656585184e+001,-4.68140280868845e+000

1.14716419841265e+005,-2.43180047373924e+001,-4.74663373301416e+000

1.16317801385624e+005,-2.43183532531126e+001,-4.81277027393610e+000

1.17941537383287e+005,-2.43187114656614e+001,-4.87982486788940e+000

1.19587939890794e+005,-2.43190796420389e+001,-4.94781011658273e+000

1.21257325320831e+005,-2.43194580564454e+001,-5.01673878897805e+000

1.22950014503040e+005,-2.43198469904667e+001,-5.08662382328682e+000

1.24666332745679e+005,-2.43202467332648e+001,-5.15747832898091e+000

1.26406609898139e+005,-2.43206575817732e+001,-5.22931558881831e+000

1.28171180414339e+005,-2.43210798408957e+001,-5.30214906088510e+000

1.29960383416997e+005,-2.43215138237110e+001,-5.37599238065084e+000

1.31774562762811e+005,-2.43219598516813e+001,-5.45085936303927e+000

1.33614067108538e+005,-2.43224182548660e+001,-5.52676400451329e+000

1.35479249978003e+005,-2.43228893721404e+001,-5.60372048517288e+000

1.37370469830040e+005,-2.43233735514189e+001,-5.68174317086871e+000

1.39288090127379e+005,-2.43238711498839e+001,-5.76084661532707e+000

1.41232479406504e+005,-2.43243825342193e+001,-5.84104556228985e+000

1.43204011348474e+005,-2.43249080808497e+001,-5.92235494766575e+000

1.45203064850745e+005,-2.43254481761845e+001,-6.00478990169533e+000

1.47230024099979e+005,-2.43260032168678e+001,-6.08836575112713e+000

1.49285278645888e+005,-2.43265736100334e+001,-6.17309802140676e+000

1.51369223476094e+005,-2.43271597735659e+001,-6.25900243887603e+000

1.53482259092041e+005,-2.43277621363670e+001,-6.34609493298480e+000

1.55624791585964e+005,-2.43283811386278e+001,-6.43439163851223e+000

1.57797232718936e+005,-2.43290172321068e+001,-6.52390889779914e+000

1.59999999999999e+005,-2.43296708804142e+001,-6.61466326298891e+000

1.62233516766403e+005,-2.43303425593017e+001,-6.70667149827984e+000

1.64498212264969e+005,-2.43310327569587e+001,-6.79995058218529e+000

1.66794521734578e+005,-2.43317419743148e+001,-6.89451770980145e+000

1.69122886489819e+005,-2.43324707253486e+001,-6.99039029508538e+000

1.71483754005805e+005,-2.43332195374022e+001,-7.08758597313898e+000

1.73877578004168e+005,-2.43339889515033e+001,-7.18612260250026e+000

1.76304818540256e+005,-2.43347795226926e+001,-7.28601826744173e+000

1.78765942091554e+005,-2.43355918203593e+001,-7.38729128027416e+000

1.81261421647326e+005,-2.43364264285816e+001,-7.48996018365712e+000

1.83791736799524e+005,-2.43372839464754e+001,-7.59404375291258e+000

1.86357373834951e+005,-2.43381649885491e+001,-7.69956099834518e+000

1.88958825828723e+005,-2.43390701850658e+001,-7.80653116756453e+000

1.91596592739027e+005,-2.43400001824125e+001,-7.91497374781209e+000

1.94271181503206e+005,-2.43409556434759e+001,-8.02490846829032e+000

1.96983106135185e+005,-2.43419372480263e+001,-8.13635530249450e+000

1.99732887824256e+005,-2.43429456931081e+001,-8.24933447054541e+000

2.02521055035243e+005,-2.43439816934382e+001,-8.36386644152393e+000

2.05348143610063e+005,-2.43450459818113e+001,-8.47997193580599e+000

2.08214696870707e+005,-2.43461393095137e+001,-8.59767192739649e+000

2.11121265723661e+005,-2.43472624467436e+001,-8.71698764626429e+000

2.14068408765776e+005,-2.43484161830405e+001,-8.83794058067389e+000

2.17056692391625e+005,-2.43496013277207e+001,-8.96055247951697e+000

2.20086690902357e+005,-2.43508187103230e+001,-9.08484535464024e+000

2.23158986616063e+005,-2.43520691810603e+001,-9.21084148317058e+000

2.26274169979693e+005,-2.43533536112804e+001,-9.33856340983708e+000

2.29432839682530e+005,-2.43546728939352e+001,-9.46803394928751e+000

2.32635602771247e+005,-2.43560279440580e+001,-9.59927618840095e+000

2.35883074766574e+005,-2.43574196992488e+001,-9.73231348859424e+000

2.39175879781588e+005,-2.43588491201686e+001,-9.86716948812281e+000

2.42514650641661e+005,-2.43603171910430e+001,-1.00038681043741e+001

2.45900029006080e+005,-2.43618249201731e+001,-1.01424335361538e+001

2.49332665491357e+005,-2.43633733404569e+001,-1.02828902659644e+001

2.52813219796278e+005,-2.43649635099188e+001,-1.04252630622745e+001

2.56342360828676e+005,-2.43665965122485e+001,-1.05695769817789e+001

2.59920766833993e+005,-2.43682734573497e+001,-1.07158573716490e+001

2.63549125525621e+005,-2.43699954818975e+001,-1.08641298717719e+001

2.67228134217075e+005,-2.43717637499066e+001,-1.10144204169785e+001

2.70958499956006e+005,-2.43735794533081e+001,-1.11667552392596e+001

2.74740939660078e+005,-2.43754438125373e+001,-1.13211608699685e+001

2.78576180254757e+005,-2.43773580771315e+001,-1.14776641420103e+001

2.82464958813007e+005,-2.43793235263378e+001,-1.16362921920169e+001

2.86408022696948e+005,-2.43813414697323e+001,-1.17970724625066e+001

2.90406129701488e+005,-2.43834132478495e+001,-1.19600327040264e+001

2.94460048199957e+005,-2.43855402328233e+001,-1.21252009772789e+001

2.98570557291775e+005,-2.43877238290393e+001,-1.22926056552294e+001

3.02738446952187e+005,-2.43899654737986e+001,-1.24622754251940e+001

3.06964518184081e+005,-2.43922666379937e+001,-1.26342392909079e+001

3.11249583171928e+005,-2.43946288267967e+001,-1.28085265745707e+001

3.15594465437872e+005,-2.43970535803599e+001,-1.29851669188688e+001

3.19999999999997e+005,-2.43995424745296e+001,-1.31641902889745e+001

3.24467033532806e+005,-2.44020971215729e+001,-1.33456269745159e+001

3.28996424529938e+005,-2.44047191709183e+001,-1.35295075915215e+001

3.33589043469155e+005,-2.44074103099105e+001,-1.37158630843331e+001

3.38245772979638e+005,-2.44101722645790e+001,-1.39047247274869e+001

3.42967508011610e+005,-2.44130068004225e+001,-1.40961241275602e+001

3.47755156008335e+005,-2.44159157232076e+001,-1.42900932249814e+001

3.52609637080511e+005,-2.44189008797845e+001,-1.44866642958002e+001

3.57531884183106e+005,-2.44219641589172e+001,-1.46858699534147e+001

3.62522843294651e+005,-2.44251074921323e+001,-1.48877431502533e+001

3.67583473599047e+005,-2.44283328545836e+001,-1.50923171794072e+001

3.72714747669902e+005,-2.44316422659351e+001,-1.52996256762088e+001

3.77917651657445e+005,-2.44350377912620e+001,-1.55097026197546e+001

3.83193185478053e+005,-2.44385215419705e+001,-1.57225823343645e+001

3.88542363006410e+005,-2.44420956767371e+001,-1.59382994909755e+001

3.93966212270369e+005,-2.44457624024673e+001,-1.61568891084635e+001

3.99465775648511e+005,-2.44495239752750e+001,-1.63783865548875e+001

4.05042110070485e+005,-2.44533827014828e+001,-1.66028275486500e+001

4.10696287220124e+005,-2.44573409386437e+001,-1.68302481595678e+001

4.16429393741414e+005,-2.44614010965842e+001,-1.70606848098460e+001

4.22242531447321e+005,-2.44655656384711e+001,-1.72941742749461e+001

4.28136817531551e+005,-2.44698370818998e+001,-1.75307536843435e+001

4.34113384783250e+005,-2.44742180000066e+001,-1.77704605221626e+001

4.40173381804713e+005,-2.44787110226055e+001,-1.80133326276823e+001

4.46317973232124e+005,-2.44833188373476e+001,-1.82594081957017e+001

4.52548339959385e+005,-2.44880441909062e+001,-1.85087257767565e+001

4.58865679365059e+005,-2.44928898901868e+001,-1.87613242771732e+001

4.65271205542494e+005,-2.44978588035610e+001,-1.90172429589535e+001

4.71766149533147e+005,-2.45029538621271e+001,-1.92765214394728e+001

4.78351759563174e+005,-2.45081780609947e+001,-1.95391996909832e+001

4.85029301283321e+005,-2.45135344605953e+001,-1.98053180399070e+001

4.91800058012158e+005,-2.45190261880181e+001,-2.00749171659065e+001

4.98665330982714e+005,-2.45246564383709e+001,-2.03480381007166e+001

5.05626439592555e+005,-2.45304284761652e+001,-2.06247222267245e+001

5.12684721657352e+005,-2.45363456367267e+001,-2.09050112752826e+001

5.19841533667984e+005,-2.45424113276285e+001,-2.11889473247367e+001

5.27098251051240e+005,-2.45486290301487e+001,-2.14765727981555e+001

5.34456268434150e+005,-2.45550023007493e+001,-2.17679304607412e+001

5.41916999912011e+005,-2.45615347725770e+001,-2.20630634169092e+001

