Freq.,VOut,OutRef

1.00000000000000e+004,-2.74826613004457e+001,-3.53523891308143e-001

1.01395947979003e+004,-2.74826634605539e+001,-3.58458832595325e-001

1.02811382665607e+004,-2.74826656813857e+001,-3.63462660194103e-001

1.04246576084112e+004,-2.74826679646477e+001,-3.68536335599399e-001

1.05701804056138e+004,-2.74826703120951e+001,-3.73680833720724e-001

1.07177346253629e+004,-2.74826727255318e+001,-3.78897143073684e-001

1.08673486252606e+004,-2.74826752068127e+001,-3.84186265964648e-001

1.10190511587661e+004,-2.74826777578449e+001,-3.89549218688414e-001

1.11728713807222e+004,-2.74826803805888e+001,-3.94987031718908e-001

1.13288388529580e+004,-2.74826830770601e+001,-4.00500749909854e-001

1.14869835499703e+004,-2.74826858493313e+001,-4.06091432691508e-001

1.16473358646846e+004,-2.74826886995326e+001,-4.11760154279415e-001

1.18099266142953e+004,-2.74826916298548e+001,-4.17508003873996e-001

1.19747870461893e+004,-2.74826946425496e+001,-4.23336085875850e-001

1.21419488439505e+004,-2.74826977399323e+001,-4.29245520092288e-001

1.23114441334492e+004,-2.74827009243832e+001,-4.35237441955471e-001

1.24833054890161e+004,-2.74827041983496e+001,-4.41313002737924e-001

1.26575659397028e+004,-2.74827075643473e+001,-4.47473369776058e-001

1.28342589756290e+004,-2.74827110249630e+001,-4.53719726690254e-001

1.30134185544193e+004,-2.74827145828561e+001,-4.60053273615243e-001

1.31950791077289e+004,-2.74827182407606e+001,-4.66475227429172e-001

1.33792755478611e+004,-2.74827220014874e+001,-4.72986821985454e-001

1.35660432744767e+004,-2.74827258679262e+001,-4.79589308350646e-001

1.37554181813974e+004,-2.74827298430483e+001,-4.86283955044254e-001

1.39474366635040e+004,-2.74827339299080e+001,-4.93072048282304e-001

1.41421356237309e+004,-2.74827381316458e+001,-4.99954892222222e-001

1.43395524801583e+004,-2.74827424514902e+001,-5.06933809213844e-001

1.45397251732031e+004,-2.74827468927604e+001,-5.14010140052942e-001

1.47426921729110e+004,-2.74827514588690e+001,-5.21185244238623e-001

1.49484924863494e+004,-2.74827561533244e+001,-5.28460500231912e-001

1.51571656651040e+004,-2.74827609797333e+001,-5.35837305722554e-001

1.53687518128801e+004,-2.74827659418044e+001,-5.43317077892649e-001

1.55832915932100e+004,-2.74827710433499e+001,-5.50901253693672e-001

1.58008262372675e+004,-2.74827762882893e+001,-5.58591290116941e-001

1.60213975517924e+004,-2.74827816806524e+001,-5.66388664474915e-001

1.62450479271247e+004,-2.74827872245820e+001,-5.74294874683515e-001

1.64718203453514e+004,-2.74827929243373e+001,-5.82311439549214e-001

1.67017583885674e+004,-2.74827987842970e+001,-5.90439899060001e-001

1.69349062472505e+004,-2.74828048089631e+001,-5.98681814678789e-001

1.71713087287550e+004,-2.74828110029637e+001,-6.07038769644328e-001

1.74110112659224e+004,-2.74828173710573e+001,-6.15512369272454e-001

1.76540599258131e+004,-2.74828239181356e+001,-6.24104241264538e-001

1.79005014185594e+004,-2.74828306492280e+001,-6.32816036018494e-001

1.81503831063432e+004,-2.74828375695049e+001,-6.41649426944726e-001

1.84037530124975e+004,-2.74828446842821e+001,-6.50606110785043e-001

1.86606598307361e+004,-2.74828519990247e+001,-6.59687807938672e-001

1.89211529345119e+004,-2.74828595193510e+001,-6.68896262791741e-001

1.91852823865052e+004,-2.74828672510374e+001,-6.78233244048610e-001

1.94530989482457e+004,-2.74828752000222e+001,-6.87700545071992e-001

1.97246540898671e+004,-2.74828833724105e+001,-6.97299984225281e-001

1.99999999999999e+004,-2.74828917744792e+001,-7.07033405218765e-001

2.02791895958005e+004,-2.74829004126808e+001,-7.16902677464886e-001

2.05622765331213e+004,-2.74829092936494e+001,-7.26909696432295e-001

2.08493152168224e+004,-2.74829184242051e+001,-7.37056384010432e-001

2.11403608112276e+004,-2.74829278113597e+001,-7.47344688875065e-001

2.14354692507258e+004,-2.74829374623218e+001,-7.57776586860638e-001

2.17346972505211e+004,-2.74829473845020e+001,-7.68354081338647e-001

2.20381023175322e+004,-2.74829575855194e+001,-7.79079203599088e-001

2.23457427614443e+004,-2.74829680732065e+001,-7.89954013238548e-001

2.26576777059159e+004,-2.74829788556161e+001,-8.00980598553121e-001

2.29739670999406e+004,-2.74829899410265e+001,-8.12161076937166e-001

2.32946717293690e+004,-2.74830013379489e+001,-8.23497595286051e-001

2.36198532285905e+004,-2.74830130551329e+001,-8.34992330408131e-001

2.39495740923785e+004,-2.74830251015736e+001,-8.46647489437454e-001

2.42838976879009e+004,-2.74830374865189e+001,-8.58465310255100e-001

2.46228882668982e+004,-2.74830502194758e+001,-8.70448061916510e-001

2.49666109780322e+004,-2.74830633102183e+001,-8.82598045083713e-001

2.53151318794055e+004,-2.74830767687943e+001,-8.94917592462336e-001

2.56685179512580e+004,-2.74830906055341e+001,-9.07409069247314e-001

2.60268371088386e+004,-2.74831048310571e+001,-9.20074873573475e-001

2.63901582154578e+004,-2.74831194562812e+001,-9.32917436970214e-001

2.67585510957221e+004,-2.74831344924302e+001,-9.45939224826214e-001

2.71320865489533e+004,-2.74831499510428e+001,-9.59142736857817e-001

2.75108363627948e+004,-2.74831658439811e+001,-9.72530507584337e-001

2.78948733270080e+004,-2.74831821834401e+001,-9.86105106809729e-001

2.82842712474618e+004,-2.74831989819568e+001,-9.99869140111906e-001

2.86791049603164e+004,-2.74832162524194e+001,-1.01382524933795e+000

2.90794503464061e+004,-2.74832340080776e+001,-1.02797611310512e+000

2.94853843458219e+004,-2.74832522625528e+001,-1.04232444730959e+000

2.98969849726987e+004,-2.74832710298477e+001,-1.05687300564375e+000

3.03143313302078e+004,-2.74832903243581e+001,-1.07162458011660e+000

3.07375036257601e+004,-2.74833101608829e+001,-1.08658200158491e+000

3.11665831864199e+004,-2.74833305546358e+001,-1.10174814029033e+000

3.16016524745350e+004,-2.74833515212570e+001,-1.11712590640209e+000

3.20427951035848e+004,-2.74833730768246e+001,-1.13271825056985e+000

3.24900958542493e+004,-2.74833952378675e+001,-1.14852816448210e+000

3.29436406907028e+004,-2.74834180213775e+001,-1.16455868143331e+000

3.34035167771346e+004,-2.74834414448225e+001,-1.18081287689711e+000

3.38698124945009e+004,-2.74834655261595e+001,-1.19729386910880e+000

3.43426174575100e+004,-2.74834902838485e+001,-1.21400481965553e+000

3.48220225318448e+004,-2.74835157368665e+001,-1.23094893407295e+000

3.53081198516260e+004,-2.74835419047217e+001,-1.24812946245177e+000

3.58010028371187e+004,-2.74835688074687e+001,-1.26554970005066e+000

3.63007662126863e+004,-2.74835964657233e+001,-1.28321298792011e+000

3.68075060249948e+004,-2.74836249006784e+001,-1.30112271353076e+000

3.73213196614721e+004,-2.74836541341201e+001,-1.31928231141306e+000

3.78423058690237e+004,-2.74836841884441e+001,-1.33769526380519e+000

3.83705647730104e+004,-2.74837150866728e+001,-1.35636510130812e+000

3.89061978964912e+004,-2.74837468524726e+001,-1.37529540355045e+000

3.94493081797342e+004,-2.74837795101719e+001,-1.39448979986322e+000

3.99999999999998e+004,-2.74838130847796e+001,-1.41395196996095e+000

4.05583791916010e+004,-2.74838476020040e+001,-1.43368564463357e+000

4.11245530662425e+004,-2.74838830882719e+001,-1.45369460644797e+000

4.16986304336447e+004,-2.74839195707494e+001,-1.47398269045652e+000

4.22807216224550e+004,-2.74839570773616e+001,-1.49455378491830e+000

4.28709385014515e+004,-2.74839956368140e+001,-1.51541183202665e+000

4.34693945010421e+004,-2.74840352786144e+001,-1.53656082864777e+000

4.40762046350642e+004,-2.74840760330948e+001,-1.55800482706992e+000

4.46914855228886e+004,-2.74841179314345e+001,-1.57974793576010e+000

4.53153554118317e+004,-2.74841610056838e+001,-1.60179432013260e+000

4.59479341998812e+004,-2.74842052887876e+001,-1.62414820332749e+000

4.65893434587380e+004,-2.74842508146106e+001,-1.64681386699778e+000

4.72397064571810e+004,-2.74842976179630e+001,-1.66979565210846e+000

4.78991481847569e+004,-2.74843457346261e+001,-1.69309795974495e+000

4.85677953758016e+004,-2.74843952013797e+001,-1.71672525193335e+000

4.92457765337964e+004,-2.74844460560295e+001,-1.74068205246874e+000

4.99332219560642e+004,-2.74844983374356e+001,-1.76497294775678e+000

5.06302637588109e+004,-2.74845520855415e+001,-1.78960258766545e+000

5.13370359025159e+004,-2.74846073414042e+001,-1.81457568638627e+000

5.20536742176771e+004,-2.74846641472251e+001,-1.83989702330925e+000

5.27803164309155e+004,-2.74847225463813e+001,-1.86557144390661e+000

5.35171021914442e+004,-2.74847825834581e+001,-1.89160386062876e+000

5.42641730979066e+004,-2.74848443042825e+001,-1.91799925381230e+000

5.50216727255895e+004,-2.74849077559576e+001,-1.94476267259822e+000

5.57897466540159e+004,-2.74849729868973e+001,-1.97189923586267e+000

5.65685424949235e+004,-2.74850400468628e+001,-1.99941413315974e+000

5.73582099206328e+004,-2.74851089869994e+001,-2.02731262567501e+000

5.81589006928121e+004,-2.74851798598749e+001,-2.05560004719182e+000

5.89707686916437e+004,-2.74852527195185e+001,-2.08428180507018e+000

5.97939699453972e+004,-2.74853276214612e+001,-2.11336338123628e+000

6.06286626604156e+004,-2.74854046227764e+001,-2.14285033318644e+000

6.14750072515201e+004,-2.74854837821234e+001,-2.17274829500092e+000

6.23331663728396e+004,-2.74855651597896e+001,-2.20306297837362e+000

6.32033049490698e+004,-2.74856488177362e+001,-2.23380017365062e+000

6.40855902071694e+004,-2.74857348196433e+001,-2.26496575088488e+000

6.49801917084985e+004,-2.74858232309574e+001,-2.29656566090201e+000

6.58872813814055e+004,-2.74859141189396e+001,-2.32860593637849e+000

6.68070335542691e+004,-2.74860075527150e+001,-2.36109269293590e+000

6.77396249890018e+004,-2.74861036033240e+001,-2.39403213024397e+000

6.86852349150199e+004,-2.74862023437742e+001,-2.42743053314114e+000

6.96440450636895e+004,-2.74863038490941e+001,-2.46129427276674e+000

7.06162397032520e+004,-2.74864081963884e+001,-2.49562980770474e+000

7.16020056742374e+004,-2.74865154648944e+001,-2.53044368514511e+000

7.26015324253724e+004,-2.74866257360398e+001,-2.56574254205628e+000

7.36150120499896e+004,-2.74867390935025e+001,-2.60153310637150e+000

7.46426393229441e+004,-2.74868556232713e+001,-2.63782219819011e+000

7.56846117380472e+004,-2.74869754137093e+001,-2.67461673099162e+000

7.67411295460207e+004,-2.74870985556174e+001,-2.71192371286541e+000

7.78123957929823e+004,-2.74872251423007e+001,-2.74975024775251e+000

7.88986163594682e+004,-2.74873552696363e+001,-2.78810353670408e+000

7.99999999999995e+004,-2.74874890361424e+001,-2.82699087915253e+000

8.11167583832018e+004,-2.74876265430500e+001,-2.86641967419669e+000

8.22491061324848e+004,-2.74877678943757e+001,-2.90639742190353e+000

8.33972608672892e+004,-2.74879131969967e+001,-2.94693172462270e+000

8.45614432449099e+004,-2.74880625607279e+001,-2.98803028831565e+000

8.57418770029029e+004,-2.74882160984007e+001,-3.02970092390074e+000

8.69387890020841e+004,-2.74883739259438e+001,-3.07195154861205e+000

8.81524092701283e+004,-2.74885361624662e+001,-3.11479018737348e+000

8.93829710457770e+004,-2.74887029303425e+001,-3.15822497418727e+000

9.06307108236633e+004,-2.74888743552999e+001,-3.20226415353753e+000

9.18958683997622e+004,-2.74890505665077e+001,-3.24691608180998e+000

9.31786869174758e+004,-2.74892316966690e+001,-3.29218922872441e+000

9.44794129143618e+004,-2.74894178821147e+001,-3.33809217878422e+000

9.57982963695136e+004,-2.74896092629001e+001,-3.38463363273963e+000

9.71355907516031e+004,-2.74898059829032e+001,-3.43182240906715e+000

9.84915530675926e+004,-2.74900081899265e+001,-3.47966744546332e+000

9.98664439121282e+004,-2.74902160358002e+001,-3.52817780035366e+000

1.01260527517622e+005,-2.74904296764890e+001,-3.57736265441778e+000

1.02674071805032e+005,-2.74906492722007e+001,-3.62723131212764e+000

1.04107348435354e+005,-2.74908749874979e+001,-3.67779320330323e+000

1.05560632861831e+005,-2.74911069914125e+001,-3.72905788468176e+000

1.07034204382888e+005,-2.74913454575629e+001,-3.78103504150228e+000

1.08528346195813e+005,-2.74915905642736e+001,-3.83373448910688e+000

1.10043345451179e+005,-2.74918424946984e+001,-3.88716617455406e+000

1.11579493308032e+005,-2.74921014369462e+001,-3.94134017825009e+000

1.13137084989847e+005,-2.74923675842100e+001,-3.99626671559341e+000

1.14716419841265e+005,-2.74926411348986e+001,-4.05195613863527e+000

1.16317801385624e+005,-2.74929222927720e+001,-4.10841893775418e+000

1.17941537383287e+005,-2.74932112670794e+001,-4.16566574334604e+000

1.19587939890794e+005,-2.74935082727013e+001,-4.22370732752846e+000

1.21257325320831e+005,-2.74938135302935e+001,-4.28255460586035e+000

1.22950014503040e+005,-2.74941272664366e+001,-4.34221863907574e+000

1.24666332745679e+005,-2.74944497137864e+001,-4.40271063483180e+000

1.26406609898139e+005,-2.74947811112304e+001,-4.46404194947243e+000

1.28171180414339e+005,-2.74951217040458e+001,-4.52622408980459e+000

1.29960383416997e+005,-2.74954717440623e+001,-4.58926871489044e+000

1.31774562762811e+005,-2.74958314898280e+001,-4.65318763785230e+000

1.33614067108538e+005,-2.74962012067799e+001,-4.71799282769213e+000

1.35479249978003e+005,-2.74965811674170e+001,-4.78369641112493e+000

1.37370469830040e+005,-2.74969716514785e+001,-4.85031067442574e+000

1.39288090127379e+005,-2.74973729461249e+001,-4.91784806528977e+000

1.41232479406504e+005,-2.74977853461244e+001,-4.98632119470652e+000

1.43204011348474e+005,-2.74982091540417e+001,-5.05574283884635e+000

1.45203064850745e+005,-2.74986446804328e+001,-5.12612594096139e+000

1.47230024099979e+005,-2.74990922440424e+001,-5.19748361329774e+000

1.49285278645888e+005,-2.74995521720068e+001,-5.26982913902122e+000

1.51369223476094e+005,-2.75000248000604e+001,-5.34317597415565e+000

1.53482259092041e+005,-2.75005104727467e+001,-5.41753774953331e+000

1.55624791585964e+005,-2.75010095436345e+001,-5.49292827275695e+000

1.57797232718936e+005,-2.75015223755374e+001,-5.56936153017497e+000

1.59999999999999e+005,-2.75020493407391e+001,-5.64685168886669e+000

1.62233516766403e+005,-2.75025908212226e+001,-5.72541309864010e+000

1.64498212264969e+005,-2.75031472089045e+001,-5.80506029404138e+000

1.66794521734578e+005,-2.75037189058739e+001,-5.88580799637334e+000

1.69122886489819e+005,-2.75043063246364e+001,-5.96767111572709e+000

1.71483754005805e+005,-2.75049098883627e+001,-6.05066475302328e+000

1.73877578004168e+005,-2.75055300311426e+001,-6.13480420206312e+000

1.76304818540256e+005,-2.75061671982436e+001,-6.22010495159043e+000

1.78765942091554e+005,-2.75068218463749e+001,-6.30658268736325e+000

1.81261421647326e+005,-2.75074944439569e+001,-6.39425329423526e+000

1.83791736799524e+005,-2.75081854713950e+001,-6.48313285824670e+000

1.86357373834951e+005,-2.75088954213597e+001,-6.57323766872417e+000

1.88958825828723e+005,-2.75096247990715e+001,-6.66458422038988e+000

1.91596592739027e+005,-2.75103741225916e+001,-6.75718921548023e+000

1.94271181503206e+005,-2.75111439231177e+001,-6.85106956587180e+000

1.96983106135185e+005,-2.75119347452857e+001,-6.94624239521665e+000

1.99732887824256e+005,-2.75127471474770e+001,-7.04272504108585e+000

2.02521055035243e+005,-2.75135817021316e+001,-7.14053505712093e+000

2.05348143610063e+005,-2.75144389960664e+001,-7.23969021519347e+000

2.08214696870707e+005,-2.75153196308002e+001,-7.34020850757176e+000

2.11121265723661e+005,-2.75162242228842e+001,-7.44210814909639e+000

2.14068408765776e+005,-2.75171534042385e+001,-7.54540757936185e+000

2.17056692391625e+005,-2.75181078224944e+001,-7.65012546490675e+000

2.20086690902357e+005,-2.75190881413440e+001,-7.75628070141035e+000

2.23158986616063e+005,-2.75200950408942e+001,-7.86389241589736e+000

2.26274169979693e+005,-2.75211292180293e+001,-7.97297996894836e+000

2.29432839682530e+005,-2.75221913867776e+001,-8.08356295691877e+000

2.32635602771247e+005,-2.75232822786867e+001,-8.19566121416372e+000

2.35883074766574e+005,-2.75244026432041e+001,-8.30929481527061e+000

2.39175879781588e+005,-2.75255532480651e+001,-8.42448407729826e+000

2.42514650641661e+005,-2.75267348796872e+001,-8.54124956202305e+000

2.45900029006080e+005,-2.75279483435719e+001,-8.65961207819169e+000

2.49332665491357e+005,-2.75291944647135e+001,-8.77959268378231e+000

2.52813219796278e+005,-2.75304740880146e+001,-8.90121268827092e+000

2.56342360828676e+005,-2.75317880787100e+001,-9.02449365490584e+000

2.59920766833993e+005,-2.75331373227974e+001,-9.14945740298970e+000

2.63549125525621e+005,-2.75345227274758e+001,-9.27612601016750e+000

2.67228134217075e+005,-2.75359452215923e+001,-9.40452181472301e+000

2.70958499956006e+005,-2.75374057560969e+001,-9.53466741788263e+000

2.74740939660078e+005,-2.75389053045048e+001,-9.66658568612539e+000

2.78576180254757e+005,-2.75404448633684e+001,-9.80029975350267e+000

2.82464958813007e+005,-2.75420254527571e+001,-9.93583302396340e+000

2.86408022696948e+005,-2.75436481167470e+001,-1.00732091736881e+001

2.90406129701488e+005,-2.75453139239183e+001,-1.02124521534308e+001

2.94460048199957e+005,-2.75470239678643e+001,-1.03535861908677e+001

2.98570557291775e+005,-2.75487793677086e+001,-1.04966357929542e+001

3.02738446952187e+005,-2.75505812686332e+001,-1.06416257482893e+001

3.06964518184081e+005,-2.75524308424170e+001,-1.07885811294876e+001

3.11249583171928e+005,-2.75543292879849e+001,-1.09375272955582e+001

3.15594465437872e+005,-2.75562778319685e+001,-1.10884898942906e+001

3.19999999999997e+005,-2.75582777292782e+001,-1.12414948646477e+001

3.24467033532806e+005,-2.75603302636875e+001,-1.13965684391642e+001

3.28996424529938e+005,-2.75624367484298e+001,-1.15537371463517e+001

3.33589043469155e+005,-2.75645985268080e+001,-1.17130278131074e+001

3.38245772979638e+005,-2.75668169728180e+001,-1.18744675671282e+001

3.42967508011610e+005,-2.75690934917860e+001,-1.20380838393264e+001

3.47755156008335e+005,-2.75714295210200e+001,-1.22039043662493e+001

3.52609637080511e+005,-2.75738265304774e+001,-1.23719571924979e+001

3.57531884183106e+005,-2.75762860234472e+001,-1.25422706731457e+001

3.62522843294651e+005,-2.75788095372496e+001,-1.27148734761536e+001

3.67583473599047e+005,-2.75813986439520e+001,-1.28897945847820e+001

3.72714747669902e+005,-2.75840549511027e+001,-1.30670632999943e+001

3.77917651657445e+005,-2.75867801024834e+001,-1.32467092428516e+001

3.83193185478053e+005,-2.75895757788804e+001,-1.34287623568951e+001

3.88542363006410e+005,-2.75924436988760e+001,-1.36132529105127e+001

3.93966212270369e+005,-2.75953856196596e+001,-1.38002114992862e+001

3.99465775648511e+005,-2.75984033378618e+001,-1.39896690483160e+001

4.05042110070485e+005,-2.76014986904086e+001,-1.41816568145174e+001

4.10696287220124e+005,-2.76046735554003e+001,-1.43762063888864e+001

4.16429393741414e+005,-2.76079298530127e+001,-1.45733496987254e+001

4.22242531447321e+005,-2.76112695464241e+001,-1.47731190098285e+001

4.28136817531551e+005,-2.76146946427661e+001,-1.49755469286157e+001

4.34113384783250e+005,-2.76182071941021e+001,-1.51806664042115e+001

4.40173381804713e+005,-2.76218092984311e+001,-1.53885107304612e+001

4.46317973232124e+005,-2.76255031007206e+001,-1.55991135478747e+001

4.52548339959385e+005,-2.76292907939666e+001,-1.58125088454919e+001

4.58865679365059e+005,-2.76331746202836e+001,-1.60287309626604e+001

4.65271205542494e+005,-2.76371568720239e+001,-1.62478145907138e+001

4.71766149533147e+005,-2.76412398929276e+001,-1.64697947745440e+001

4.78351759563174e+005,-2.76454260793036e+001,-1.66947069140537e+001

4.85029301283321e+005,-2.76497178812420e+001,-1.69225867654793e+001

4.91800058012158e+005,-2.76541178038587e+001,-1.71534704425717e+001

4.98665330982714e+005,-2.76586284085732e+001,-1.73873944176239e+001

5.05626439592555e+005,-2.76632523144179e+001,-1.76243955223286e+001

5.12684721657352e+005,-2.76679921993818e+001,-1.78645109484559e+001

5.19841533667984e+005,-2.76728508017870e+001,-1.81077782483351e+001

5.27098251051240e+005,-2.76778309216988e+001,-1.83542353351242e+001

5.34456268434150e+005,-2.76829354223691e+001,-1.86039204828541e+001

5.41916999912011e+005,-2.76881672317132e+001,-1.88568723262298e+001

