Freq.,VOut,OutRef

1.00000000000000e+004,-2.02739766081485e+001,-1.62473871395795e-001

1.01395947979003e+004,-2.02739771779326e+001,-1.64741894514574e-001

1.02811382665607e+004,-2.02739777637327e+001,-1.67041576884699e-001

1.04246576084112e+004,-2.02739783659989e+001,-1.69373360401518e-001

1.05701804056138e+004,-2.02739789851939e+001,-1.71737693130204e-001

1.07177346253629e+004,-2.02739796217934e+001,-1.74135029386089e-001

1.08673486252606e+004,-2.02739802762866e+001,-1.76565829824438e-001

1.10190511587661e+004,-2.02739809491762e+001,-1.79030561530566e-001

1.11728713807222e+004,-2.02739816409794e+001,-1.81529698104266e-001

1.13288388529580e+004,-2.02739823522276e+001,-1.84063719756444e-001

1.14869835499703e+004,-2.02739830834674e+001,-1.86633113398113e-001

1.16473358646846e+004,-2.02739838352602e+001,-1.89238372735137e-001

1.18099266142953e+004,-2.02739846081838e+001,-1.91879998360652e-001

1.19747870461893e+004,-2.02739854028321e+001,-1.94558497853870e-001

1.21419488439505e+004,-2.02739862198153e+001,-1.97274385876760e-001

1.23114441334492e+004,-2.02739870597611e+001,-2.00028184271327e-001

1.24833054890161e+004,-2.02739879233148e+001,-2.02820422161801e-001

1.26575659397028e+004,-2.02739888111398e+001,-2.05651636053473e-001

1.28342589756290e+004,-2.02739897239180e+001,-2.08522369939014e-001

1.30134185544193e+004,-2.02739906623503e+001,-2.11433175400898e-001

1.31950791077289e+004,-2.02739916271579e+001,-2.14384611715267e-001

1.33792755478611e+004,-2.02739926190816e+001,-2.17377245963632e-001

1.35660432744767e+004,-2.02739936388835e+001,-2.20411653137597e-001

1.37554181813974e+004,-2.02739946873467e+001,-2.23488416250565e-001

1.39474366635040e+004,-2.02739957652765e+001,-2.26608126451314e-001

1.41421356237309e+004,-2.02739968735007e+001,-2.29771383135074e-001

1.43395524801583e+004,-2.02739980128706e+001,-2.32978794057984e-001

1.45397251732031e+004,-2.02739991842609e+001,-2.36230975455462e-001

1.47426921729110e+004,-2.02740003885714e+001,-2.39528552159453e-001

1.49484924863494e+004,-2.02740016267270e+001,-2.42872157717570e-001

1.51571656651040e+004,-2.02740028996782e+001,-2.46262434517488e-001

1.53687518128801e+004,-2.02740042084026e+001,-2.49700033905446e-001

1.55832915932100e+004,-2.02740055539052e+001,-2.53185616313104e-001

1.58008262372675e+004,-2.02740069372190e+001,-2.56719851386946e-001

1.60213975517924e+004,-2.02740083594060e+001,-2.60303418111949e-001

1.62450479271247e+004,-2.02740098215584e+001,-2.63937004943638e-001

1.64718203453514e+004,-2.02740113247986e+001,-2.67621309941283e-001

1.67017583885674e+004,-2.02740128702806e+001,-2.71357040899729e-001

1.69349062472505e+004,-2.02740144591909e+001,-2.75144915485435e-001

1.71713087287550e+004,-2.02740160927493e+001,-2.78985661374273e-001

1.74110112659224e+004,-2.02740177722096e+001,-2.82880016391025e-001

1.76540599258131e+004,-2.02740194988612e+001,-2.86828728649091e-001

1.79005014185594e+004,-2.02740212740291e+001,-2.90832556697043e-001

1.81503831063432e+004,-2.02740230990760e+001,-2.94892269659890e-001

1.84037530124975e+004,-2.02740249754024e+001,-2.99008647388886e-001

1.86606598307361e+004,-2.02740269044485e+001,-3.03182480609491e-001

1.89211529345119e+004,-2.02740288876945e+001,-3.07414571073400e-001

1.91852823865052e+004,-2.02740309266625e+001,-3.11705731712608e-001

1.94530989482457e+004,-2.02740330229169e+001,-3.16056786792829e-001

1.97246540898671e+004,-2.02740351780661e+001,-3.20468572073754e-001

1.99999999999999e+004,-2.02740373937639e+001,-3.24941934965820e-001

2.02791895958005e+004,-2.02740396717101e+001,-3.29477734695761e-001

2.05622765331213e+004,-2.02740420136521e+001,-3.34076842468513e-001

2.08493152168224e+004,-2.02740444213866e+001,-3.38740141634070e-001

2.11403608112276e+004,-2.02740468967604e+001,-3.43468527857995e-001

2.14354692507258e+004,-2.02740494416725e+001,-3.48262909288883e-001

2.17346972505211e+004,-2.02740520580746e+001,-3.53124206736303e-001

2.20381023175322e+004,-2.02740547479732e+001,-3.58053353844922e-001

2.23457427614443e+004,-2.02740575134312e+001,-3.63051297272543e-001

2.26576777059159e+004,-2.02740603565693e+001,-3.68118996869610e-001

2.29739670999406e+004,-2.02740632795675e+001,-3.73257425865351e-001

2.32946717293690e+004,-2.02740662846667e+001,-3.78467571053635e-001

2.36198532285905e+004,-2.02740693741712e+001,-3.83750432976576e-001

2.39495740923785e+004,-2.02740725504490e+001,-3.89107026122047e-001

2.42838976879009e+004,-2.02740758159351e+001,-3.94538379112364e-001

2.46228882668982e+004,-2.02740791731323e+001,-4.00045534903590e-001

2.49666109780322e+004,-2.02740826246135e+001,-4.05629550982706e-001

2.53151318794055e+004,-2.02740861730240e+001,-4.11291499568852e-001

2.56685179512580e+004,-2.02740898210825e+001,-4.17032467821222e-001

2.60268371088386e+004,-2.02740935715844e+001,-4.22853558041297e-001

2.63901582154578e+004,-2.02740974274030e+001,-4.28755887887382e-001

2.67585510957221e+004,-2.02741013914922e+001,-4.34740590584160e-001

2.71320865489533e+004,-2.02741054668883e+001,-4.40808815141652e-001

2.75108363627948e+004,-2.02741096567125e+001,-4.46961726571908e-001

2.78948733270080e+004,-2.02741139641738e+001,-4.53200506110861e-001

2.82842712474618e+004,-2.02741183925705e+001,-4.59526351444001e-001

2.86791049603164e+004,-2.02741229452931e+001,-4.65940476935324e-001

2.90794503464061e+004,-2.02741276258271e+001,-4.72444113855927e-001

2.94853843458219e+004,-2.02741324377555e+001,-4.79038510618926e-001

2.98969849726987e+004,-2.02741373847610e+001,-4.85724933019639e-001

3.03143313302078e+004,-2.02741424706297e+001,-4.92504664471657e-001

3.07375036257601e+004,-2.02741476992533e+001,-4.99379006253306e-001

3.11665831864199e+004,-2.02741530746321e+001,-5.06349277756150e-001

3.16016524745350e+004,-2.02741586008782e+001,-5.13416816731759e-001

3.20427951035848e+004,-2.02741642822186e+001,-5.20582979550141e-001

3.24900958542493e+004,-2.02741701229983e+001,-5.27849141453134e-001

3.29436406907028e+004,-2.02741761276835e+001,-5.35216696817753e-001

3.34035167771346e+004,-2.02741823008651e+001,-5.42687059420478e-001

3.38698124945009e+004,-2.02741886472620e+001,-5.50261662704049e-001

3.43426174575100e+004,-2.02741951717248e+001,-5.57941960050703e-001

3.48220225318448e+004,-2.02742018792397e+001,-5.65729425055580e-001

3.53081198516260e+004,-2.02742087749312e+001,-5.73625551808743e-001

3.58010028371187e+004,-2.02742158640673e+001,-5.81631855174088e-001

3.63007662126863e+004,-2.02742231520627e+001,-5.89749871079092e-001

3.68075060249948e+004,-2.02742306444827e+001,-5.97981156804776e-001

3.73213196614721e+004,-2.02742383470480e+001,-6.06327291277965e-001

3.78423058690237e+004,-2.02742462656383e+001,-6.14789875373184e-001

3.83705647730104e+004,-2.02742544062972e+001,-6.23370532211499e-001

3.89061978964912e+004,-2.02742627752364e+001,-6.32070907469768e-001

3.94493081797342e+004,-2.02742713788407e+001,-6.40892669688517e-001

3.99999999999998e+004,-2.02742802236720e+001,-6.49837510589464e-001

4.05583791916010e+004,-2.02742893164754e+001,-6.58907145391389e-001

4.11245530662425e+004,-2.02742986641828e+001,-6.68103313137016e-001

4.16986304336447e+004,-2.02743082739194e+001,-6.77427777015643e-001

4.22807216224550e+004,-2.02743181530079e+001,-6.86882324699622e-001

4.28709385014515e+004,-2.02743283089746e+001,-6.96468768677473e-001

4.34693945010421e+004,-2.02743387495548e+001,-7.06188946595806e-001

4.40762046350642e+004,-2.02743494826984e+001,-7.16044721604976e-001

4.46914855228886e+004,-2.02743605165759e+001,-7.26037982707287e-001

4.53153554118317e+004,-2.02743718595845e+001,-7.36170645112347e-001

4.59479341998812e+004,-2.02743835203541e+001,-7.46444650597357e-001

4.65893434587380e+004,-2.02743955077538e+001,-7.56861967868316e-001

4.72397064571810e+004,-2.02744078308986e+001,-7.67424592929981e-001

4.78991481847569e+004,-2.02744204991555e+001,-7.78134549460723e-001

4.85677953758016e+004,-2.02744335221511e+001,-7.88993889187822e-001

4.92457765337964e+004,-2.02744469097784e+001,-8.00004692273482e-001

4.99332219560642e+004,-2.02744606722037e+001,-8.11169067701945e-001

5.06302637588109e+004,-2.02744748198746e+001,-8.22489153672330e-001

5.13370359025159e+004,-2.02744893635271e+001,-8.33967117998505e-001

5.20536742176771e+004,-2.02745043141941e+001,-8.45605158511945e-001

5.27803164309155e+004,-2.02745196832125e+001,-8.57405503470914e-001

5.35171021914442e+004,-2.02745354822323e+001,-8.69370411974524e-001

5.42641730979066e+004,-2.02745517232249e+001,-8.81502174381653e-001

5.50216727255895e+004,-2.02745684184911e+001,-8.93803112738274e-001

5.57897466540159e+004,-2.02745855806709e+001,-9.06275581205182e-001

5.65685424949235e+004,-2.02746032227523e+001,-9.18921966494636e-001

5.73582099206328e+004,-2.02746213580801e+001,-9.31744688314288e-001

5.81589006928121e+004,-2.02746400003666e+001,-9.44746199811158e-001

5.89707686916437e+004,-2.02746591637006e+001,-9.57928988025805e-001

5.97939699453972e+004,-2.02746788625577e+001,-9.71295574352522e-001

6.06286626604156e+004,-2.02746991118108e+001,-9.84848515001131e-001

6.14750072515201e+004,-2.02747199267409e+001,-9.98590401470169e-001

6.23331663728396e+004,-2.02747413230472e+001,-1.01252386102073e+000

6.32033049490698e+004,-2.02747633168593e+001,-1.02665155716086e+000

6.40855902071694e+004,-2.02747859247480e+001,-1.04097619013249e+000

6.49801917084985e+004,-2.02748091637373e+001,-1.05550049740640e+000

6.58872813814055e+004,-2.02748330513158e+001,-1.07022725418418e+000

6.68070335542691e+004,-2.02748576054503e+001,-1.08515927390264e+000

6.77396249890018e+004,-2.02748828445972e+001,-1.10029940874933e+000

6.86852349150199e+004,-2.02749087877160e+001,-1.11565055018144e+000

6.96440450636895e+004,-2.02749354542826e+001,-1.13121562945046e+000

7.06162397032520e+004,-2.02749628643024e+001,-1.14699761813750e+000

7.16020056742374e+004,-2.02749910383250e+001,-1.16299952868892e+000

7.26015324253724e+004,-2.02750199974578e+001,-1.17922441496455e+000

7.36150120499896e+004,-2.02750497633808e+001,-1.19567537278871e+000

7.46426393229441e+004,-2.02750803583617e+001,-1.21235554050961e+000

7.56846117380472e+004,-2.02751118052709e+001,-1.22926809956453e+000

7.67411295460207e+004,-2.02751441275974e+001,-1.24641627505226e+000

7.78123957929823e+004,-2.02751773494648e+001,-1.26380333631328e+000

7.88986163594682e+004,-2.02752114956477e+001,-1.28143259751513e+000

7.99999999999995e+004,-2.02752465915884e+001,-1.29930741824653e+000

8.11167583832018e+004,-2.02752826634143e+001,-1.31743120411700e+000

8.22491061324848e+004,-2.02753197379552e+001,-1.33580740736398e+000

8.33972608672892e+004,-2.02753578427617e+001,-1.35443952746883e+000

8.45614432449099e+004,-2.02753970061230e+001,-1.37333111177712e+000

8.57418770029029e+004,-2.02754372570866e+001,-1.39248575612754e+000

8.69387890020841e+004,-2.02754786254765e+001,-1.41190710549006e+000

8.81524092701283e+004,-2.02755211419138e+001,-1.43159885460747e+000

8.93829710457770e+004,-2.02755648378363e+001,-1.45156474864670e+000

9.06307108236633e+004,-2.02756097455191e+001,-1.47180858385917e+000

9.18958683997622e+004,-2.02756558980957e+001,-1.49233420824445e+000

9.31786869174758e+004,-2.02757033295796e+001,-1.51314552222536e+000

9.44794129143618e+004,-2.02757520748859e+001,-1.53424647932856e+000

9.57982963695136e+004,-2.02758021698541e+001,-1.55564108687311e+000

9.71355907516031e+004,-2.02758536512703e+001,-1.57733340666829e+000

9.84915530675926e+004,-2.02759065568915e+001,-1.59932755571581e+000

9.98664439121282e+004,-2.02759609254686e+001,-1.62162770692429e+000

1.01260527517622e+005,-2.02760167967709e+001,-1.64423808982693e+000

1.02674071805032e+005,-2.02760742116113e+001,-1.66716299131119e+000

1.04107348435354e+005,-2.02761332118710e+001,-1.69040675635283e+000

1.05560632861831e+005,-2.02761938405261e+001,-1.71397378876137e+000

1.07034204382888e+005,-2.02762561416728e+001,-1.73786855193046e+000

1.08528346195813e+005,-2.02763201605554e+001,-1.76209556959835e+000

1.10043345451179e+005,-2.02763859435928e+001,-1.78665942661532e+000

1.11579493308032e+005,-2.02764535384067e+001,-1.81156476972097e+000

1.13137084989847e+005,-2.02765229938497e+001,-1.83681630832676e+000

1.14716419841265e+005,-2.02765943600348e+001,-1.86241881531016e+000

1.16317801385624e+005,-2.02766676883638e+001,-1.88837712781409e+000

1.17941537383287e+005,-2.02767430315581e+001,-1.91469614805764e+000

1.19587939890794e+005,-2.02768204436887e+001,-1.94138084415202e+000

1.21257325320831e+005,-2.02768999802072e+001,-1.96843625092718e+000

1.22950014503040e+005,-2.02769816979775e+001,-1.99586747076660e+000

1.24666332745679e+005,-2.02770656553073e+001,-2.02367967444987e+000

1.26406609898139e+005,-2.02771519119811e+001,-2.05187810200450e+000

1.28171180414339e+005,-2.02772405292930e+001,-2.08046806356534e+000

1.29960383416997e+005,-2.02773315700801e+001,-2.10945494024380e+000

1.31774562762811e+005,-2.02774250987566e+001,-2.13884418500627e+000

1.33614067108538e+005,-2.02775211813486e+001,-2.16864132355904e+000

1.35479249978003e+005,-2.02776198855285e+001,-2.19885195524416e+000

1.37370469830040e+005,-2.02777212806510e+001,-2.22948175394369e+000

1.39288090127379e+005,-2.02778254377888e+001,-2.26053646899204e+000

1.41232479406504e+005,-2.02779324297690e+001,-2.29202192609878e+000

1.43204011348474e+005,-2.02780423312102e+001,-2.32394402827960e+000

1.45203064850745e+005,-2.02781552185596e+001,-2.35630875679704e+000

1.47230024099979e+005,-2.02782711701306e+001,-2.38912217210893e+000

1.49285278645888e+005,-2.02783902661413e+001,-2.42239041482899e+000

1.51369223476094e+005,-2.02785125887529e+001,-2.45611970669430e+000

1.53482259092041e+005,-2.02786382221086e+001,-2.49031635154407e+000

1.55624791585964e+005,-2.02787672523728e+001,-2.52498673630646e+000

1.57797232718936e+005,-2.02788997677709e+001,-2.56013733199757e+000

1.59999999999999e+005,-2.02790358586294e+001,-2.59577469472709e+000

1.62233516766403e+005,-2.02791756174159e+001,-2.63190546671756e+000

1.64498212264969e+005,-2.02793191387799e+001,-2.66853637733078e+000

1.66794521734578e+005,-2.02794665195933e+001,-2.70567424410717e+000

1.69122886489819e+005,-2.02796178589922e+001,-2.74332597381270e+000

1.71483754005805e+005,-2.02797732584172e+001,-2.78149856350073e+000

1.73877578004168e+005,-2.02799328216558e+001,-2.82019910157988e+000

1.76304818540256e+005,-2.02800966548833e+001,-2.85943476889682e+000

1.78765942091554e+005,-2.02802648667052e+001,-2.89921283982909e+000

1.81261421647326e+005,-2.02804375681984e+001,-2.93954068338896e+000

1.83791736799524e+005,-2.02806148729537e+001,-2.98042576434082e+000

1.86357373834951e+005,-2.02807968971173e+001,-3.02187564432853e+000

1.88958825828723e+005,-2.02809837594333e+001,-3.06389798301697e+000

1.91596592739027e+005,-2.02811755812850e+001,-3.10650053924635e+000

1.94271181503206e+005,-2.02813724867371e+001,-3.14969117219871e+000

1.96983106135185e+005,-2.02815746025776e+001,-3.19347784257812e+000

1.99732887824256e+005,-2.02817820583589e+001,-3.23786861380671e+000

2.02521055035243e+005,-2.02819949864399e+001,-3.28287165323186e+000

2.05348143610063e+005,-2.02822135220264e+001,-3.32849523335118e+000

2.08214696870707e+005,-2.02824378032129e+001,-3.37474773305119e+000

2.11121265723661e+005,-2.02826679710226e+001,-3.42163763886264e+000

2.14068408765776e+005,-2.02829041694482e+001,-3.46917354623182e+000

2.17056692391625e+005,-2.02831465454918e+001,-3.51736416080903e+000

2.20086690902357e+005,-2.02833952492041e+001,-3.56621829975463e+000

2.23158986616063e+005,-2.02836504337241e+001,-3.61574489306444e+000

2.26274169979693e+005,-2.02839122553175e+001,-3.66595298491179e+000

2.29432839682530e+005,-2.02841808734149e+001,-3.71685173501241e+000

2.32635602771247e+005,-2.02844564506496e+001,-3.76845042000728e+000

2.35883074766574e+005,-2.02847391528949e+001,-3.82075843486820e+000

2.39175879781588e+005,-2.02850291493000e+001,-3.87378529432591e+000

2.42514650641661e+005,-2.02853266123269e+001,-3.92754063432016e+000

2.45900029006080e+005,-2.02856317177849e+001,-3.98203421347554e+000

2.49332665491357e+005,-2.02859446448661e+001,-4.03727591460095e+000

2.52813219796278e+005,-2.02862655761790e+001,-4.09327574621659e+000

2.56342360828676e+005,-2.02865946977822e+001,-4.15004384410741e+000

2.59920766833993e+005,-2.02869321992173e+001,-4.20759047290572e+000

2.63549125525621e+005,-2.02872782735412e+001,-4.26592602770353e+000

2.67228134217075e+005,-2.02876331173576e+001,-4.32506103569492e+000

2.70958499956006e+005,-2.02879969308485e+001,-4.38500615785210e+000

2.74740939660078e+005,-2.02883699178043e+001,-4.44577219063414e+000

2.78576180254757e+005,-2.02887522856544e+001,-4.50737006773126e+000

2.82464958813007e+005,-2.02891442454965e+001,-4.56981086184535e+000

2.86408022696948e+005,-2.02895460121262e+001,-4.63310578650825e+000

2.90406129701488e+005,-2.02899578040658e+001,-4.69726619794082e+000

2.94460048199957e+005,-2.02903798435933e+001,-4.76230359695061e+000

2.98570557291775e+005,-2.02908123567711e+001,-4.82822963087516e+000

3.02738446952187e+005,-2.02912555734748e+001,-4.89505609556731e+000

3.06964518184081e+005,-2.02917097274219e+001,-4.96279493742768e+000

3.11249583171928e+005,-2.02921750562014e+001,-5.03145825548516e+000

3.15594465437872e+005,-2.02926518013031e+001,-5.10105830352505e+000

3.19999999999997e+005,-2.02931402081483e+001,-5.17160749227068e+000

3.24467033532806e+005,-2.02936405261205e+001,-5.24311839161632e+000

3.28996424529938e+005,-2.02941530085980e+001,-5.31560373291526e+000

3.33589043469155e+005,-2.02946779129875e+001,-5.38907641132475e+000

3.38245772979638e+005,-2.02952155007587e+001,-5.46354948820790e+000

3.42967508011610e+005,-2.02957660374817e+001,-5.53903619359678e+000

3.47755156008335e+005,-2.02963297928658e+001,-5.61554992871667e+000

3.52609637080511e+005,-2.02969070408009e+001,-5.69310426857282e+000

3.57531884183106e+005,-2.02974980594022e+001,-5.77171296460321e+000

3.62522843294651e+005,-2.02981031310570e+001,-5.85138994739725e+000

3.67583473599047e+005,-2.02987225424764e+001,-5.93214932948204e+000

3.72714747669902e+005,-2.02993565847498e+001,-6.01400540817907e+000

3.77917651657445e+005,-2.03000055534042e+001,-6.09697266853027e+000

3.83193185478053e+005,-2.03006697484688e+001,-6.18106578629750e+000

3.88542363006410e+005,-2.03013494745444e+001,-6.26629963103385e+000

3.93966212270369e+005,-2.03020450408782e+001,-6.35268926923059e+000

3.99465775648511e+005,-2.03027567614467e+001,-6.44024996753701e+000

4.05042110070485e+005,-2.03034849550433e+001,-6.52899719605846e+000

4.10696287220124e+005,-2.03042299453750e+001,-6.61894663172895e+000

4.16429393741414e+005,-2.03049920611667e+001,-6.71011416176116e+000

4.22242531447321e+005,-2.03057716362735e+001,-6.80251588717381e+000

4.28136817531551e+005,-2.03065690098037e+001,-6.89616812639493e+000

4.34113384783250e+005,-2.03073845262505e+001,-6.99108741894316e+000

4.40173381804713e+005,-2.03082185356348e+001,-7.08729052918421e+000

4.46317973232124e+005,-2.03090713936593e+001,-7.18479445016417e+000

4.52548339959385e+005,-2.03099434618748e+001,-7.28361640751705e+000

4.58865679365059e+005,-2.03108351078582e+001,-7.38377386344568e+000

4.65271205542494e+005,-2.03117467054051e+001,-7.48528452077518e+000

4.71766149533147e+005,-2.03126786347356e+001,-7.58816632707751e+000

4.78351759563174e+005,-2.03136312827149e+001,-7.69243747886346e+000

4.85029301283321e+005,-2.03146050430900e+001,-7.79811642584161e+000

4.91800058012158e+005,-2.03156003167414e+001,-7.90522187524108e+000

4.98665330982714e+005,-2.03166175119529e+001,-8.01377279619467e+000

5.05626439592555e+005,-2.03176570446977e+001,-8.12378842417997e+000

5.12684721657352e+005,-2.03187193389438e+001,-8.23528826551479e+000

5.19841533667984e+005,-2.03198048269772e+001,-8.34829210190322e+000

5.27098251051240e+005,-2.03209139497452e+001,-8.46281999502712e+000

5.34456268434150e+005,-2.03220471572195e+001,-8.57889229118107e+000

5.41916999912011e+005,-2.03232049087798e+001,-8.69652962594406e+000

