Freq.,VOut,OutRef

1.00000000000000e+004,-1.91560311443621e+001,-3.24944896621667e-001

1.01395947979003e+004,-1.91560324683129e+001,-3.29480916327376e-001

1.02811382665607e+004,-1.91560338294816e+001,-3.34080254725401e-001

1.04246576084112e+004,-1.91560352289143e+001,-3.38743795634799e-001

1.05701804056138e+004,-1.91560366676866e+001,-3.43472435210848e-001

1.07177346253629e+004,-1.91560381469041e+001,-3.48267082115120e-001

1.08673486252606e+004,-1.91560396677039e+001,-3.53128657689059e-001

1.10190511587661e+004,-1.91560412312545e+001,-3.58058096133504e-001

1.11728713807222e+004,-1.91560428387578e+001,-3.63056344684494e-001

1.13288388529580e+004,-1.91560444914490e+001,-3.68124363799243e-001

1.14869835499703e+004,-1.91560461905984e+001,-3.73263127336299e-001

1.16473358646846e+004,-1.91560479375116e+001,-3.78473622746482e-001

1.18099266142953e+004,-1.91560497335313e+001,-3.83756851258196e-001

1.19747870461893e+004,-1.91560515800376e+001,-3.89113828073655e-001

1.21419488439505e+004,-1.91560534784495e+001,-3.94545582561221e-001

1.23114441334492e+004,-1.91560554302260e+001,-4.00053158452617e-001

1.24833054890161e+004,-1.91560574368669e+001,-4.05637614046258e-001

1.26575659397028e+004,-1.91560594999142e+001,-4.11300022406943e-001

1.28342589756290e+004,-1.91560616209534e+001,-4.17041471573258e-001

1.30134185544193e+004,-1.91560638016141e+001,-4.22863064767151e-001

1.31950791077289e+004,-1.91560660435722e+001,-4.28765920603233e-001

1.33792755478611e+004,-1.91560683485505e+001,-4.34751173306256e-001

1.35660432744767e+004,-1.91560707183200e+001,-4.40819972926505e-001

1.37554181813974e+004,-1.91560731547019e+001,-4.46973485561292e-001

1.39474366635040e+004,-1.91560756595680e+001,-4.53212893579486e-001

1.41421356237309e+004,-1.91560782348432e+001,-4.59539395847132e-001

1.43395524801583e+004,-1.91560808825061e+001,-4.65954207957014e-001

1.45397251732031e+004,-1.91560836045912e+001,-4.72458562464013e-001

1.47426921729110e+004,-1.91560864031899e+001,-4.79053709118737e-001

1.49484924863494e+004,-1.91560892804526e+001,-4.85740915109304e-001

1.51571656651040e+004,-1.91560922385898e+001,-4.92521465303191e-001

1.53687518128801e+004,-1.91560952798743e+001,-4.99396662495896e-001

1.55832915932100e+004,-1.91560984066428e+001,-5.06367827655637e-001

1.58008262372675e+004,-1.91561016212976e+001,-5.13436300182711e-001

1.60213975517924e+004,-1.91561049263082e+001,-5.20603438162917e-001

1.62450479271247e+004,-1.91561083242138e+001,-5.27870618628072e-001

1.64718203453514e+004,-1.91561118176249e+001,-5.35239237820609e-001

1.67017583885674e+004,-1.91561154092250e+001,-5.42710711462054e-001

1.69349062472505e+004,-1.91561191017734e+001,-5.50286475021338e-001

1.71713087287550e+004,-1.91561228981067e+001,-5.57967983994677e-001

1.74110112659224e+004,-1.91561268011410e+001,-5.65756714179953e-001

1.76540599258131e+004,-1.91561308138746e+001,-5.73654161962351e-001

1.79005014185594e+004,-1.91561349393899e+001,-5.81661844599540e-001

1.81503831063432e+004,-1.91561391808557e+001,-5.89781300514789e-001

1.84037530124975e+004,-1.91561435415299e+001,-5.98014089587310e-001

1.86606598307361e+004,-1.91561480247620e+001,-6.06361793456485e-001

1.89211529345119e+004,-1.91561526339953e+001,-6.14826015820430e-001

1.91852823865052e+004,-1.91561573727700e+001,-6.23408382745285e-001

1.94530989482457e+004,-1.91561622447257e+001,-6.32110542976166e-001

1.97246540898671e+004,-1.91561672536039e+001,-6.40934168254087e-001

1.99999999999999e+004,-1.91561724032516e+001,-6.49880953632962e-001

2.02791895958005e+004,-1.91561776976235e+001,-6.58952617807996e-001

2.05622765331213e+004,-1.91561831407852e+001,-6.68150903441793e-001

2.08493152168224e+004,-1.91561887369168e+001,-6.77477577500010e-001

2.11403608112276e+004,-1.91561944903154e+001,-6.86934431587037e-001

2.14354692507258e+004,-1.91562004053991e+001,-6.96523282291676e-001

2.17346972505211e+004,-1.91562064867096e+001,-7.06245971533449e-001

2.20381023175322e+004,-1.91562127389162e+001,-7.16104366914689e-001

2.23457427614443e+004,-1.91562191668194e+001,-7.26100362078434e-001

2.26576777059159e+004,-1.91562257753544e+001,-7.36235877069887e-001

2.29739670999406e+004,-1.91562325695947e+001,-7.46512858705315e-001

2.32946717293690e+004,-1.91562395547563e+001,-7.56933280942586e-001

2.36198532285905e+004,-1.91562467362017e+001,-7.67499145259145e-001

2.39495740923785e+004,-1.91562541194435e+001,-7.78212481035027e-001

2.42838976879009e+004,-1.91562617101494e+001,-7.89075345940697e-001

2.46228882668982e+004,-1.91562695141458e+001,-8.00089826330009e-001

2.49666109780322e+004,-1.91562775374227e+001,-8.11258037638972e-001

2.53151318794055e+004,-1.91562857861380e+001,-8.22582124790448e-001

2.56685179512580e+004,-1.91562942666226e+001,-8.34064262602852e-001

2.60268371088386e+004,-1.91563029853847e+001,-8.45706656207000e-001

2.63901582154578e+004,-1.91563119491152e+001,-8.57511541465883e-001

2.67585510957221e+004,-1.91563211646926e+001,-8.69481185402057e-001

2.71320865489533e+004,-1.91563306391881e+001,-8.81617886631439e-001

2.75108363627948e+004,-1.91563403798717e+001,-8.93923975799916e-001

2.78948733270080e+004,-1.91563503942166e+001,-9.06401816030266e-001

2.82842712474618e+004,-1.91563606899062e+001,-9.19053803370757e-001

2.86791049603164e+004,-1.91563712748387e+001,-9.31882367254828e-001

2.90794503464061e+004,-1.91563821571340e+001,-9.44889970962733e-001

2.94853843458219e+004,-1.91563933451396e+001,-9.58079112091275e-001

2.98969849726987e+004,-1.91564048474371e+001,-9.71452323029943e-001

3.03143313302078e+004,-1.91564166728482e+001,-9.85012171445323e-001

3.07375036257601e+004,-1.91564288304423e+001,-9.98761260766480e-001

3.11665831864199e+004,-1.91564413295426e+001,-1.01270223068566e+000

3.16016524745350e+004,-1.91564541797336e+001,-1.02683775765699e+000

3.20427951035848e+004,-1.91564673908685e+001,-1.04117055540884e+000

3.24900958542493e+004,-1.91564809730762e+001,-1.05570337545847e+000

3.29436406907028e+004,-1.91564949367695e+001,-1.07043900763727e+000

3.34035167771346e+004,-1.91565092926530e+001,-1.08538028061992e+000

3.38698124945009e+004,-1.91565240517306e+001,-1.10053006246432e+000

3.43426174575100e+004,-1.91565392253148e+001,-1.11589126115519e+000

3.48220225318448e+004,-1.91565548250347e+001,-1.13146682515717e+000

3.53081198516260e+004,-1.91565708628449e+001,-1.14725974397562e+000

3.58010028371187e+004,-1.91565873510345e+001,-1.16327304872513e+000

3.63007662126863e+004,-1.91566043022368e+001,-1.17950981270370e+000

3.68075060249948e+004,-1.91566217294385e+001,-1.19597315197709e+000

3.73213196614721e+004,-1.91566396459898e+001,-1.21266622596950e+000

3.78423058690237e+004,-1.91566580656142e+001,-1.22959223806380e+000

3.83705647730104e+004,-1.91566770024192e+001,-1.24675443620910e+000

3.89061978964912e+004,-1.91566964709071e+001,-1.26415611353551e+000

3.94493081797342e+004,-1.91567164859854e+001,-1.28180060897843e+000

3.99999999999998e+004,-1.91567370629787e+001,-1.29969130791269e+000

4.05583791916010e+004,-1.91567582176399e+001,-1.31783164279066e+000

4.11245530662425e+004,-1.91567799661624e+001,-1.33622509379455e+000

4.16986304336447e+004,-1.91568023251920e+001,-1.35487518949388e+000

4.22807216224550e+004,-1.91568253118398e+001,-1.37378550751172e+000

4.28709385014515e+004,-1.91568489436948e+001,-1.39295967520369e+000

4.34693945010421e+004,-1.91568732388375e+001,-1.41240137033998e+000

4.40762046350642e+004,-1.91568982158534e+001,-1.43211432180289e+000

4.46914855228886e+004,-1.91569238938469e+001,-1.45210231028839e+000

4.53153554118317e+004,-1.91569502924557e+001,-1.47236916902160e+000

4.59479341998812e+004,-1.91569774318660e+001,-1.49291878447689e+000

4.65893434587380e+004,-1.91570053328268e+001,-1.51375509711387e+000

4.72397064571810e+004,-1.91570340166666e+001,-1.53488210211633e+000

4.78991481847569e+004,-1.91570635053087e+001,-1.55630385014651e+000

4.85677953758016e+004,-1.91570938212876e+001,-1.57802444810719e+000

4.92457765337964e+004,-1.91571249877667e+001,-1.60004805991213e+000

4.99332219560642e+004,-1.91571570285546e+001,-1.62237890727186e+000

5.06302637588109e+004,-1.91571899681238e+001,-1.64502127048328e+000

5.13370359025159e+004,-1.91572238316286e+001,-1.66797948923543e+000

5.20536742176771e+004,-1.91572586449243e+001,-1.69125796342256e+000

5.27803164309155e+004,-1.91572944345860e+001,-1.71486115396927e+000

5.35171021914442e+004,-1.91573312279287e+001,-1.73879358366633e+000

5.42641730979066e+004,-1.91573690530281e+001,-1.76305983801694e+000

5.50216727255895e+004,-1.91574079387408e+001,-1.78766456609520e+000

5.57897466540159e+004,-1.91574479147267e+001,-1.81261248141381e+000

5.65685424949235e+004,-1.91574890114701e+001,-1.83790836280660e+000

5.73582099206328e+004,-1.91575312603033e+001,-1.86355705531878e+000

5.81589006928121e+004,-1.91575746934292e+001,-1.88956347111151e+000

5.89707686916437e+004,-1.91576193439456e+001,-1.91593259037682e+000

5.97939699453972e+004,-1.91576652458701e+001,-1.94266946226425e+000

6.06286626604156e+004,-1.91577124341643e+001,-1.96977920582210e+000

6.14750072515201e+004,-1.91577609447607e+001,-1.99726701094649e+000

6.23331663728396e+004,-1.91578108145888e+001,-2.02513813934729e+000

6.32033049490698e+004,-1.91578620816026e+001,-2.05339792552223e+000

6.40855902071694e+004,-1.91579147848084e+001,-2.08205177774726e+000

6.49801917084985e+004,-1.91579689642939e+001,-2.11110517907775e+000

6.58872813814055e+004,-1.91580246612574e+001,-2.14056368836166e+000

6.68070335542691e+004,-1.91580819180383e+001,-2.17043294126757e+000

6.77396249890018e+004,-1.91581407781483e+001,-2.20071865132551e+000

6.86852349150199e+004,-1.91582012863030e+001,-2.23142661097914e+000

6.96440450636895e+004,-1.91582634884553e+001,-2.26256269265446e+000

7.06162397032520e+004,-1.91583274318283e+001,-2.29413284983777e+000

7.16020056742374e+004,-1.91583931649503e+001,-2.32614311817224e+000

7.26015324253724e+004,-1.91584607376905e+001,-2.35859961656397e+000

7.36150120499896e+004,-1.91585302012944e+001,-2.39150854830459e+000

7.46426393229441e+004,-1.91586016084223e+001,-2.42487620220686e+000

7.56846117380472e+004,-1.91586750131868e+001,-2.45870895375382e+000

7.67411295460207e+004,-1.91587504711922e+001,-2.49301326626421e+000

7.78123957929823e+004,-1.91588280395750e+001,-2.52779569207064e+000

7.88986163594682e+004,-1.91589077770454e+001,-2.56306287371179e+000

7.99999999999995e+004,-1.91589897439291e+001,-2.59882154514273e+000

8.11167583832018e+004,-1.91590740022115e+001,-2.63507853295489e+000

8.22491061324848e+004,-1.91591606155818e+001,-2.67184075761582e+000

8.33972608672892e+004,-1.91592496494793e+001,-2.70911523472104e+000

8.45614432449099e+004,-1.91593411711399e+001,-2.74690907626273e+000

8.57418770029029e+004,-1.91594352496443e+001,-2.78522949191284e+000

8.69387890020841e+004,-1.91595319559677e+001,-2.82408379032140e+000

8.81524092701283e+004,-1.91596313630302e+001,-2.86347938043203e+000

8.93829710457770e+004,-1.91597335457485e+001,-2.90342377281195e+000

9.06307108236633e+004,-1.91598385810896e+001,-2.94392458099773e+000

9.18958683997622e+004,-1.91599465481250e+001,-2.98498952285744e+000

9.31786869174758e+004,-1.91600575280867e+001,-3.02662642196916e+000

9.44794129143618e+004,-1.91601716044248e+001,-3.06884320901556e+000

9.57982963695136e+004,-1.91602888628656e+001,-3.11164792319441e+000

9.71355907516031e+004,-1.91604093914727e+001,-3.15504871364554e+000

9.84915530675926e+004,-1.91605332807079e+001,-3.19905384089578e+000

9.98664439121282e+004,-1.91606606234951e+001,-3.24367167831844e+000

1.01260527517622e+005,-1.91607915152845e+001,-3.28891071361129e+000

1.02674071805032e+005,-1.91609260541196e+001,-3.33477955029066e+000

1.04107348435354e+005,-1.91610643407045e+001,-3.38128690920324e+000

1.05560632861831e+005,-1.91612064784742e+001,-3.42844163005385e+000

1.07034204382888e+005,-1.91613525736655e+001,-3.47625267295221e+000

1.08528346195813e+005,-1.91615027353904e+001,-3.52472911997520e+000

1.10043345451179e+005,-1.91616570757107e+001,-3.57388017674815e+000

1.11579493308032e+005,-1.91618157097145e+001,-3.62371517404222e+000

1.13137084989847e+005,-1.91619787555950e+001,-3.67424356939139e+000

1.14716419841265e+005,-1.91621463347307e+001,-3.72547494872489e+000

1.16317801385624e+005,-1.91623185717672e+001,-3.77741902801963e+000

1.17941537383287e+005,-1.91624955947020e+001,-3.83008565496922e+000

1.19587939890794e+005,-1.91626775349699e+001,-3.88348481067105e+000

1.21257325320831e+005,-1.91628645275317e+001,-3.93762661133283e+000

1.22950014503040e+005,-1.91630567109641e+001,-3.99252130999545e+000

1.24666332745679e+005,-1.91632542275518e+001,-4.04817929827543e+000

1.26406609898139e+005,-1.91634572233819e+001,-4.10461110812605e+000

1.28171180414339e+005,-1.91636658484407e+001,-4.16182741361505e+000

1.29960383416997e+005,-1.91638802567121e+001,-4.21983903272353e+000

1.31774562762811e+005,-1.91641006062783e+001,-4.27865692916084e+000

1.33614067108538e+005,-1.91643270594236e+001,-4.33829221420024e+000

1.35479249978003e+005,-1.91645597827394e+001,-4.39875614853231e+000

1.37370469830040e+005,-1.91647989472319e+001,-4.46006014413738e+000

1.39288090127379e+005,-1.91650447284330e+001,-4.52221576617637e+000

1.41232479406504e+005,-1.91652973065120e+001,-4.58523473490248e+000

1.43204011348474e+005,-1.91655568663915e+001,-4.64912892758928e+000

1.45203064850745e+005,-1.91658235978643e+001,-4.71391038047965e+000

1.47230024099979e+005,-1.91660976957140e+001,-4.77959129075436e+000

1.49285278645888e+005,-1.91663793598374e+001,-4.84618401851770e+000

1.51369223476094e+005,-1.91666687953696e+001,-4.91370108880528e+000

1.53482259092041e+005,-1.91669662128122e+001,-4.98215519360876e+000

1.55624791585964e+005,-1.91672718281639e+001,-5.05155919392170e+000

1.57797232718936e+005,-1.91675858630536e+001,-5.12192612180432e+000

1.59999999999999e+005,-1.91679085448766e+001,-5.19326918246783e+000

1.62233516766403e+005,-1.91682401069330e+001,-5.26560175637934e+000

1.64498212264969e+005,-1.91685807885703e+001,-5.33893740138442e+000

1.66794521734578e+005,-1.91689308353270e+001,-5.41328985485308e+000

1.69122886489819e+005,-1.91692904990807e+001,-5.48867303584134e+000

1.71483754005805e+005,-1.91696600381979e+001,-5.56510104727740e+000

1.73877578004168e+005,-1.91700397176882e+001,-5.64258817816414e+000

1.76304818540256e+005,-1.91704298093596e+001,-5.72114890580436e+000

1.78765942091554e+005,-1.91708305919790e+001,-5.80079789804548e+000

1.81261421647326e+005,-1.91712423514340e+001,-5.88155001554422e+000

1.83791736799524e+005,-1.91716653808989e+001,-5.96342031405377e+000

1.86357373834951e+005,-1.91720999810033e+001,-6.04642404672939e+000

1.88958825828723e+005,-1.91725464600046e+001,-6.13057666645606e+000

1.91596592739027e+005,-1.91730051339627e+001,-6.21589382819800e+000

1.94271181503206e+005,-1.91734763269189e+001,-6.30239139136797e+000

1.96983106135185e+005,-1.91739603710779e+001,-6.39008542221844e+000

1.99732887824256e+005,-1.91744576069928e+001,-6.47899219625513e+000

2.02521055035243e+005,-1.91749683837540e+001,-6.56912820067111e+000

2.05348143610063e+005,-1.91754930591811e+001,-6.66051013680388e+000

2.08214696870707e+005,-1.91760320000191e+001,-6.75315492261433e+000

2.11121265723661e+005,-1.91765855821370e+001,-6.84707969518839e+000

2.14068408765776e+005,-1.91771541907308e+001,-6.94230181326096e+000

2.17056692391625e+005,-1.91777382205302e+001,-7.03883885976367e+000

2.20086690902357e+005,-1.91783380760086e+001,-7.13670864439515e+000

2.23158986616063e+005,-1.91789541715968e+001,-7.23592920621579e+000

2.26274169979693e+005,-1.91795869319014e+001,-7.33651881626588e+000

2.29432839682530e+005,-1.91802367919256e+001,-7.43849598020843e+000

2.32635602771247e+005,-1.91809041972957e+001,-7.54187944099654e+000

2.35883074766574e+005,-1.91815896044901e+001,-7.64668818156636e+000

2.39175879781588e+005,-1.91822934810732e+001,-7.75294142755501e+000

2.42514650641661e+005,-1.91830163059334e+001,-7.86065865004497e+000

2.45900029006080e+005,-1.91837585695255e+001,-7.96985956833450e+000

2.49332665491357e+005,-1.91845207741167e+001,-8.08056415273591e+000

2.52813219796278e+005,-1.91853034340383e+001,-8.19279262739949e+000

2.56342360828676e+005,-1.91861070759408e+001,-8.30656547316781e+000

2.59920766833993e+005,-1.91869322390544e+001,-8.42190343045674e+000

2.63549125525621e+005,-1.91877794754539e+001,-8.53882750216543e+000

2.67228134217075e+005,-1.91886493503293e+001,-8.65735895661758e+000

2.70958499956006e+005,-1.91895424422601e+001,-8.77751933053109e+000

2.74740939660078e+005,-1.91904593434963e+001,-8.89933043201954e+000

2.78576180254757e+005,-1.91914006602438e+001,-9.02281434362455e+000

2.82464958813007e+005,-1.91923670129560e+001,-9.14799342538050e+000

2.86408022696948e+005,-1.91933590366305e+001,-9.27489031791126e+000

2.90406129701488e+005,-1.91943773811125e+001,-9.40352794556127e+000

2.94460048199957e+005,-1.91954227114037e+001,-9.53392951955900e+000

2.98570557291775e+005,-1.91964957079782e+001,-9.66611854121530e+000

3.02738446952187e+005,-1.91975970671045e+001,-9.80011880515733e+000

3.06964518184081e+005,-1.91987275011746e+001,-9.93595440259710e+000

3.11249583171928e+005,-1.91998877390407e+001,-1.00736497246366e+001

3.15594465437872e+005,-1.92010785263585e+001,-1.02132294656087e+001

3.19999999999997e+005,-1.92023006259391e+001,-1.03547186264556e+001

3.24467033532806e+005,-1.92035548181087e+001,-1.04981425181444e+001

3.28996424529938e+005,-1.92048419010763e+001,-1.06435267651207e+001

3.33589043469155e+005,-1.92061626913113e+001,-1.07908973087984e+001

3.38245772979638e+005,-1.92075180239294e+001,-1.09402804110900e+001

3.42967508011610e+005,-1.92089087530882e+001,-1.10917026579731e+001

3.47755156008335e+005,-1.92103357523935e+001,-1.12451909630954e+001

3.52609637080511e+005,-1.92117999153155e+001,-1.14007725714185e+001

3.57531884183106e+005,-1.92133021556159e+001,-1.15584750628980e+001

3.62522843294651e+005,-1.92148434077876e+001,-1.17183263562017e+001

3.67583473599047e+005,-1.92164246275043e+001,-1.18803547124649e+001

3.72714747669902e+005,-1.92180467920851e+001,-1.20445887390800e+001

3.77917651657445e+005,-1.92197109009700e+001,-1.22110573935228e+001

3.83193185478053e+005,-1.92214179762108e+001,-1.23797899872118e+001

3.88542363006410e+005,-1.92231690629746e+001,-1.25508161893999e+001

3.93966212270369e+005,-1.92249652300640e+001,-1.27241660310979e+001

3.99465775648511e+005,-1.92268075704509e+001,-1.28998699090253e+001

4.05042110070485e+005,-1.92286972018280e+001,-1.30779585895909e+001

4.10696287220124e+005,-1.92306352671760e+001,-1.32584632128949e+001

4.16429393741414e+005,-1.92326229353491e+001,-1.34414152967548e+001

4.22242531447321e+005,-1.92346614016777e+001,-1.36268467407502e+001

4.28136817531551e+005,-1.92367518885910e+001,-1.38147898302815e+001

4.34113384783250e+005,-1.92388956462585e+001,-1.40052772406430e+001

4.40173381804713e+005,-1.92410939532512e+001,-1.41983420411012e+001

4.46317973232124e+005,-1.92433481172252e+001,-1.43940176989782e+001

4.52548339959385e+005,-1.92456594756253e+001,-1.45923380837326e+001

4.58865679365059e+005,-1.92480293964118e+001,-1.47933374710344e+001

4.65271205542494e+005,-1.92504592788104e+001,-1.49970505468269e+001

4.71766149533147e+005,-1.92529505540846e+001,-1.52035124113698e+001

4.78351759563174e+005,-1.92555046863338e+001,-1.54127585832585e+001

4.85029301283321e+005,-1.92581231733150e+001,-1.56248250034096e+001

4.91800058012158e+005,-1.92608075472911e+001,-1.58397480390077e+001

4.98665330982714e+005,-1.92635593759041e+001,-1.60575644874053e+001

5.05626439592555e+005,-1.92663802630754e+001,-1.62783115799655e+001

5.12684721657352e+005,-1.92692718499333e+001,-1.65020269858411e+001

5.19841533667984e+005,-1.92722358157673e+001,-1.67287488156789e+001

5.27098251051240e+005,-1.92752738790108e+001,-1.69585156252406e+001

5.34456268434150e+005,-1.92783877982513e+001,-1.71913664189298e+001

5.41916999912011e+005,-1.92815793732696e+001,-1.74273406532138e+001

