Freq.,VOut,OutRef

1.00000000000000e+004,-1.20241045657911e+001,-2.49691931867886e-002

1.01395947979003e+004,-1.20241047102141e+001,-2.53177379065820e-002

1.02811382665607e+004,-1.20241048586958e+001,-2.56711476115225e-002

1.04246576084112e+004,-1.20241050113506e+001,-2.60294901902988e-002

1.05701804056138e+004,-1.20241051682955e+001,-2.63928344810882e-002

1.07177346253629e+004,-1.20241053296513e+001,-2.67612502802471e-002

1.08673486252606e+004,-1.20241054955414e+001,-2.71348083614338e-002

1.10190511587661e+004,-1.20241056660940e+001,-2.75135804767997e-002

1.11728713807222e+004,-1.20241058414390e+001,-2.78976393922518e-002

1.13288388529580e+004,-1.20241060217123e+001,-2.82870588710683e-002

1.14869835499703e+004,-1.20241062070512e+001,-2.86819137224831e-002

1.16473358646846e+004,-1.20241063975984e+001,-2.90822797881336e-002

1.18099266142953e+004,-1.20241065935006e+001,-2.94882339668329e-002

1.19747870461893e+004,-1.20241067949079e+001,-2.98998542345349e-002

1.21419488439505e+004,-1.20241070019747e+001,-3.03172196530316e-002

1.23114441334492e+004,-1.20241072148600e+001,-3.07404103858862e-002

1.24833054890161e+004,-1.20241074337278e+001,-3.11695077099372e-002

1.26575659397028e+004,-1.20241076587454e+001,-3.16045940429272e-002

1.28342589756290e+004,-1.20241078900861e+001,-3.20457529432512e-002

1.30134185544193e+004,-1.20241081279271e+001,-3.24930691403240e-002

1.31950791077289e+004,-1.20241083724510e+001,-3.29466285426284e-002

1.33792755478611e+004,-1.20241086238454e+001,-3.34065182559234e-002

1.35660432744767e+004,-1.20241088823036e+001,-3.38728265963118e-002

1.37554181813974e+004,-1.20241091480238e+001,-3.43456431155008e-002

1.39474366635040e+004,-1.20241094212098e+001,-3.48250586120803e-002

1.41421356237309e+004,-1.20241097020710e+001,-3.53111651507449e-002

1.43395524801583e+004,-1.20241099908235e+001,-3.58040560746926e-002

1.45397251732031e+004,-1.20241102876886e+001,-3.63038260313962e-002

1.47426921729110e+004,-1.20241105928937e+001,-3.68105709892552e-002

1.49484924863494e+004,-1.20241109066735e+001,-3.73243882467212e-002

1.51571656651040e+004,-1.20241112292685e+001,-3.78453764631893e-002

1.53687518128801e+004,-1.20241115609259e+001,-3.83736356727682e-002

1.55832915932100e+004,-1.20241119019006e+001,-3.89092672983461e-002

1.58008262372675e+004,-1.20241122524539e+001,-3.94523741796045e-002

1.60213975517924e+004,-1.20241126128545e+001,-4.00030605889451e-002

1.62450479271247e+004,-1.20241129833791e+001,-4.05614322464686e-002

1.64718203453514e+004,-1.20241133643113e+001,-4.11275963511857e-002

1.67017583885674e+004,-1.20241137559442e+001,-4.17016615852794e-002

1.69349062472505e+004,-1.20241141585771e+001,-4.22837381556438e-002

1.71713087287550e+004,-1.20241145725191e+001,-4.28739377961083e-002

1.74110112659224e+004,-1.20241149980876e+001,-4.34723737971089e-002

1.76540599258131e+004,-1.20241154356086e+001,-4.40791610289557e-002

1.79005014185594e+004,-1.20241158854178e+001,-4.46944159570756e-002

1.81503831063432e+004,-1.20241163478598e+001,-4.53182566704524e-002

1.84037530124975e+004,-1.20241168232888e+001,-4.59508029024429e-002

1.86606598307361e+004,-1.20241173120693e+001,-4.65921760518736e-002

1.89211529345119e+004,-1.20241178145762e+001,-4.72424992022557e-002

1.91852823865052e+004,-1.20241183311937e+001,-4.79018971599300e-002

1.94530989482457e+004,-1.20241188623184e+001,-4.85704964560296e-002

1.97246540898671e+004,-1.20241194083567e+001,-4.92484253911326e-002

1.99999999999999e+004,-1.20241199697267e+001,-4.99358140470134e-002

2.02791895958005e+004,-1.20241205468591e+001,-5.06327943106417e-002

2.05622765331213e+004,-1.20241211401950e+001,-5.13394999118692e-002

2.08493152168224e+004,-1.20241217501892e+001,-5.20560664330514e-002

2.11403608112276e+004,-1.20241223773086e+001,-5.27826313451438e-002

2.14354692507258e+004,-1.20241230220334e+001,-5.35193340290517e-002

2.17346972505211e+004,-1.20241236848567e+001,-5.42663158048910e-002

2.20381023175322e+004,-1.20241243662864e+001,-5.50237199531750e-002

2.23457427614443e+004,-1.20241250668434e+001,-5.57916917523492e-002

2.26576777059159e+004,-1.20241257870643e+001,-5.65703784914242e-002

2.29739670999406e+004,-1.20241265274996e+001,-5.73599295139332e-002

2.32946717293690e+004,-1.20241272887160e+001,-5.81604962329623e-002

2.36198532285905e+004,-1.20241280712956e+001,-5.89722321672868e-002

2.39495740923785e+004,-1.20241288758370e+001,-5.97952929659452e-002

2.42838976879009e+004,-1.20241297029551e+001,-6.06298364428056e-002

2.46228882668982e+004,-1.20241305532826e+001,-6.14760225978448e-002

2.49666109780322e+004,-1.20241314274693e+001,-6.23340136580373e-002

2.53151318794055e+004,-1.20241323261833e+001,-6.32039740983282e-002

2.56685179512580e+004,-1.20241332501114e+001,-6.40860706778679e-002

2.60268371088386e+004,-1.20241341999592e+001,-6.49804724711457e-002

2.63901582154578e+004,-1.20241351764527e+001,-6.58873508944686e-002

2.67585510957221e+004,-1.20241361803376e+001,-6.68068797445251e-002

2.71320865489533e+004,-1.20241372123801e+001,-6.77392352303922e-002

2.75108363627948e+004,-1.20241382733684e+001,-6.86845960001967e-002

2.78948733270080e+004,-1.20241393641124e+001,-6.96431431824686e-002

2.82842712474618e+004,-1.20241404854444e+001,-7.06150604135535e-002

2.86791049603164e+004,-1.20241416382201e+001,-7.16005338774447e-002

2.90794503464061e+004,-1.20241428233188e+001,-7.25997523358273e-002

2.94853843458219e+004,-1.20241440416442e+001,-7.36129071680281e-002

2.98969849726987e+004,-1.20241452941253e+001,-7.46401924010821e-002

3.03143313302078e+004,-1.20241465817170e+001,-7.56818047498343e-002

3.07375036257601e+004,-1.20241479054005e+001,-7.67379436523538e-002

3.11665831864199e+004,-1.20241492661847e+001,-7.78088113063472e-002

3.16016524745350e+004,-1.20241506651056e+001,-7.88946127111582e-002

3.20427951035848e+004,-1.20241521032291e+001,-7.99955556956177e-002

3.24900958542493e+004,-1.20241535816498e+001,-8.11118509686628e-002

3.29436406907028e+004,-1.20241551014934e+001,-8.22437121486025e-002

3.34035167771346e+004,-1.20241566639158e+001,-8.33913558119910e-002

3.38698124945009e+004,-1.20241582701060e+001,-8.45550015214471e-002

3.43426174575100e+004,-1.20241599212853e+001,-8.57348718788848e-002

3.48220225318448e+004,-1.20241616187092e+001,-8.69311925567351e-002

3.53081198516260e+004,-1.20241633636676e+001,-8.81441923452796e-002

3.58010028371187e+004,-1.20241651574865e+001,-8.93741031911798e-002

3.63007662126863e+004,-1.20241670015282e+001,-9.06211602447781e-002

3.68075060249948e+004,-1.20241688971927e+001,-9.18856018984948e-002

3.73213196614721e+004,-1.20241708459189e+001,-9.31676698311953e-002

3.78423058690237e+004,-1.20241728491855e+001,-9.44676090538244e-002

3.83705647730104e+004,-1.20241749085117e+001,-9.57856679545457e-002

3.89061978964912e+004,-1.20241770254587e+001,-9.71220983433145e-002

3.94493081797342e+004,-1.20241792016310e+001,-9.84771554960943e-002

3.99999999999998e+004,-1.20241814386773e+001,-9.98510982016954e-002

4.05583791916010e+004,-1.20241837382913e+001,-1.01244188814548e-001

4.11245530662425e+004,-1.20241861022137e+001,-1.02656693293168e-001

4.16986304336447e+004,-1.20241885322329e+001,-1.04088881254632e-001

4.22807216224550e+004,-1.20241910301869e+001,-1.05541026019337e-001

4.28709385014515e+004,-1.20241935979636e+001,-1.07013404664338e-001

4.34693945010421e+004,-1.20241962375033e+001,-1.08506298068746e-001

4.40762046350642e+004,-1.20241989507991e+001,-1.10019990969292e-001

4.46914855228886e+004,-1.20242017398987e+001,-1.11554772008946e-001

4.53153554118317e+004,-1.20242046069066e+001,-1.13110933783136e-001

4.59479341998812e+004,-1.20242075539844e+001,-1.14688772901387e-001

4.65893434587380e+004,-1.20242105833527e+001,-1.16288590036585e-001

4.72397064571810e+004,-1.20242136972933e+001,-1.17910689974446e-001

4.78991481847569e+004,-1.20242168981501e+001,-1.19555381673508e-001

4.85677953758016e+004,-1.20242201883309e+001,-1.21222978316885e-001

4.92457765337964e+004,-1.20242235703094e+001,-1.22913797366598e-001

4.99332219560642e+004,-1.20242270466264e+001,-1.24628160622794e-001

5.06302637588109e+004,-1.20242306198921e+001,-1.26366394277458e-001

5.13370359025159e+004,-1.20242342927881e+001,-1.28128828970315e-001

5.20536742176771e+004,-1.20242380680680e+001,-1.29915799854326e-001

5.27803164309155e+004,-1.20242419485607e+001,-1.31727646644195e-001

5.35171021914442e+004,-1.20242459371720e+001,-1.33564713681710e-001

5.42641730979066e+004,-1.20242500368860e+001,-1.35427349993928e-001

5.50216727255895e+004,-1.20242542507677e+001,-1.37315909353850e-001

5.57897466540159e+004,-1.20242585819653e+001,-1.39230750339504e-001

5.65685424949235e+004,-1.20242630337115e+001,-1.41172236399006e-001

5.73582099206328e+004,-1.20242676093267e+001,-1.43140735909892e-001

5.81589006928121e+004,-1.20242723122204e+001,-1.45136622243338e-001

5.89707686916437e+004,-1.20242771458940e+001,-1.47160273827972e-001

5.97939699453972e+004,-1.20242821139433e+001,-1.49212074212816e-001

6.06286626604156e+004,-1.20242872200598e+001,-1.51292412135659e-001

6.14750072515201e+004,-1.20242924680350e+001,-1.53401681582408e-001

6.23331663728396e+004,-1.20242978617610e+001,-1.55540281859212e-001

6.32033049490698e+004,-1.20243034052345e+001,-1.57708617657160e-001

6.40855902071694e+004,-1.20243091025585e+001,-1.59907099119007e-001

6.49801917084985e+004,-1.20243149579458e+001,-1.62136141905809e-001

6.58872813814055e+004,-1.20243209757209e+001,-1.64396167269721e-001

6.68070335542691e+004,-1.20243271603234e+001,-1.66687602120482e-001

6.77396249890018e+004,-1.20243335163105e+001,-1.69010879096129e-001

6.86852349150199e+004,-1.20243400483602e+001,-1.71366436633776e-001

6.96440450636895e+004,-1.20243467612742e+001,-1.73754719038729e-001

7.06162397032520e+004,-1.20243536599808e+001,-1.76176176560045e-001

7.16020056742374e+004,-1.20243607495379e+001,-1.78631265459922e-001

7.26015324253724e+004,-1.20243680351367e+001,-1.81120448088393e-001

7.36150120499896e+004,-1.20243755221045e+001,-1.83644192954398e-001

7.46426393229441e+004,-1.20243832159077e+001,-1.86202974805121e-001

7.56846117380472e+004,-1.20243911221560e+001,-1.88797274694928e-001

7.67411295460207e+004,-1.20243992466049e+001,-1.91427580064342e-001

7.78123957929823e+004,-1.20244075951601e+001,-1.94094384813385e-001

7.88986163594682e+004,-1.20244161738801e+001,-1.96798189381289e-001

7.99999999999995e+004,-1.20244249889805e+001,-1.99539500820748e-001

8.11167583832018e+004,-1.20244340468374e+001,-2.02318832876108e-001

8.22491061324848e+004,-1.20244433539906e+001,-2.05136706064839e-001

8.33972608672892e+004,-1.20244529171489e+001,-2.07993647748494e-001

8.45614432449099e+004,-1.20244627431924e+001,-2.10890192218275e-001

8.57418770029029e+004,-1.20244728391769e+001,-2.13826880773859e-001

8.69387890020841e+004,-1.20244832123384e+001,-2.16804261800009e-001

8.81524092701283e+004,-1.20244938700964e+001,-2.19822890850961e-001

8.93829710457770e+004,-1.20245048200585e+001,-2.22883330727468e-001

9.06307108236633e+004,-1.20245160700239e+001,-2.25986151564068e-001

9.18958683997622e+004,-1.20245276279888e+001,-2.29131930903252e-001

9.31786869174758e+004,-1.20245395021498e+001,-2.32321253781207e-001

9.44794129143618e+004,-1.20245517009076e+001,-2.35554712814551e-001

9.57982963695136e+004,-1.20245642328730e+001,-2.38832908275472e-001

9.71355907516031e+004,-1.20245771068700e+001,-2.42156448179148e-001

9.84915530675926e+004,-1.20245903319409e+001,-2.45525948367644e-001

9.98664439121282e+004,-1.20246039173506e+001,-2.48942032592265e-001

1.01260527517622e+005,-1.20246178725911e+001,-2.52405332597365e-001

1.02674071805032e+005,-1.20246322073861e+001,-2.55916488206663e-001

1.04107348435354e+005,-1.20246469316959e+001,-2.59476147405186e-001

1.05560632861831e+005,-1.20246620557216e+001,-2.63084966426893e-001

1.07034204382888e+005,-1.20246775899102e+001,-2.66743609837077e-001

1.08528346195813e+005,-1.20246935449592e+001,-2.70452750617368e-001

1.10043345451179e+005,-1.20247099318211e+001,-2.74213070252641e-001

1.11579493308032e+005,-1.20247267617082e+001,-2.78025258817534e-001

1.13137084989847e+005,-1.20247440460977e+001,-2.81890015057268e-001

1.14716419841265e+005,-1.20247617967362e+001,-2.85808046475119e-001

1.16317801385624e+005,-1.20247800256441e+001,-2.89780069421714e-001

1.17941537383287e+005,-1.20247987451213e+001,-2.93806809172611e-001

1.19587939890794e+005,-1.20248179677505e+001,-2.97889000022254e-001

1.21257325320831e+005,-1.20248377064032e+001,-3.02027385362718e-001

1.22950014503040e+005,-1.20248579742440e+001,-3.06222717770843e-001

1.24666332745679e+005,-1.20248787847345e+001,-3.10475759096167e-001

1.26406609898139e+005,-1.20249001516388e+001,-3.14787280542080e-001

1.28171180414339e+005,-1.20249220890275e+001,-3.19158062752282e-001

1.29960383416997e+005,-1.20249446112826e+001,-3.23588895893836e-001

1.31774562762811e+005,-1.20249677331009e+001,-3.28080579745940e-001

1.33614067108538e+005,-1.20249914694993e+001,-3.32633923777854e-001

1.35479249978003e+005,-1.20250158358184e+001,-3.37249747237059e-001

1.37370469830040e+005,-1.20250408477267e+001,-3.41928879231669e-001

1.39288090127379e+005,-1.20250665212243e+001,-3.46672158812387e-001

1.41232479406504e+005,-1.20250928726470e+001,-3.51480435058201e-001

1.43204011348474e+005,-1.20251199186695e+001,-3.56354567155394e-001

1.45203064850745e+005,-1.20251476763091e+001,-3.61295424481628e-001

1.47230024099979e+005,-1.20251761629289e+001,-3.66303886687725e-001

1.49285278645888e+005,-1.20252053962404e+001,-3.71380843778928e-001

1.51369223476094e+005,-1.20252353943072e+001,-3.76527196193442e-001

1.53482259092041e+005,-1.20252661755462e+001,-3.81743854888262e-001

1.55624791585964e+005,-1.20252977587311e+001,-3.87031741412448e-001

1.57797232718936e+005,-1.20253301629937e+001,-3.92391787991580e-001

1.59999999999999e+005,-1.20253634078257e+001,-3.97824937605454e-001

1.62233516766403e+005,-1.20253975130797e+001,-4.03332144067541e-001

1.64498212264969e+005,-1.20254324989710e+001,-4.08914372101336e-001

1.66794521734578e+005,-1.20254683860776e+001,-4.14572597419058e-001

1.69122886489819e+005,-1.20255051953398e+001,-4.20307806802645e-001

1.71483754005805e+005,-1.20255429480614e+001,-4.26120998174948e-001

1.73877578004168e+005,-1.20255816659074e+001,-4.32013180682145e-001

1.76304818540256e+005,-1.20256213709040e+001,-4.37985374767115e-001

1.78765942091554e+005,-1.20256620854359e+001,-4.44038612249048e-001

1.81261421647326e+005,-1.20257038322448e+001,-4.50173936396335e-001

1.83791736799524e+005,-1.20257466344261e+001,-4.56392402005259e-001

1.86357373834951e+005,-1.20257905154252e+001,-4.62695075476112e-001

1.88958825828723e+005,-1.20258354990341e+001,-4.69083034888477e-001

1.91596592739027e+005,-1.20258816093856e+001,-4.75557370080489e-001

1.94271181503206e+005,-1.20259288709485e+001,-4.82119182723171e-001

1.96983106135185e+005,-1.20259773085209e+001,-4.88769586399434e-001

1.99732887824256e+005,-1.20260269472235e+001,-4.95509706681199e-001

2.02521055035243e+005,-1.20260778124912e+001,-5.02340681208931e-001

2.05348143610063e+005,-1.20261299300646e+001,-5.09263659772096e-001

2.08214696870707e+005,-1.20261833259804e+001,-5.16279804386617e-001

2.11121265723661e+005,-1.20262380265604e+001,-5.23390289381933e-001

2.14068408765776e+005,-1.20262940584001e+001,-5.30596301480265e-001

2.17056692391625e+005,-1.20263514483565e+001,-5.37899039883306e-001

2.20086690902357e+005,-1.20264102235337e+001,-5.45299716359259e-001

2.23158986616063e+005,-1.20264704112682e+001,-5.52799555334045e-001

2.26274169979693e+005,-1.20265320391136e+001,-5.60399793979788e-001

2.29432839682530e+005,-1.20265951348227e+001,-5.68101682312345e-001

2.32635602771247e+005,-1.20266597263297e+001,-5.75906483288389e-001

2.35883074766574e+005,-1.20267258417304e+001,-5.83815472906737e-001

2.39175879781588e+005,-1.20267935092612e+001,-5.91829940311850e-001

2.42514650641661e+005,-1.20268627572772e+001,-5.99951187907261e-001

2.45900029006080e+005,-1.20269336142283e+001,-6.08180531465403e-001

2.49332665491357e+005,-1.20270061086343e+001,-6.16519300250039e-001

2.52813219796278e+005,-1.20270802690584e+001,-6.24968837139823e-001

2.56342360828676e+005,-1.20271561240796e+001,-6.33530498758845e-001

2.59920766833993e+005,-1.20272337022630e+001,-6.42205655614425e-001

2.63549125525621e+005,-1.20273130321287e+001,-6.50995692242616e-001

2.67228134217075e+005,-1.20273941421197e+001,-6.59902007358618e-001

2.70958499956006e+005,-1.20274770605680e+001,-6.68926014018960e-001

2.74740939660078e+005,-1.20275618156581e+001,-6.78069139790372e-001

2.78576180254757e+005,-1.20276484353908e+001,-6.87332826927950e-001

2.82464958813007e+005,-1.20277369475437e+001,-6.96718532564896e-001

2.86408022696948e+005,-1.20278273796307e+001,-7.06227728913812e-001

2.90406129701488e+005,-1.20279197588602e+001,-7.15861903475817e-001

2.94460048199957e+005,-1.20280141120914e+001,-7.25622559266548e-001

2.98570557291775e+005,-1.20281104657884e+001,-7.35511215050817e-001

3.02738446952187e+005,-1.20282088459740e+001,-7.45529405595742e-001

3.06964518184081e+005,-1.20283092781804e+001,-7.55678681936160e-001

3.11249583171928e+005,-1.20284117873999e+001,-7.65960611652788e-001

3.15594465437872e+005,-1.20285163980327e+001,-7.76376779171716e-001

3.19999999999997e+005,-1.20286231338339e+001,-7.86928786079529e-001

3.24467033532806e+005,-1.20287320178592e+001,-7.97618251452524e-001

3.28996424529938e+005,-1.20288430724089e+001,-8.08446812210108e-001

3.33589043469155e+005,-1.20289563189704e+001,-8.19416123483997e-001

3.38245772979638e+005,-1.20290717781600e+001,-8.30527859011931e-001

3.42967508011610e+005,-1.20291894696634e+001,-8.41783711546520e-001

3.47755156008335e+005,-1.20293094121745e+001,-8.53185393292483e-001

3.52609637080511e+005,-1.20294316233338e+001,-8.64734636365803e-001

3.57531884183106e+005,-1.20295561196663e+001,-8.76433193272207e-001

3.62522843294651e+005,-1.20296829165175e+001,-8.88282837416359e-001

3.67583473599047e+005,-1.20298120279896e+001,-9.00285363633122e-001

3.72714747669902e+005,-1.20299434668776e+001,-9.12442588745128e-001

3.77917651657445e+005,-1.20300772446035e+001,-9.24756352149604e-001

3.83193185478053e+005,-1.20302133711521e+001,-9.37228516431149e-001

3.88542363006410e+005,-1.20303518550052e+001,-9.49860968002922e-001

3.93966212270369e+005,-1.20304927030776e+001,-9.62655617776346e-001

3.99465775648511e+005,-1.20306359206518e+001,-9.75614401862391e-001

4.05042110070485e+005,-1.20307815113140e+001,-9.88739282301188e-001

4.10696287220124e+005,-1.20309294768911e+001,-1.00203224782241e+000

4.16429393741414e+005,-1.20310798173883e+001,-1.01549531463550e+000

4.22242531447321e+005,-1.20312325309272e+001,-1.02913052725359e+000

4.28136817531551e+005,-1.20313876136867e+001,-1.04293995934613e+000

4.34113384783250e+005,-1.20315450598444e+001,-1.05692571462370e+000

4.40173381804713e+005,-1.20317048615199e+001,-1.07108992775453e+000

4.46317973232124e+005,-1.20318670087207e+001,-1.08543476531299e+000

4.52548339959385e+005,-1.20320314892902e+001,-1.09996242675687e+000

4.58865679365059e+005,-1.20321982888581e+001,-1.11467514543782e+000

4.65271205542494e+005,-1.20323673907935e+001,-1.12957518964133e+000

4.71766149533147e+005,-1.20325387761618e+001,-1.14466486365654e+000

4.78351759563174e+005,-1.20327124236839e+001,-1.15994650887645e+000

4.85029301283321e+005,-1.20328883096998e+001,-1.17542250492414e+000

4.91800058012158e+005,-1.20330664081355e+001,-1.19109527081001e+000

4.98665330982714e+005,-1.20332466904741e+001,-1.20696726611308e+000

5.05626439592555e+005,-1.20334291257311e+001,-1.22304099218927e+000

5.12684721657352e+005,-1.20336136804346e+001,-1.23931899340302e+000

5.19841533667984e+005,-1.20338003186093e+001,-1.25580385838376e+000

5.27098251051240e+005,-1.20339890017666e+001,-1.27249822130155e+000

5.34456268434150e+005,-1.20341796888986e+001,-1.28940476316441e+000

5.41916999912011e+005,-1.20343723364782e+001,-1.30652621313325e+000

