Freq.,VOut,OutRef

1.00000000000000e+004,-6.85074452020173e+000,-2.00475432149208e-002

1.01395947979003e+004,-6.85074467026477e+000,-2.03273900757641e-002

1.02811382665607e+004,-6.85074482454611e+000,-2.06111431821465e-002

1.04246576084112e+004,-6.85074498316495e+000,-2.08988570475595e-002

1.05701804056138e+004,-6.85074514624239e+000,-2.11905869552991e-002

1.07177346253629e+004,-6.85074531390439e+000,-2.14863889508940e-002

1.08673486252606e+004,-6.85074548627934e+000,-2.17863198682018e-002

1.10190511587661e+004,-6.85074566349989e+000,-2.20904373299736e-002

1.11728713807222e+004,-6.85074584570250e+000,-2.23987997628189e-002

1.13288388529580e+004,-6.85074603302691e+000,-2.27114664107416e-002

1.14869835499703e+004,-6.85074622561755e+000,-2.30284973402652e-002

1.16473358646846e+004,-6.85074642362151e+000,-2.33499534641521e-002

1.18099266142953e+004,-6.85074662719227e+000,-2.36758965306692e-002

1.19747870461893e+004,-6.85074683648477e+000,-2.40063891674240e-002

1.21419488439505e+004,-6.85074705166079e+000,-2.43414948596275e-002

1.23114441334492e+004,-6.85074727288522e+000,-2.46812779872056e-002

1.24833054890161e+004,-6.85074750032878e+000,-2.50258038201250e-002

1.26575659397028e+004,-6.85074773416611e+000,-2.53751385446177e-002

1.28342589756290e+004,-6.85074797457595e+000,-2.57293492746901e-002

1.30134185544193e+004,-6.85074822174392e+000,-2.60885040488433e-002

1.31950791077289e+004,-6.85074847585977e+000,-2.64526718611459e-002

1.33792755478611e+004,-6.85074873711888e+000,-2.68219226657496e-002

1.35660432744767e+004,-6.85074900572210e+000,-2.71963273926926e-002

1.37554181813974e+004,-6.85074928187527e+000,-2.75759579651264e-002

1.39474366635040e+004,-6.85074956579104e+000,-2.79608873025818e-002

1.41421356237309e+004,-6.85074985768764e+000,-2.83511893435038e-002

1.43395524801583e+004,-6.85075015778931e+000,-2.87469390587741e-002

1.45397251732031e+004,-6.85075046632638e+000,-2.91482124650364e-002

1.47426921729110e+004,-6.85075078353623e+000,-2.95550866356775e-002

1.49484924863494e+004,-6.85075110966267e+000,-2.99676397198136e-002

1.51571656651040e+004,-6.85075144495541e+000,-3.03859509623077e-002

1.53687518128801e+004,-6.85075178967335e+000,-3.08101006986077e-002

1.55832915932100e+004,-6.85075214408037e+000,-3.12401703992291e-002

1.58008262372675e+004,-6.85075250844974e+000,-3.16762426566303e-002

1.60213975517924e+004,-6.85075288306044e+000,-3.21184012279766e-002

1.62450479271247e+004,-6.85075326820052e+000,-3.25667310299057e-002

1.64718203453514e+004,-6.85075366416611e+000,-3.30213181624256e-002

1.67017583885674e+004,-6.85075407126138e+000,-3.34822499272225e-002

1.69349062472505e+004,-6.85075448979904e+000,-3.39496148427896e-002

1.71713087287550e+004,-6.85075492010092e+000,-3.44235026592227e-002

1.74110112659224e+004,-6.85075536249685e+000,-3.49040043836308e-002

1.76540599258131e+004,-6.85075581732722e+000,-3.53912122830975e-002

1.79005014185594e+004,-6.85075628494178e+000,-3.58852199117563e-002

1.81503831063432e+004,-6.85075676569910e+000,-3.63861221331842e-002

1.84037530124975e+004,-6.85075725996853e+000,-3.68940151286303e-002

1.86606598307361e+004,-6.85075776812984e+000,-3.74089964187024e-002

1.89211529345119e+004,-6.85075829057381e+000,-3.79311648803175e-002

1.91852823865052e+004,-6.85075882770130e+000,-3.84606207734300e-002

1.94530989482457e+004,-6.85075937992449e+000,-3.89974657540482e-002

1.97246540898671e+004,-6.85075994766870e+000,-3.95418028845430e-002

1.99999999999999e+004,-6.85076053136891e+000,-4.00937366764222e-002

2.02791895958005e+004,-6.85076113147375e+000,-4.06533730881316e-002

2.05622765331213e+004,-6.85076174844418e+000,-4.12208195550216e-002

2.08493152168224e+004,-6.85076238275419e+000,-4.17961850079269e-002

2.11403608112276e+004,-6.85076303489044e+000,-4.23795798986777e-002

2.14354692507258e+004,-6.85076370535415e+000,-4.29711162107650e-002

2.17346972505211e+004,-6.85076439466027e+000,-4.35709074890360e-002

2.20381023175322e+004,-6.85076510333773e+000,-4.41790688616299e-002

2.23457427614443e+004,-6.85076583193102e+000,-4.47957170552836e-002

2.26576777059159e+004,-6.85076658099929e+000,-4.54209704247137e-002

2.29739670999406e+004,-6.85076735111842e+000,-4.60549489655393e-002

2.32946717293690e+004,-6.85076814287851e+000,-4.66977743554016e-002

2.36198532285905e+004,-6.85076895688862e+000,-4.73495699498369e-002

2.39495740923785e+004,-6.85076979377313e+000,-4.80104608316854e-002

2.42838976879009e+004,-6.85077065417470e+000,-4.86805738195209e-002

2.46228882668982e+004,-6.85077153875337e+000,-4.93600375000450e-002

2.49666109780322e+004,-6.85077244818898e+000,-5.00489822403399e-002

2.53151318794055e+004,-6.85077338317926e+000,-5.07475402280040e-002

2.56685179512580e+004,-6.85077434444168e+000,-5.14558454881547e-002

2.60268371088386e+004,-6.85077533271461e+000,-5.21740339041008e-002

2.63901582154578e+004,-6.85077634875613e+000,-5.29022432555018e-002

2.67585510957221e+004,-6.85077739334617e+000,-5.36406132331336e-002

2.71320865489533e+004,-6.85077846728620e+000,-5.43892854717287e-002

2.75108363627948e+004,-6.85077957140100e+000,-5.51484035692720e-002

2.78948733270080e+004,-6.85078070653726e+000,-5.59181131272589e-002

2.82842712474618e+004,-6.85078187356677e+000,-5.66985617613985e-002

2.86791049603164e+004,-6.85078307338399e+000,-5.74898991498267e-002

2.90794503464061e+004,-6.85078430691003e+000,-5.82922770398879e-002

2.94853843458219e+004,-6.85078557509122e+000,-5.91058492900042e-002

2.98969849726987e+004,-6.85078687890051e+000,-5.99307718954263e-002

3.03143313302078e+004,-6.85078821933800e+000,-6.07672030179197e-002

3.07375036257601e+004,-6.85078959743193e+000,-6.16153030144819e-002

3.11665831864199e+004,-6.85079101423966e+000,-6.24752344660441e-002

3.16016524745350e+004,-6.85079247084775e+000,-6.33471622126918e-002

3.20427951035848e+004,-6.85079396837304e+000,-6.42312533836147e-002

3.24900958542493e+004,-6.85079550796391e+000,-6.51276774243841e-002

3.29436406907028e+004,-6.85079709080148e+000,-6.60366061282617e-002

3.34035167771346e+004,-6.85079871809936e+000,-6.69582136746407e-002

3.38698124945009e+004,-6.85080039110471e+000,-6.78926766614513e-002

3.43426174575100e+004,-6.85080211110074e+000,-6.88401741276155e-002

3.48220225318448e+004,-6.85080387940570e+000,-6.98008875998977e-002

3.53081198516260e+004,-6.85080569737525e+000,-7.07750011174144e-002

3.58010028371187e+004,-6.85080756640300e+000,-7.17627012697623e-002

3.63007662126863e+004,-6.85080948792079e+000,-7.27641772360166e-002

3.68075060249948e+004,-6.85081146340194e+000,-7.37796208070900e-002

3.73213196614721e+004,-6.85081349435966e+000,-7.48092264381647e-002

3.78423058690237e+004,-6.85081558235067e+000,-7.58531912686563e-002

3.83705647730104e+004,-6.85081772897414e+000,-7.69117151744011e-002

3.89061978964912e+004,-6.85081993587468e+000,-7.79850007919860e-002

3.94493081797342e+004,-6.85082220474297e+000,-7.90732535613793e-002

3.99999999999998e+004,-6.85082453731678e+000,-8.01766817651053e-002

4.05583791916010e+004,-6.85082693538246e+000,-8.12954965655162e-002

4.11245530662425e+004,-6.85082940077629e+000,-8.24299120443870e-002

4.16986304336447e+004,-6.85083193538568e+000,-8.35801452435368e-002

4.22807216224550e+004,-6.85083454115151e+000,-8.47464161982868e-002

4.28709385014515e+004,-6.85083722006837e+000,-8.59289479870097e-002

4.34693945010421e+004,-6.85083997418656e+000,-8.71279667680526e-002

4.40762046350642e+004,-6.85084280561418e+000,-8.83437018187251e-002

4.46914855228886e+004,-6.85084571651746e+000,-8.95763855843478e-002

4.53153554118317e+004,-6.85084870912405e+000,-9.08262537112890e-002

4.59479341998812e+004,-6.85085178572280e+000,-9.20935451014586e-002

4.65893434587380e+004,-6.85085494866740e+000,-9.33785019447031e-002

4.72397064571810e+004,-6.85085820037679e+000,-9.46813697704705e-002

4.78991481847569e+004,-6.85086154333720e+000,-9.60023974923613e-002

4.85677953758016e+004,-6.85086498010513e+000,-9.73418374453406e-002

4.92457765337964e+004,-6.85086851330725e+000,-9.86999454452226e-002

4.99332219560642e+004,-6.85087214564442e+000,-1.00076980822058e-001

5.06302637588109e+004,-6.85087587989242e+000,-1.01473206474340e-001

5.13370359025159e+004,-6.85087971890449e+000,-1.02888888914995e-001

5.20536742176771e+004,-6.85088366561346e+000,-1.04324298318465e-001

5.27803164309155e+004,-6.85088772303403e+000,-1.05779708569763e-001

5.35171021914442e+004,-6.85089189426441e+000,-1.07255397317056e-001

5.42641730979066e+004,-6.85089618248977e+000,-1.08751646014067e-001

5.50216727255895e+004,-6.85090059098336e+000,-1.10268739979163e-001

5.57897466540159e+004,-6.85090512311014e+000,-1.11806968438690e-001

5.65685424949235e+004,-6.85090978232817e+000,-1.13366624585477e-001

5.73582099206328e+004,-6.85091457219241e+000,-1.14948005622901e-001

5.81589006928121e+004,-6.85091949635615e+000,-1.16551412826381e-001

5.89707686916437e+004,-6.85092455857443e+000,-1.18177151591675e-001

5.97939699453972e+004,-6.85092976270677e+000,-1.19825531489289e-001

6.06286626604156e+004,-6.85093511272005e+000,-1.21496866319102e-001

6.14750072515201e+004,-6.85094061269090e+000,-1.23191474168702e-001

6.23331663728396e+004,-6.85094626680964e+000,-1.24909677464616e-001

6.32033049490698e+004,-6.85095207938323e+000,-1.26651803028106e-001

6.40855902071694e+004,-6.85095805483707e+000,-1.28418182141959e-001

6.49801917084985e+004,-6.85096419772038e+000,-1.30209150594630e-001

6.58872813814055e+004,-6.85097051270849e+000,-1.32025048745223e-001

6.68070335542691e+004,-6.85097700460553e+000,-1.33866221586705e-001

6.77396249890018e+004,-6.85098367834940e+000,-1.35733018797551e-001

6.86852349150199e+004,-6.85099053901485e+000,-1.37625794804110e-001

6.96440450636895e+004,-6.85099759181706e+000,-1.39544908842895e-001

7.06162397032520e+004,-6.85100484211555e+000,-1.41490725021515e-001

7.16020056742374e+004,-6.85101229541759e+000,-1.43463612383063e-001

7.26015324253724e+004,-6.85101995738369e+000,-1.45463944961137e-001

7.36150120499896e+004,-6.85102783383027e+000,-1.47492101850119e-001

7.46426393229441e+004,-6.85103593073434e+000,-1.49548467268357e-001

7.56846117380472e+004,-6.85104425423825e+000,-1.51633430618657e-001

7.67411295460207e+004,-6.85105281065399e+000,-1.53747386554801e-001

7.78123957929823e+004,-6.85106160646691e+000,-1.55890735052992e-001

7.88986163594682e+004,-6.85107064834217e+000,-1.58063881466231e-001

7.99999999999995e+004,-6.85107994312798e+000,-1.60267236601950e-001

8.11167583832018e+004,-6.85108949786153e+000,-1.62501216782783e-001

8.22491061324848e+004,-6.85109931977281e+000,-1.64766243922562e-001

8.33972608672892e+004,-6.85110941629215e+000,-1.67062745580238e-001

8.45614432449099e+004,-6.85111979505278e+000,-1.69391155046425e-001

8.57418770029029e+004,-6.85113046389830e+000,-1.71751911400287e-001

8.69387890020841e+004,-6.85114143088743e+000,-1.74145459585795e-001

8.81524092701283e+004,-6.85115270429997e+000,-1.76572250480744e-001

8.93829710457770e+004,-6.85116429264311e+000,-1.79032740966071e-001

9.06307108236633e+004,-6.85117620465669e+000,-1.81527394001447e-001

9.18958683997622e+004,-6.85118844931976e+000,-1.84056678696770e-001

9.31786869174758e+004,-6.85120103585742e+000,-1.86621070381116e-001

9.44794129143618e+004,-6.85121397374620e+000,-1.89221050683840e-001

9.57982963695136e+004,-6.85122727272243e+000,-1.91857107597091e-001

9.71355907516031e+004,-6.85124094278717e+000,-1.94529735561987e-001

9.84915530675926e+004,-6.85125499421491e+000,-1.97239435533615e-001

9.98664439121282e+004,-6.85126943755943e+000,-1.99986715063764e-001

1.01260527517622e+005,-6.85128428366242e+000,-2.02772088368182e-001

1.02674071805032e+005,-6.85129954365954e+000,-2.05596076412599e-001

1.04107348435354e+005,-6.85131522898987e+000,-2.08459206977056e-001

1.05560632861831e+005,-6.85133135140227e+000,-2.11362014743270e-001

1.07034204382888e+005,-6.85134792296418e+000,-2.14305041366522e-001

1.08528346195813e+005,-6.85136495607041e+000,-2.17288835549295e-001

1.10043345451179e+005,-6.85138246345031e+000,-2.20313953127768e-001

1.11579493308032e+005,-6.85140045817770e+000,-2.23380957140762e-001

1.13137084989847e+005,-6.85141895367938e+000,-2.26490417910981e-001

1.14716419841265e+005,-6.85143796374390e+000,-2.29642913123846e-001

1.16317801385624e+005,-6.85145750253116e+000,-2.32839027904744e-001

1.17941537383287e+005,-6.85147758458196e+000,-2.36079354896961e-001

1.19587939890794e+005,-6.85149822482753e+000,-2.39364494340780e-001

1.21257325320831e+005,-6.85151943859998e+000,-2.42695054149134e-001

1.22950014503040e+005,-6.85154124164175e+000,-2.46071649990176e-001

1.24666332745679e+005,-6.85156365011644e+000,-2.49494905363641e-001

1.26406609898139e+005,-6.85158668061997e+000,-2.52965451674488e-001

1.28171180414339e+005,-6.85161035019002e+000,-2.56483928321149e-001

1.29960383416997e+005,-6.85163467631863e+000,-2.60050982763215e-001

1.31774562762811e+005,-6.85165967696301e+000,-2.63667270602351e-001

1.33614067108538e+005,-6.85168537055648e+000,-2.67333455664055e-001

1.35479249978003e+005,-6.85171177602152e+000,-2.71050210066745e-001

1.37370469830040e+005,-6.85173891278097e+000,-2.74818214303263e-001

1.39288090127379e+005,-6.85176680077040e+000,-2.78638157317416e-001

1.41232479406504e+005,-6.85179546045126e+000,-2.82510736575537e-001

1.43204011348474e+005,-6.85182491282306e+000,-2.86436658144976e-001

1.45203064850745e+005,-6.85185517943714e+000,-2.90416636764745e-001

1.47230024099979e+005,-6.85188628240920e+000,-2.94451395923872e-001

1.49285278645888e+005,-6.85191824443356e+000,-2.98541667929320e-001

1.51369223476094e+005,-6.85195108879670e+000,-3.02688193980409e-001

1.53482259092041e+005,-6.85198483939174e+000,-3.06891724237054e-001

1.55624791585964e+005,-6.85201952073213e+000,-3.11153017893872e-001

1.57797232718936e+005,-6.85205515796695e+000,-3.15472843244090e-001

1.59999999999999e+005,-6.85209177689539e+000,-3.19851977749915e-001

1.62233516766403e+005,-6.85212940398262e+000,-3.24291208104064e-001

1.64498212264969e+005,-6.85216806637405e+000,-3.28791330301484e-001

1.66794521734578e+005,-6.85220779191178e+000,-3.33353149697200e-001

1.69122886489819e+005,-6.85224860915064e+000,-3.37977481067041e-001

1.71483754005805e+005,-6.85229054737377e+000,-3.42665148671269e-001

1.73877578004168e+005,-6.85233363660930e+000,-3.47416986310360e-001

1.76304818540256e+005,-6.85237790764744e+000,-3.52233837378809e-001

1.78765942091554e+005,-6.85242339205674e+000,-3.57116554921376e-001

1.81261421647326e+005,-6.85247012220133e+000,-3.62066001686493e-001

1.83791736799524e+005,-6.85251813125893e+000,-3.67083050168911e-001

1.86357373834951e+005,-6.85256745323757e+000,-3.72168582663756e-001

1.88958825828723e+005,-6.85261812299391e+000,-3.77323491306165e-001

1.91596592739027e+005,-6.85267017625107e+000,-3.82548678114407e-001

1.94271181503206e+005,-6.85272364961695e+000,-3.87845055027997e-001

1.96983106135185e+005,-6.85277858060250e+000,-3.93213543943488e-001

1.99732887824256e+005,-6.85283500764037e+000,-3.98655076747049e-001

2.02521055035243e+005,-6.85289297010374e+000,-4.04170595341589e-001

2.05348143610063e+005,-6.85295250832467e+000,-4.09761051677537e-001

2.08214696870707e+005,-6.85301366361413e+000,-4.15427407766812e-001

2.11121265723661e+005,-6.85307647828000e+000,-4.21170635709333e-001

2.14068408765776e+005,-6.85314099564720e+000,-4.26991717701395e-001

2.17056692391625e+005,-6.85320726007645e+000,-4.32891646048471e-001

2.20086690902357e+005,-6.85327531698402e+000,-4.38871423169975e-001

2.23158986616063e+005,-6.85334521286096e+000,-4.44932061601765e-001

2.26274169979693e+005,-6.85341699529248e+000,-4.51074583992154e-001

2.29432839682530e+005,-6.85349071297795e+000,-4.57300023091668e-001

2.32635602771247e+005,-6.85356641574945e+000,-4.63609421744632e-001

2.35883074766574e+005,-6.85364415459181e+000,-4.70003832866665e-001

2.39175879781588e+005,-6.85372398166177e+000,-4.76484319421766e-001

2.42514650641661e+005,-6.85380595030685e+000,-4.83051954394568e-001

2.45900029006080e+005,-6.85389011508449e+000,-4.89707820754640e-001

2.49332665491357e+005,-6.85397653178097e+000,-4.96453011414040e-001

2.52813219796278e+005,-6.85406525743003e+000,-5.03288629180826e-001

2.56342360828676e+005,-6.85415635033077e+000,-5.10215786707284e-001

2.59920766833993e+005,-6.85424987006602e+000,-5.17235606427044e-001

2.63549125525621e+005,-6.85434587751980e+000,-5.24349220491095e-001

2.67228134217075e+005,-6.85444443489464e+000,-5.31557770691066e-001

2.70958499956006e+005,-6.85454560572809e+000,-5.38862408382070e-001

2.74740939660078e+005,-6.85464945490905e+000,-5.46264294392221e-001

2.78576180254757e+005,-6.85475604869390e+000,-5.53764598926053e-001

2.82464958813007e+005,-6.85486545472043e+000,-5.61364501466698e-001

2.86408022696948e+005,-6.85497774202320e+000,-5.69065190659381e-001

2.90406129701488e+005,-6.85509298104655e+000,-5.76867864195904e-001

2.94460048199957e+005,-6.85521124365745e+000,-5.84773728687406e-001

2.98570557291775e+005,-6.85533260315730e+000,-5.92783999528287e-001

3.02738446952187e+005,-6.85545713429270e+000,-6.00899900754484e-001

3.06964518184081e+005,-6.85558491326510e+000,-6.09122664891175e-001

3.11249583171928e+005,-6.85571601773982e+000,-6.17453532790516e-001

3.15594465437872e+005,-6.85585052685252e+000,-6.25893753467777e-001

3.19999999999997e+005,-6.85598852121618e+000,-6.34444583917341e-001

3.24467033532806e+005,-6.85613008292507e+000,-6.43107288930699e-001

3.28996424529938e+005,-6.85627529555786e+000,-6.51883140900556e-001

3.33589043469155e+005,-6.85642424417940e+000,-6.60773419613893e-001

3.38245772979638e+005,-6.85657701533994e+000,-6.69779412042875e-001

3.42967508011610e+005,-6.85673369707294e+000,-6.78902412122112e-001

3.47755156008335e+005,-6.85689437889145e+000,-6.88143720516120e-001

3.52609637080511e+005,-6.85705915178133e+000,-6.97504644382504e-001

3.57531884183106e+005,-6.85722810819289e+000,-7.06986497124479e-001

3.62522843294651e+005,-6.85740134203030e+000,-7.16590598133301e-001

3.67583473599047e+005,-6.85757894863794e+000,-7.26318272526367e-001

3.72714747669902e+005,-6.85776102478519e+000,-7.36170850871733e-001

3.77917651657445e+005,-6.85794766864692e+000,-7.46149668913072e-001

3.83193185478053e+005,-6.85813897978251e+000,-7.56256067279152e-001

3.88542363006410e+005,-6.85833505911121e+000,-7.66491391190925e-001

3.93966212270369e+005,-6.85853600888429e+000,-7.76856990160514e-001

3.99465775648511e+005,-6.85874193265400e+000,-7.87354217685324e-001

4.05042110070485e+005,-6.85895293523905e+000,-7.97984430933698e-001

4.10696287220124e+005,-6.85916912268596e+000,-8.08748990430818e-001

4.16429393741414e+005,-6.85939060222765e+000,-8.19649259732926e-001

4.22242531447321e+005,-6.85961748223693e+000,-8.30686605104231e-001

4.28136817531551e+005,-6.85984987217631e+000,-8.41862395188030e-001

4.34113384783250e+005,-6.86008788254384e+000,-8.53178000675615e-001

4.40173381804713e+005,-6.86033162481357e+000,-8.64634793975872e-001

4.46317973232124e+005,-6.86058121137260e+000,-8.76234148881333e-001

4.52548339959385e+005,-6.86083675545219e+000,-8.87977440238299e-001

4.58865679365059e+005,-6.86109837105455e+000,-8.99866043617764e-001

4.65271205542494e+005,-6.86136617287427e+000,-9.11901334989781e-001

4.71766149533147e+005,-6.86164027621441e+000,-9.24084690402092e-001

4.78351759563174e+005,-6.86192079689741e+000,-9.36417485665047e-001

4.85029301283321e+005,-6.86220785117011e+000,-9.48901096043539e-001

4.91800058012158e+005,-6.86250155560309e+000,-9.61536895958659e-001

4.98665330982714e+005,-6.86280202698397e+000,-9.74326258701904e-001

5.05626439592555e+005,-6.86310938220518e+000,-9.87270556156648e-001

5.12684721657352e+005,-6.86342373814491e+000,-1.00037115854070e+000

5.19841533667984e+005,-6.86374521154206e+000,-1.01362943416139e+000

5.27098251051240e+005,-6.86407391886496e+000,-1.02704674918974e+000

5.34456268434150e+005,-6.86440997617344e+000,-1.04062446745609e+000

5.41916999912011e+005,-6.86475349897396e+000,-1.05436395027012e+000

