Freq.,VOut,OutRef

1.00000000000000e+004,-2.43056260365366e+001,-4.10207313802958e-001

1.01395947979003e+004,-2.43056283490311e+001,-4.15933548531439e-001

1.02811382665607e+004,-2.43056307265371e+001,-4.21739716565102e-001

1.04246576084112e+004,-2.43056331708823e+001,-4.27626933648925e-001

1.05701804056138e+004,-2.43056356839458e+001,-4.33596331098537e-001

1.07177346253629e+004,-2.43056382676593e+001,-4.39649056019757e-001

1.08673486252606e+004,-2.43056409240090e+001,-4.45786271526383e-001

1.10190511587661e+004,-2.43056436550370e+001,-4.52009156964547e-001

1.11728713807222e+004,-2.43056464628425e+001,-4.58318908141051e-001

1.13288388529580e+004,-2.43056493495840e+001,-4.64716737548582e-001

1.14869835499703e+004,-2.43056523174804e+001,-4.71203874603903e-001

1.16473358646846e+004,-2.43056553688134e+001,-4.77781565878731e-001

1.18099266142953e+004,-2.43056585059284e+001,-4.84451075342859e-001

1.19747870461893e+004,-2.43056617312369e+001,-4.91213684604431e-001

1.21419488439505e+004,-2.43056650472183e+001,-4.98070693157498e-001

1.23114441334492e+004,-2.43056684564216e+001,-5.05023418630222e-001

1.24833054890161e+004,-2.43056719614673e+001,-5.12073197039023e-001

1.26575659397028e+004,-2.43056755650499e+001,-5.19221383043235e-001

1.28342589756290e+004,-2.43056792699394e+001,-5.26469350207777e-001

1.30134185544193e+004,-2.43056830789836e+001,-5.33818491264138e-001

1.31950791077289e+004,-2.43056869951106e+001,-5.41270218378645e-001

1.33792755478611e+004,-2.43056910213306e+001,-5.48825963425327e-001

1.35660432744767e+004,-2.43056951607386e+001,-5.56487178256318e-001

1.37554181813974e+004,-2.43056994165164e+001,-5.64255334984946e-001

1.39474366635040e+004,-2.43057037919353e+001,-5.72131926266259e-001

1.41421356237309e+004,-2.43057082903587e+001,-5.80118465583022e-001

1.43395524801583e+004,-2.43057129152442e+001,-5.88216487536996e-001

1.45397251732031e+004,-2.43057176701471e+001,-5.96427548142008e-001

1.47426921729110e+004,-2.43057225587222e+001,-6.04753225125338e-001

1.49484924863494e+004,-2.43057275847270e+001,-6.13195118227604e-001

1.51571656651040e+004,-2.43057327520252e+001,-6.21754849509864e-001

1.53687518128801e+004,-2.43057380645883e+001,-6.30434063666495e-001

1.55832915932100e+004,-2.43057435265001e+001,-6.39234428339437e-001

1.58008262372675e+004,-2.43057491419588e+001,-6.48157634437884e-001

1.60213975517924e+004,-2.43057549152808e+001,-6.57205396463512e-001

1.62450479271247e+004,-2.43057608509035e+001,-6.66379452838848e-001

1.64718203453514e+004,-2.43057669533895e+001,-6.75681566240009e-001

1.67017583885674e+004,-2.43057732274293e+001,-6.85113523935447e-001

1.69349062472505e+004,-2.43057796778455e+001,-6.94677138128807e-001

1.71713087287550e+004,-2.43057863095959e+001,-7.04374246305542e-001

1.74110112659224e+004,-2.43057931277778e+001,-7.14206711586496e-001

1.76540599258131e+004,-2.43058001376320e+001,-7.24176423083010e-001

1.79005014185594e+004,-2.43058073445463e+001,-7.34285296262125e-001

1.81503831063432e+004,-2.43058147540601e+001,-7.44535273310228e-001

1.84037530124975e+004,-2.43058223718683e+001,-7.54928323508278e-001

1.86606598307361e+004,-2.43058302038260e+001,-7.65466443607306e-001

1.89211529345119e+004,-2.43058382559529e+001,-7.76151658212352e-001

1.91852823865052e+004,-2.43058465344378e+001,-7.86986020169182e-001

1.94530989482457e+004,-2.43058550456435e+001,-7.97971610958862e-001

1.97246540898671e+004,-2.43058637961115e+001,-8.09110541095164e-001

1.99999999999999e+004,-2.43058727925672e+001,-8.20404950531378e-001

2.02791895958005e+004,-2.43058820419252e+001,-8.31857009066107e-001

2.05622765331213e+004,-2.43058915512941e+001,-8.43468916763956e-001

2.08493152168224e+004,-2.43059013279825e+001,-8.55242904372263e-001

2.11403608112276e+004,-2.43059113795045e+001,-8.67181233750878e-001

2.14354692507258e+004,-2.43059217135849e+001,-8.79286198305280e-001

2.17346972505211e+004,-2.43059323381659e+001,-8.91560123424871e-001

2.20381023175322e+004,-2.43059432614132e+001,-9.04005366927525e-001

2.23457427614443e+004,-2.43059544917214e+001,-9.16624319512511e-001

2.26576777059159e+004,-2.43059660377214e+001,-9.29419405217477e-001

2.29739670999406e+004,-2.43059779082863e+001,-9.42393081882153e-001

2.32946717293690e+004,-2.43059901125389e+001,-9.55547841618688e-001

2.36198532285905e+004,-2.43060026598583e+001,-9.68886211288305e-001

2.39495740923785e+004,-2.43060155598868e+001,-9.82410752985128e-001

2.42838976879009e+004,-2.43060288225379e+001,-9.96124064526702e-001

2.46228882668982e+004,-2.43060424580039e+001,-1.01002877994940e+000

2.49666109780322e+004,-2.43060564767631e+001,-1.02412757001341e+000

2.53151318794055e+004,-2.43060708895884e+001,-1.03842314271324e+000

2.56685179512580e+004,-2.43060857075554e+001,-1.05291824379475e+000

2.60268371088386e+004,-2.43061009420508e+001,-1.06761565728091e+000

2.63901582154578e+004,-2.43061166047814e+001,-1.08251820600298e+000

2.67585510957221e+004,-2.43061327077828e+001,-1.09762875214078e+000

2.71320865489533e+004,-2.43061492634288e+001,-1.11295019776916e+000

2.75108363627948e+004,-2.43061662844408e+001,-1.12848548541234e+000

2.78948733270080e+004,-2.43061837838977e+001,-1.14423759860561e+000

2.82842712474618e+004,-2.43062017752459e+001,-1.16020956246653e+000

2.86791049603164e+004,-2.43062202723093e+001,-1.17640444427033e+000

2.90794503464061e+004,-2.43062392893004e+001,-1.19282535403726e+000

2.94853843458219e+004,-2.43062588408310e+001,-1.20947544512521e+000

2.98969849726987e+004,-2.43062789419232e+001,-1.22635791483168e+000

3.03143313302078e+004,-2.43062996080212e+001,-1.24347600500408e+000

3.07375036257601e+004,-2.43063208550031e+001,-1.26083300265798e+000

3.11665831864199e+004,-2.43063426991930e+001,-1.27843224060317e+000

3.16016524745350e+004,-2.43063651573733e+001,-1.29627709808050e+000

3.20427951035848e+004,-2.43063882467984e+001,-1.31437100140470e+000

3.24900958542493e+004,-2.43064119852066e+001,-1.33271742461873e+000

3.29436406907028e+004,-2.43064363908350e+001,-1.35131989015438e+000

3.34035167771346e+004,-2.43064614824328e+001,-1.37018196950338e+000

3.38698124945009e+004,-2.43064872792757e+001,-1.38930728389902e+000

3.43426174575100e+004,-2.43065138011807e+001,-1.40869950500412e+000

3.48220225318448e+004,-2.43065410685216e+001,-1.42836235560981e+000

3.53081198516260e+004,-2.43065691022443e+001,-1.44829961034536e+000

3.58010028371187e+004,-2.43065979238829e+001,-1.46851509639445e+000

3.63007662126863e+004,-2.43066275555761e+001,-1.48901269422446e+000

3.68075060249948e+004,-2.43066580200844e+001,-1.50979633832371e+000

3.73213196614721e+004,-2.43066893408077e+001,-1.53087001794871e+000

3.78423058690237e+004,-2.43067215418024e+001,-1.55223777788333e+000

3.83705647730104e+004,-2.43067546478009e+001,-1.57390371920605e+000

3.89061978964912e+004,-2.43067886842298e+001,-1.59587200006899e+000

3.94493081797342e+004,-2.43068236772296e+001,-1.61814683648750e+000

3.99999999999998e+004,-2.43068596536748e+001,-1.64073250313945e+000

4.05583791916010e+004,-2.43068966411942e+001,-1.66363333417770e+000

4.11245530662425e+004,-2.43069346681924e+001,-1.68685372404948e+000

4.16986304336447e+004,-2.43069737638715e+001,-1.71039812833094e+000

4.22807216224550e+004,-2.43070139582531e+001,-1.73427106457112e+000

4.28709385014515e+004,-2.43070552822016e+001,-1.75847711314767e+000

4.34693945010421e+004,-2.43070977674479e+001,-1.78302091813298e+000

4.40762046350642e+004,-2.43071414466131e+001,-1.80790718817444e+000

4.46914855228886e+004,-2.43071863532344e+001,-1.83314069738338e+000

4.53153554118317e+004,-2.43072325217898e+001,-1.85872628623962e+000

4.59479341998812e+004,-2.43072799877250e+001,-1.88466886250443e+000

4.65893434587380e+004,-2.43073287874806e+001,-1.91097340214856e+000

4.72397064571810e+004,-2.43073789585193e+001,-1.93764495029179e+000

4.78991481847569e+004,-2.43074305393554e+001,-1.96468862215380e+000

4.85677953758016e+004,-2.43074835695837e+001,-1.99210960402007e+000

4.92457765337964e+004,-2.43075380899098e+001,-2.01991315421887e+000

4.99332219560642e+004,-2.43075941421814e+001,-2.04810460411257e+000

5.06302637588109e+004,-2.43076517694200e+001,-2.07668935910044e+000

5.13370359025159e+004,-2.43077110158540e+001,-2.10567289963673e+000

5.20536742176771e+004,-2.43077719269524e+001,-2.13506078226084e+000

5.27803164309155e+004,-2.43078345494595e+001,-2.16485864064228e+000

5.35171021914442e+004,-2.43078989314306e+001,-2.19507218663810e+000

5.42641730979066e+004,-2.43079651222686e+001,-2.22570721136565e+000

5.50216727255895e+004,-2.43080331727618e+001,-2.25676958628841e+000

5.57897466540159e+004,-2.43081031351226e+001,-2.28826526431789e+000

5.65685424949235e+004,-2.43081750630271e+001,-2.32020028092675e+000

5.73582099206328e+004,-2.43082490116567e+001,-2.35258075528052e+000

5.81589006928121e+004,-2.43083250377395e+001,-2.38541289138070e+000

5.89707686916437e+004,-2.43084031995936e+001,-2.41870297922563e+000

5.97939699453972e+004,-2.43084835571719e+001,-2.45245739598389e+000

6.06286626604156e+004,-2.43085661721076e+001,-2.48668260718568e+000

6.14750072515201e+004,-2.43086511077610e+001,-2.52138516792700e+000

6.23331663728396e+004,-2.43087384292679e+001,-2.55657172409186e+000

6.32033049490698e+004,-2.43088282035892e+001,-2.59224901358840e+000

6.40855902071694e+004,-2.43089204995617e+001,-2.62842386760295e+000

6.49801917084985e+004,-2.43090153879506e+001,-2.66510321186762e+000

6.58872813814055e+004,-2.43091129415034e+001,-2.70229406794696e+000

6.68070335542691e+004,-2.43092132350051e+001,-2.74000355453952e+000

6.77396249890018e+004,-2.43093163453349e+001,-2.77823888879652e+000

6.86852349150199e+004,-2.43094223515248e+001,-2.81700738765662e+000

6.96440450636895e+004,-2.43095313348199e+001,-2.85631646919914e+000

7.06162397032520e+004,-2.43096433787393e+001,-2.89617365401352e+000

7.16020056742374e+004,-2.43097585691404e+001,-2.93658656658592e+000

7.26015324253724e+004,-2.43098769942835e+001,-2.97756293670379e+000

7.36150120499896e+004,-2.43099987448989e+001,-3.01911060087831e+000

7.46426393229441e+004,-2.43101239142557e+001,-3.06123750378378e+000

7.56846117380472e+004,-2.43102525982325e+001,-3.10395169971541e+000

7.67411295460207e+004,-2.43103848953901e+001,-3.14726135406649e+000

7.78123957929823e+004,-2.43105209070459e+001,-3.19117474482207e+000

7.88986163594682e+004,-2.43106607373510e+001,-3.23570026407171e+000

7.99999999999995e+004,-2.43108044933687e+001,-3.28084641954120e+000

8.11167583832018e+004,-2.43109522851555e+001,-3.32662183614364e+000

8.22491061324848e+004,-2.43111042258444e+001,-3.37303525754778e+000

8.33972608672892e+004,-2.43112604317305e+001,-3.42009554776695e+000

8.45614432449099e+004,-2.43114210223586e+001,-3.46781169276668e+000

8.57418770029029e+004,-2.43115861206135e+001,-3.51619280209200e+000

8.69387890020841e+004,-2.43117558528129e+001,-3.56524811051380e+000

8.81524092701283e+004,-2.43119303488024e+001,-3.61498697969547e+000

8.93829710457770e+004,-2.43121097420536e+001,-3.66541889987882e+000

9.06307108236633e+004,-2.43122941697647e+001,-3.71655349159089e+000

9.18958683997622e+004,-2.43124837729633e+001,-3.76840050736942e+000

9.31786869174758e+004,-2.43126786966131e+001,-3.82096983350955e+000

9.44794129143618e+004,-2.43128790897225e+001,-3.87427149183152e+000

9.57982963695136e+004,-2.43130851054571e+001,-3.92831564146656e+000

9.71355907516031e+004,-2.43132969012539e+001,-3.98311258066594e+000

9.84915530675926e+004,-2.43135146389404e+001,-4.03867274862895e+000

9.98664439121282e+004,-2.43137384848552e+001,-4.09500672735245e+000

1.01260527517622e+005,-2.43139686099732e+001,-4.15212524350123e+000

1.02674071805032e+005,-2.43142051900333e+001,-4.21003917029877e+000

1.04107348435354e+005,-2.43144484056702e+001,-4.26875952943984e+000

1.05560632861831e+005,-2.43146984425493e+001,-4.32829749302377e+000

1.07034204382888e+005,-2.43149554915056e+001,-4.38866438550914e+000

1.08528346195813e+005,-2.43152197486859e+001,-4.44987168568902e+000

1.10043345451179e+005,-2.43154914156957e+001,-4.51193102868849e+000

1.11579493308032e+005,-2.43157706997488e+001,-4.57485420798314e+000

1.13137084989847e+005,-2.43160578138221e+001,-4.63865317743829e+000

1.14716419841265e+005,-2.43163529768140e+001,-4.70334005337031e+000

1.16317801385624e+005,-2.43166564137069e+001,-4.76892711662951e+000

1.17941537383287e+005,-2.43169683557347e+001,-4.83542681470309e+000

1.19587939890794e+005,-2.43172890405539e+001,-4.90285176384133e+000

1.21257325320831e+005,-2.43176187124203e+001,-4.97121475120327e+000

1.22950014503040e+005,-2.43179576223694e+001,-5.04052873702493e+000

1.24666332745679e+005,-2.43183060284025e+001,-5.11080685680875e+000

1.26406609898139e+005,-2.43186641956769e+001,-5.18206242353284e+000

1.28171180414339e+005,-2.43190323967020e+001,-5.25430892988284e+000

1.29960383416997e+005,-2.43194109115401e+001,-5.32756005050441e+000

1.31774562762811e+005,-2.43198000280124e+001,-5.40182964427532e+000

1.33614067108538e+005,-2.43202000419111e+001,-5.47713175660032e+000

1.35479249978003e+005,-2.43206112572163e+001,-5.55348062172457e+000

1.37370469830040e+005,-2.43210339863194e+001,-5.63089066506908e+000

1.39288090127379e+005,-2.43214685502513e+001,-5.70937650558494e+000

1.41232479406504e+005,-2.43219152789182e+001,-5.78895295812846e+000

1.43204011348474e+005,-2.43223745113419e+001,-5.86963503585561e+000

1.45203064850745e+005,-2.43228465959073e+001,-5.95143795263620e+000

1.47230024099979e+005,-2.43233318906166e+001,-6.03437712548640e+000

1.49285278645888e+005,-2.43238307633491e+001,-6.11846817702174e+000

1.51369223476094e+005,-2.43243435921288e+001,-6.20372693792624e+000

1.53482259092041e+005,-2.43248707653986e+001,-6.29016944944219e+000

1.55624791585964e+005,-2.43254126823009e+001,-6.37781196587600e+000

1.57797232718936e+005,-2.43259697529665e+001,-6.46667095712223e+000

1.59999999999999e+005,-2.43265423988105e+001,-6.55676311120293e+000

1.62233516766403e+005,-2.43271310528355e+001,-6.64810533682589e+000

1.64498212264969e+005,-2.43277361599429e+001,-6.74071476595673e+000

1.66794521734578e+005,-2.43283581772523e+001,-6.83460875640652e+000

1.69122886489819e+005,-2.43289975744285e+001,-6.92980489443485e+000

1.71483754005805e+005,-2.43296548340170e+001,-7.02632099736622e+000

1.73877578004168e+005,-2.43303304517885e+001,-7.12417511621999e+000

1.76304818540256e+005,-2.43310249370913e+001,-7.22338553835299e+000

1.78765942091554e+005,-2.43317388132132e+001,-7.32397079011381e+000

1.81261421647326e+005,-2.43324726177517e+001,-7.42594963950860e+000

1.83791736799524e+005,-2.43332269029947e+001,-7.52934109887647e+000

1.86357373834951e+005,-2.43340022363090e+001,-7.63416442757451e+000

1.88958825828723e+005,-2.43347992005400e+001,-7.74043913467140e+000

1.91596592739027e+005,-2.43356183944205e+001,-7.84818498164743e+000

1.94271181503206e+005,-2.43364604329892e+001,-7.95742198510197e+000

1.96983106135185e+005,-2.43373259480202e+001,-8.06817041946550e+000

1.99732887824256e+005,-2.43382155884630e+001,-8.18045081971536e+000

2.02521055035243e+005,-2.43391300208920e+001,-8.29428398409456e+000

2.05348143610063e+005,-2.43400699299686e+001,-8.40969097683280e+000

2.08214696870707e+005,-2.43410360189130e+001,-8.52669313086546e+000

2.11121265723661e+005,-2.43420290099877e+001,-8.64531205055427e+000

2.14068408765776e+005,-2.43430496449931e+001,-8.76556961440219e+000

2.17056692391625e+005,-2.43440986857742e+001,-8.88748797776591e+000

2.20086690902357e+005,-2.43451769147392e+001,-9.01108957556153e+000

2.23158986616063e+005,-2.43462851353907e+001,-9.13639712496267e+000

2.26274169979693e+005,-2.43474241728691e+001,-9.26343362808912e+000

2.29432839682530e+005,-2.43485948745084e+001,-9.39222237468381e+000

2.32635602771247e+005,-2.43497981104049e+001,-9.52278694477679e+000

2.35883074766574e+005,-2.43510347739994e+001,-9.65515121133374e+000

2.39175879781588e+005,-2.43523057826717e+001,-9.78933934288688e+000

2.42514650641661e+005,-2.43536120783491e+001,-9.92537580614614e+000

2.45900029006080e+005,-2.43549546281288e+001,-1.00632853685886e+001

2.49332665491357e+005,-2.43563344249134e+001,-1.02030931010231e+001

2.52813219796278e+005,-2.43577524880612e+001,-1.03448243801286e+001

2.56342360828676e+005,-2.43592098640503e+001,-1.04885048909618e+001

2.59920766833993e+005,-2.43607076271569e+001,-1.06341606294340e+001

2.63549125525621e+005,-2.43622468801492e+001,-1.07818179047527e+001

2.67228134217075e+005,-2.43638287549948e+001,-1.09315033418235e+001

2.70958499956006e+005,-2.43654544135843e+001,-1.10832438836139e+001

2.74740939660078e+005,-2.43671250484691e+001,-1.12370667934708e+001

2.78576180254757e+005,-2.43688418836152e+001,-1.13929996573921e+001

2.82464958813007e+005,-2.43706061751719e+001,-1.15510703862464e+001

2.86408022696948e+005,-2.43724192122569e+001,-1.17113072179397e+001

2.90406129701488e+005,-2.43742823177562e+001,-1.18737387195239e+001

2.94460048199957e+005,-2.43761968491405e+001,-1.20383937892437e+001

2.98570557291775e+005,-2.43781641992978e+001,-1.22053016585181e+001

3.02738446952187e+005,-2.43801857973813e+001,-1.23744918938534e+001

3.06964518184081e+005,-2.43822631096745e+001,-1.25459943986817e+001

3.11249583171928e+005,-2.43843976404717e+001,-1.27198394151229e+001

3.15594465437872e+005,-2.43865909329756e+001,-1.28960575256636e+001

3.19999999999997e+005,-2.43888445702107e+001,-1.30746796547509e+001

3.24467033532806e+005,-2.43911601759532e+001,-1.32557370702934e+001

3.28996424529938e+005,-2.43935394156785e+001,-1.34392613850682e+001

3.33589043469155e+005,-2.43959839975227e+001,-1.36252845580255e+001

3.38245772979638e+005,-2.43984956732636e+001,-1.38138388954884e+001

3.42967508011610e+005,-2.44010762393152e+001,-1.40049570522411e+001

3.47755156008335e+005,-2.44037275377406e+001,-1.41986720325019e+001

3.52609637080511e+005,-2.44064514572800e+001,-1.43950171907727e+001

3.57531884183106e+005,-2.44092499343953e+001,-1.45940262325628e+001

3.62522843294651e+005,-2.44121249543304e+001,-1.47957332149788e+001

3.67583473599047e+005,-2.44150785521874e+001,-1.50001725471756e+001

3.72714747669902e+005,-2.44181128140181e+001,-1.52073789906634e+001

3.77917651657445e+005,-2.44212298779318e+001,-1.54173876594622e+001

3.83193185478053e+005,-2.44244319352167e+001,-1.56302340201005e+001

3.88542363006410e+005,-2.44277212314775e+001,-1.58459538914495e+001

3.93966212270369e+005,-2.44311000677864e+001,-1.60645834443874e+001

3.99465775648511e+005,-2.44345708018487e+001,-1.62861592012873e+001

4.05042110070485e+005,-2.44381358491823e+001,-1.65107180353212e+001

4.10696287220124e+005,-2.44417976843095e+001,-1.67382971695737e+001

4.16429393741414e+005,-2.44455588419624e+001,-1.69689341759595e+001

4.22242531447321e+005,-2.44494219183001e+001,-1.72026669739350e+001

4.28136817531551e+005,-2.44533895721374e+001,-1.74395338289996e+001

4.34113384783250e+005,-2.44574645261844e+001,-1.76795733509786e+001

4.40173381804713e+005,-2.44616495682965e+001,-1.79228244920795e+001

4.46317973232124e+005,-2.44659475527341e+001,-1.81693265447152e+001

4.52548339959385e+005,-2.44703614014303e+001,-1.84191191390874e+001

4.58865679365059e+005,-2.44748941052671e+001,-1.86722422405206e+001

4.65271205542494e+005,-2.44795487253580e+001,-1.89287361465418e+001

4.71766149533147e+005,-2.44843283943374e+001,-1.91886414836961e+001

4.78351759563174e+005,-2.44892363176537e+001,-1.94519992040921e+001

4.85029301283321e+005,-2.44942757748673e+001,-1.97188505816692e+001

4.91800058012158e+005,-2.44994501209507e+001,-1.99892372081795e+001

4.98665330982714e+005,-2.45047627875898e+001,-2.02632009888751e+001

5.05626439592555e+005,-2.45102172844864e+001,-2.05407841378973e+001

5.12684721657352e+005,-2.45158172006579e+001,-2.08220291733552e+001

5.19841533667984e+005,-2.45215662057354e+001,-2.11069789120908e+001

5.27098251051240e+005,-2.45274680512573e+001,-2.13956764641214e+001

5.34456268434150e+005,-2.45335265719569e+001,-2.16881652267513e+001

5.41916999912011e+005,-2.45397456870424e+001,-2.19844888783492e+001

