Freq.,VOut,OutRef

1.00000000000000e+004,-1.09338505056905e+001,-1.62378381355190e-001

1.01395947979003e+004,-1.09338504369306e+001,-1.64645098600144e-001

1.02811382665607e+004,-1.09338503662376e+001,-1.66943458016683e-001

1.04246576084112e+004,-1.09338502935570e+001,-1.69273901314033e-001

1.05701804056138e+004,-1.09338502188330e+001,-1.71636876365381e-001

1.07177346253629e+004,-1.09338501420081e+001,-1.74032837295434e-001

1.08673486252606e+004,-1.09338500630233e+001,-1.76462244569237e-001

1.10190511587661e+004,-1.09338499818178e+001,-1.78925565079140e-001

1.11728713807222e+004,-1.09338498983294e+001,-1.81423272234094e-001

1.13288388529580e+004,-1.09338498124935e+001,-1.83955846055585e-001

1.14869835499703e+004,-1.09338497242442e+001,-1.86523773261079e-001

1.16473358646846e+004,-1.09338496335141e+001,-1.89127547363027e-001

1.18099266142953e+004,-1.09338495402328e+001,-1.91767668766761e-001

1.19747870461893e+004,-1.09338494443289e+001,-1.94444644859012e-001

1.21419488439505e+004,-1.09338493457286e+001,-1.97158990110911e-001

1.23114441334492e+004,-1.09338492443563e+001,-1.99911226174137e-001

1.24833054890161e+004,-1.09338491401338e+001,-2.02701881983852e-001

1.26575659397028e+004,-1.09338490329809e+001,-2.05531493858995e-001

1.28342589756290e+004,-1.09338489228154e+001,-2.08400605603384e-001

1.30134185544193e+004,-1.09338488095527e+001,-2.11309768612337e-001

1.31950791077289e+004,-1.09338486931054e+001,-2.14259541980396e-001

1.33792755478611e+004,-1.09338485733839e+001,-2.17250492605122e-001

1.35660432744767e+004,-1.09338484502965e+001,-2.20283195296523e-001

1.37554181813974e+004,-1.09338483237486e+001,-2.23358232889288e-001

1.39474366635040e+004,-1.09338481936424e+001,-2.26476196356516e-001

1.41421356237309e+004,-1.09338480598784e+001,-2.29637684916818e-001

1.43395524801583e+004,-1.09338479223533e+001,-2.32843306157382e-001

1.45397251732031e+004,-1.09338477809615e+001,-2.36093676144588e-001

1.47426921729110e+004,-1.09338476355945e+001,-2.39389419543568e-001

1.49484924863494e+004,-1.09338474861402e+001,-2.42731169742923e-001

1.51571656651040e+004,-1.09338473324838e+001,-2.46119568970284e-001

1.53687518128801e+004,-1.09338471745071e+001,-2.49555268419183e-001

1.55832915932100e+004,-1.09338470120888e+001,-2.53038928372390e-001

1.58008262372675e+004,-1.09338468451038e+001,-2.56571218331122e-001

1.60213975517924e+004,-1.09338466734239e+001,-2.60152817141073e-001

1.62450479271247e+004,-1.09338464969168e+001,-2.63784413126269e-001

1.64718203453514e+004,-1.09338463154468e+001,-2.67466704217345e-001

1.67017583885674e+004,-1.09338461288746e+001,-2.71200398087069e-001

1.69349062472505e+004,-1.09338459370565e+001,-2.74986212288742e-001

1.71713087287550e+004,-1.09338457398453e+001,-2.78824874389612e-001

1.74110112659224e+004,-1.09338455370888e+001,-2.82717122117218e-001

1.76540599258131e+004,-1.09338453286315e+001,-2.86663703492346e-001

1.79005014185594e+004,-1.09338451143130e+001,-2.90665376981241e-001

1.81503831063432e+004,-1.09338448939683e+001,-2.94722911636902e-001

1.84037530124975e+004,-1.09338446674282e+001,-2.98837087246111e-001

1.86606598307361e+004,-1.09338444345183e+001,-3.03008694483094e-001

1.89211529345119e+004,-1.09338441950596e+001,-3.07238535057616e-001

1.91852823865052e+004,-1.09338439488678e+001,-3.11527421871881e-001

1.94530989482457e+004,-1.09338436957536e+001,-3.15876179174043e-001

1.97246540898671e+004,-1.09338434355224e+001,-3.20285642720100e-001

1.99999999999999e+004,-1.09338431679740e+001,-3.24756659930774e-001

2.02791895958005e+004,-1.09338428929026e+001,-3.29290090056342e-001

2.05622765331213e+004,-1.09338426100967e+001,-3.33886804343133e-001

2.08493152168224e+004,-1.09338423193387e+001,-3.38547686197283e-001

2.11403608112276e+004,-1.09338420204050e+001,-3.43273631357420e-001

2.14354692507258e+004,-1.09338417130658e+001,-3.48065548065223e-001

2.17346972505211e+004,-1.09338413970844e+001,-3.52924357242340e-001

2.20381023175322e+004,-1.09338410722181e+001,-3.57850992663881e-001

2.23457427614443e+004,-1.09338407382167e+001,-3.62846401140662e-001

2.26576777059159e+004,-1.09338403948235e+001,-3.67911542699058e-001

2.29739670999406e+004,-1.09338400417743e+001,-3.73047390767396e-001

2.32946717293690e+004,-1.09338396787975e+001,-3.78254932362920e-001

2.36198532285905e+004,-1.09338393056139e+001,-3.83535168279031e-001

2.39495740923785e+004,-1.09338389219364e+001,-3.88889113279626e-001

2.42838976879009e+004,-1.09338385274699e+001,-3.94317796294780e-001

2.46228882668982e+004,-1.09338381219109e+001,-3.99822260616031e-001

2.49666109780322e+004,-1.09338377049474e+001,-4.05403564099736e-001

2.53151318794055e+004,-1.09338372762586e+001,-4.11062779367706e-001

2.56685179512580e+004,-1.09338368355147e+001,-4.16800994014881e-001

2.60268371088386e+004,-1.09338363823768e+001,-4.22619310816954e-001

2.63901582154578e+004,-1.09338359164960e+001,-4.28518847945854e-001

2.67585510957221e+004,-1.09338354375140e+001,-4.34500739178955e-001

2.71320865489533e+004,-1.09338349450623e+001,-4.40566134121477e-001

2.75108363627948e+004,-1.09338344387619e+001,-4.46716198425945e-001

2.78948733270080e+004,-1.09338339182232e+001,-4.52952114016056e-001

2.82842712474618e+004,-1.09338333830459e+001,-4.59275079312864e-001

2.86791049603164e+004,-1.09338328328181e+001,-4.65686309466809e-001

2.90794503464061e+004,-1.09338322671164e+001,-4.72187036590765e-001

2.94853843458219e+004,-1.09338316855053e+001,-4.78778509996346e-001

2.98969849726987e+004,-1.09338310875375e+001,-4.85461996432545e-001

3.03143313302078e+004,-1.09338304727527e+001,-4.92238780333090e-001

3.07375036257601e+004,-1.09338298406778e+001,-4.99110164059438e-001

3.11665831864199e+004,-1.09338291908264e+001,-5.06077468152096e-001

3.16016524745350e+004,-1.09338285226983e+001,-5.13142031585314e-001

3.20427951035848e+004,-1.09338278357794e+001,-5.20305212023314e-001

3.24900958542493e+004,-1.09338271295408e+001,-5.27568386082172e-001

3.29436406907028e+004,-1.09338264034391e+001,-5.34932949592886e-001

3.34035167771346e+004,-1.09338256569153e+001,-5.42400317870350e-001

3.38698124945009e+004,-1.09338248893949e+001,-5.49971925986172e-001

3.43426174575100e+004,-1.09338241002870e+001,-5.57649229042916e-001

3.48220225318448e+004,-1.09338232889841e+001,-5.65433702454211e-001

3.53081198516260e+004,-1.09338224548616e+001,-5.73326842228828e-001

3.58010028371187e+004,-1.09338215972775e+001,-5.81330165256910e-001

3.63007662126863e+004,-1.09338207155716e+001,-5.89445209602301e-001

3.68075060249948e+004,-1.09338198090649e+001,-5.97673534798679e-001

3.73213196614721e+004,-1.09338188770595e+001,-6.06016722147527e-001

3.78423058690237e+004,-1.09338179188377e+001,-6.14476375022652e-001

3.83705647730104e+004,-1.09338169336617e+001,-6.23054119179723e-001

3.89061978964912e+004,-1.09338159207730e+001,-6.31751603064621e-001

3.94493081797342e+004,-1.09338148793915e+001,-6.40570498135343e-001

3.99999999999998e+004,-1.09338138087151e+001,-6.49512499179906e-001

4.05583791916010e+004,-1.09338127079193e+001,-6.58579324642108e-001

4.11245530662425e+004,-1.09338115761564e+001,-6.67772716952044e-001

4.16986304336447e+004,-1.09338104125544e+001,-6.77094442861964e-001

4.22807216224550e+004,-1.09338092162172e+001,-6.86546293783128e-001

4.28709385014515e+004,-1.09338079862232e+001,-6.96130086133512e-001

4.34693945010421e+004,-1.09338067216249e+001,-7.05847661683223e-001

4.40762046350642e+004,-1.09338054214478e+001,-7.15700887910742e-001

4.46914855228886e+004,-1.09338040846906e+001,-7.25691658359558e-001

4.53153554118317e+004,-1.09338027103229e+001,-7.35821893005219e-001

4.59479341998812e+004,-1.09338012972860e+001,-7.46093538620442e-001

4.65893434587380e+004,-1.09337998444908e+001,-7.56508569151215e-001

4.72397064571810e+004,-1.09337983508178e+001,-7.67068986095921e-001

4.78991481847569e+004,-1.09337968151157e+001,-7.77776818889001e-001

4.85677953758016e+004,-1.09337952362011e+001,-7.88634125290975e-001

4.92457765337964e+004,-1.09337936128567e+001,-7.99642991784830e-001

4.99332219560642e+004,-1.09337919438313e+001,-8.10805533974689e-001

5.06302637588109e+004,-1.09337902278381e+001,-8.22123896994981e-001

5.13370359025159e+004,-1.09337884635541e+001,-8.33600255919440e-001

5.20536742176771e+004,-1.09337866496190e+001,-8.45236816180886e-001

5.27803164309155e+004,-1.09337847846340e+001,-8.57035813994930e-001

5.35171021914442e+004,-1.09337828671609e+001,-8.68999516788184e-001

5.42641730979066e+004,-1.09337808957208e+001,-8.81130223634762e-001

5.50216727255895e+004,-1.09337788687931e+001,-8.93430265696890e-001

5.57897466540159e+004,-1.09337767848143e+001,-9.05902006674701e-001

5.65685424949235e+004,-1.09337746421767e+001,-9.18547843257489e-001

5.73582099206328e+004,-1.09337724392272e+001,-9.31370205585551e-001

5.81589006928121e+004,-1.09337701742659e+001,-9.44371557717378e-001

5.89707686916437e+004,-1.09337678455450e+001,-9.57554398101714e-001

5.97939699453972e+004,-1.09337654512672e+001,-9.70921260057661e-001

6.06286626604156e+004,-1.09337629895846e+001,-9.84474712261573e-001

6.14750072515201e+004,-1.09337604585968e+001,-9.98217359240152e-001

6.23331663728396e+004,-1.09337578563499e+001,-1.01215184187047e+000

6.32033049490698e+004,-1.09337551808346e+001,-1.02628083788758e+000

6.40855902071694e+004,-1.09337524299848e+001,-1.04060706239801e+000

6.49801917084985e+004,-1.09337496016760e+001,-1.05513326840133e+000

6.58872813814055e+004,-1.09337466937237e+001,-1.06986224731943e+000

6.68070335542691e+004,-1.09337437038813e+001,-1.08479682953190e+000

6.77396249890018e+004,-1.09337406298389e+001,-1.09993988491885e+000

6.86852349150199e+004,-1.09337374692212e+001,-1.11529432341383e+000

6.96440450636895e+004,-1.09337342195854e+001,-1.13086309556061e+000

7.06162397032520e+004,-1.09337308784200e+001,-1.14664919308055e+000

7.16020056742374e+004,-1.09337274431418e+001,-1.16265564944731e+000

7.26015324253724e+004,-1.09337239110949e+001,-1.17888554046877e+000

7.36150120499896e+004,-1.09337202795478e+001,-1.19534198487747e+000

7.46426393229441e+004,-1.09337165456919e+001,-1.21202814492904e+000

7.56846117380472e+004,-1.09337127066389e+001,-1.22894722701038e+000

7.67411295460207e+004,-1.09337087594185e+001,-1.24610248225411e+000

7.78123957929823e+004,-1.09337047009761e+001,-1.26349720716295e+000

7.88986163594682e+004,-1.09337005281709e+001,-1.28113474424301e+000

7.99999999999995e+004,-1.09336962377724e+001,-1.29901848264509e+000

8.11167583832018e+004,-1.09336918264591e+001,-1.31715185881354e+000

8.22491061324848e+004,-1.09336872908145e+001,-1.33553835714934e+000

8.33972608672892e+004,-1.09336826273255e+001,-1.35418151067620e+000

8.45614432449099e+004,-1.09336778323793e+001,-1.37308490171891e+000

8.57418770029029e+004,-1.09336729022604e+001,-1.39225216259153e+000

8.69387890020841e+004,-1.09336678331475e+001,-1.41168697629431e+000

8.81524092701283e+004,-1.09336626211109e+001,-1.43139307722098e+000

8.93829710457770e+004,-1.09336572621092e+001,-1.45137425187373e+000

9.06307108236633e+004,-1.09336517519860e+001,-1.47163433959139e+000

9.18958683997622e+004,-1.09336460864665e+001,-1.49217723328604e+000

9.31786869174758e+004,-1.09336402611545e+001,-1.51300688018860e+000

9.44794129143618e+004,-1.09336342715285e+001,-1.53412728260854e+000

9.57982963695136e+004,-1.09336281129384e+001,-1.55554249869903e+000

9.71355907516031e+004,-1.09336217806013e+001,-1.57725664323793e+000

9.84915530675926e+004,-1.09336152695983e+001,-1.59927388841557e+000

9.98664439121282e+004,-1.09336085748703e+001,-1.62159846463579e+000

1.01260527517622e+005,-1.09336016912137e+001,-1.64423466132819e+000

1.02674071805032e+005,-1.09335946132766e+001,-1.66718682776888e+000

1.04107348435354e+005,-1.09335873355542e+001,-1.69045937391746e+000

1.05560632861831e+005,-1.09335798523848e+001,-1.71405677126062e+000

1.07034204382888e+005,-1.09335721579448e+001,-1.73798355367124e+000

1.08528346195813e+005,-1.09335642462442e+001,-1.76224431827683e+000

1.10043345451179e+005,-1.09335561111216e+001,-1.78684372634246e+000

1.11579493308032e+005,-1.09335477462399e+001,-1.81178650416288e+000

1.13137084989847e+005,-1.09335391450800e+001,-1.83707744397108e+000

1.14716419841265e+005,-1.09335303009369e+001,-1.86272140485532e+000

1.16317801385624e+005,-1.09335212069128e+001,-1.88872331369247e+000

1.17941537383287e+005,-1.09335118559129e+001,-1.91508816609104e+000

1.19587939890794e+005,-1.09335022406386e+001,-1.94182102735016e+000

1.21257325320831e+005,-1.09334923535822e+001,-1.96892703343069e+000

1.22950014503040e+005,-1.09334821870205e+001,-1.99641139193928e+000

1.24666332745679e+005,-1.09334717330083e+001,-2.02427938312701e+000

1.26406609898139e+005,-1.09334609833726e+001,-2.05253636090150e+000

1.28171180414339e+005,-1.09334499297050e+001,-2.08118775385367e+000

1.29960383416997e+005,-1.09334385633555e+001,-2.11023906629713e+000

1.31774562762811e+005,-1.09334268754252e+001,-2.13969587932484e+000

1.33614067108538e+005,-1.09334148567589e+001,-2.16956385187679e+000

1.35479249978003e+005,-1.09334024979376e+001,-2.19984872182651e+000

1.37370469830040e+005,-1.09333897892707e+001,-2.23055630707959e+000

1.39288090127379e+005,-1.09333767207882e+001,-2.26169250668812e+000

1.41232479406504e+005,-1.09333632822320e+001,-2.29326330198295e+000

1.43204011348474e+005,-1.09333494630478e+001,-2.32527475771763e+000

1.45203064850745e+005,-1.09333352523763e+001,-2.35773302323177e+000

1.47230024099979e+005,-1.09333206390440e+001,-2.39064433362892e+000

1.49285278645888e+005,-1.09333056115538e+001,-2.42401501097096e+000

1.51369223476094e+005,-1.09332901580757e+001,-2.45785146548997e+000

1.53482259092041e+005,-1.09332742664366e+001,-2.49216019681535e+000

1.55624791585964e+005,-1.09332579241104e+001,-2.52694779521926e+000

1.57797232718936e+005,-1.09332411182069e+001,-2.56222094287986e+000

1.59999999999999e+005,-1.09332238354618e+001,-2.59798641515969e+000

1.62233516766403e+005,-1.09332060622247e+001,-2.63425108190533e+000

1.64498212264969e+005,-1.09331877844479e+001,-2.67102190876132e+000

1.66794521734578e+005,-1.09331689876745e+001,-2.70830595850625e+000

1.69122886489819e+005,-1.09331496570262e+001,-2.74611039240415e+000

1.71483754005805e+005,-1.09331297771902e+001,-2.78444247157668e+000

1.73877578004168e+005,-1.09331093324065e+001,-2.82330955839341e+000

1.76304818540256e+005,-1.09330883064546e+001,-2.86271911788253e+000

1.78765942091554e+005,-1.09330666826390e+001,-2.90267871915933e+000

1.81261421647326e+005,-1.09330444437753e+001,-2.94319603687732e+000

1.83791736799524e+005,-1.09330215721752e+001,-2.98427885269695e+000

1.86357373834951e+005,-1.09329980496313e+001,-3.02593505677610e+000

1.88958825828723e+005,-1.09329738574011e+001,-3.06817264928207e+000

1.91596592739027e+005,-1.09329489761911e+001,-3.11099974192220e+000

1.94271181503206e+005,-1.09329233861396e+001,-3.15442455949921e+000

1.96983106135185e+005,-1.09328970667999e+001,-3.19845544148449e+000

1.99732887824256e+005,-1.09328699971215e+001,-3.24310084361775e+000

2.02521055035243e+005,-1.09328421554326e+001,-3.28836933952466e+000

2.05348143610063e+005,-1.09328135194203e+001,-3.33426962236013e+000

2.08214696870707e+005,-1.09327840661113e+001,-3.38081050647315e+000

2.11121265723661e+005,-1.09327537718514e+001,-3.42800092909651e+000

2.14068408765776e+005,-1.09327226122845e+001,-3.47584995205726e+000

2.17056692391625e+005,-1.09326905623310e+001,-3.52436676351434e+000

2.20086690902357e+005,-1.09326575961652e+001,-3.57356067971955e+000

2.23158986616063e+005,-1.09326236871926e+001,-3.62344114680153e+000

2.26274169979693e+005,-1.09325888080252e+001,-3.67401774257813e+000

2.29432839682530e+005,-1.09325529304578e+001,-3.72530017839086e+000

2.32635602771247e+005,-1.09325160254419e+001,-3.77729830096789e+000

2.35883074766574e+005,-1.09324780630595e+001,-3.83002209431192e+000

2.39175879781588e+005,-1.09324390124957e+001,-3.88348168161530e+000

2.42514650641661e+005,-1.09323988420113e+001,-3.93768732720142e+000

2.45900029006080e+005,-1.09323575189126e+001,-3.99264943849508e+000

2.49332665491357e+005,-1.09323150095227e+001,-4.04837856801920e+000

2.52813219796278e+005,-1.09322712791494e+001,-4.10488541542128e+000

2.56342360828676e+005,-1.09322262920539e+001,-4.16218082952727e+000

2.59920766833993e+005,-1.09321800114172e+001,-4.22027581042675e+000

2.63549125525621e+005,-1.09321323993062e+001,-4.27918151158500e+000

2.67228134217075e+005,-1.09320834166384e+001,-4.33890924198845e+000

2.70958499956006e+005,-1.09320330231449e+001,-4.39947046831848e+000

2.74740939660078e+005,-1.09319811773331e+001,-4.46087681715793e+000

2.78576180254757e+005,-1.09319278364475e+001,-4.52314007722805e+000

2.82464958813007e+005,-1.09318729564292e+001,-4.58627220165958e+000

2.86408022696948e+005,-1.09318164918745e+001,-4.65028531029404e+000

2.90406129701488e+005,-1.09317583959914e+001,-4.71519169202177e+000

2.94460048199957e+005,-1.09316986205555e+001,-4.78100380715023e+000

2.98570557291775e+005,-1.09316371158634e+001,-4.84773428981034e+000

3.02738446952187e+005,-1.09315738306854e+001,-4.91539595039582e+000

3.06964518184081e+005,-1.09315087122161e+001,-4.98400177803851e+000

3.11249583171928e+005,-1.09314417060237e+001,-5.05356494312091e+000

3.15594465437872e+005,-1.09313727559973e+001,-5.12409879982559e+000

3.19999999999997e+005,-1.09313018042922e+001,-5.19561688872197e+000

3.24467033532806e+005,-1.09312287912740e+001,-5.26813293939189e+000

3.28996424529938e+005,-1.09311536554604e+001,-5.34166087309452e+000

3.33589043469155e+005,-1.09310763334611e+001,-5.41621480547078e+000

3.38245772979638e+005,-1.09309967599155e+001,-5.49180904928908e+000

3.42967508011610e+005,-1.09309148674285e+001,-5.56845811723190e+000

3.47755156008335e+005,-1.09308305865045e+001,-5.64617672472465e+000

3.52609637080511e+005,-1.09307438454783e+001,-5.72497979280944e+000

3.57531884183106e+005,-1.09306545704442e+001,-5.80488245105999e+000

3.62522843294651e+005,-1.09305626851829e+001,-5.88590004054399e+000

3.67583473599047e+005,-1.09304681110860e+001,-5.96804811682974e+000

3.72714747669902e+005,-1.09303707670768e+001,-6.05134245304125e+000

3.77917651657445e+005,-1.09302705695303e+001,-6.13579904295843e+000

3.83193185478053e+005,-1.09301674321893e+001,-6.22143410416949e+000

3.88542363006410e+005,-1.09300612660776e+001,-6.30826408127115e+000

3.93966212270369e+005,-1.09299519794115e+001,-6.39630564911965e+000

3.99465775648511e+005,-1.09298394775070e+001,-6.48557571613557e+000

4.05042110070485e+005,-1.09297236626848e+001,-6.57609142766085e+000

4.10696287220124e+005,-1.09296044341722e+001,-6.66787016936956e+000

4.16429393741414e+005,-1.09294816880010e+001,-6.76092957073660e+000

4.22242531447321e+005,-1.09293553169033e+001,-6.85528750856230e+000

4.28136817531551e+005,-1.09292252102025e+001,-6.95096211055460e+000

4.34113384783250e+005,-1.09290912537025e+001,-7.04797175897300e+000

4.40173381804713e+005,-1.09289533295715e+001,-7.14633509433260e+000

4.46317973232124e+005,-1.09288113162235e+001,-7.24607101917132e+000

4.52548339959385e+005,-1.09286650881955e+001,-7.34719870188112e+000

4.58865679365059e+005,-1.09285145160207e+001,-7.44973758060637e+000

4.65271205542494e+005,-1.09283594660983e+001,-7.55370736720811e+000

4.71766149533147e+005,-1.09281998005582e+001,-7.65912805129926e+000

4.78351759563174e+005,-1.09280353771229e+001,-7.76601990435037e+000

4.85029301283321e+005,-1.09278660489641e+001,-7.87440348386851e+000

4.91800058012158e+005,-1.09276916645555e+001,-7.98429963765069e+000

4.98665330982714e+005,-1.09275120675208e+001,-8.09572950811501e+000

5.05626439592555e+005,-1.09273270964774e+001,-8.20871453671012e+000

5.12684721657352e+005,-1.09271365848760e+001,-8.32327646840635e+000

5.19841533667984e+005,-1.09269403608339e+001,-8.43943735626932e+000

5.27098251051240e+005,-1.09267382469659e+001,-8.55721956612048e+000

5.34456268434150e+005,-1.09265300602077e+001,-8.67664578128383e+000

5.41916999912011e+005,-1.09263156116368e+001,-8.79773900742438e+000

