Freq.,VOut,OutRef

1.00000000000000e+004,-1.51445380569418e+001,-1.91748110388786e-001

1.01395947979003e+004,-1.51445382632176e+001,-1.94424810967401e-001

1.02811382665607e+004,-1.51445384752924e+001,-1.97138876754106e-001

1.04246576084112e+004,-1.51445386933293e+001,-1.99890829341569e-001

1.05701804056138e+004,-1.51445389174959e+001,-2.02681197603334e-001

1.07177346253629e+004,-1.51445391479647e+001,-2.05510517795391e-001

1.08673486252606e+004,-1.51445393849125e+001,-2.08379333661166e-001

1.10190511587661e+004,-1.51445396285215e+001,-2.11288196532304e-001

1.11728713807222e+004,-1.51445398789793e+001,-2.14237665435592e-001

1.13288388529580e+004,-1.51445401364783e+001,-2.17228307203233e-001

1.14869835499703e+004,-1.51445404012162e+001,-2.20260696579644e-001

1.16473358646846e+004,-1.51445406733966e+001,-2.23335416331081e-001

1.18099266142953e+004,-1.51445409532289e+001,-2.26453057358918e-001

1.19747870461893e+004,-1.51445412409281e+001,-2.29614218811975e-001

1.21419488439505e+004,-1.51445415367154e+001,-2.32819508204498e-001

1.23114441334492e+004,-1.51445418408181e+001,-2.36069541529268e-001

1.24833054890161e+004,-1.51445421534700e+001,-2.39364943378232e-001

1.26575659397028e+004,-1.51445424749115e+001,-2.42706347061663e-001

1.28342589756290e+004,-1.51445428053894e+001,-2.46094394731169e-001

1.30134185544193e+004,-1.51445431451581e+001,-2.49529737499099e-001

1.31950791077289e+004,-1.51445434944786e+001,-2.53013035569925e-001

1.33792755478611e+004,-1.51445438536194e+001,-2.56544958361385e-001

1.35660432744767e+004,-1.51445442228567e+001,-2.60126184636171e-001

1.37554181813974e+004,-1.51445446024742e+001,-2.63757402632079e-001

1.39474366635040e+004,-1.51445449927636e+001,-2.67439310193571e-001

1.41421356237309e+004,-1.51445453940252e+001,-2.71172614904602e-001

1.43395524801583e+004,-1.51445458065671e+001,-2.74958034228977e-001

1.45397251732031e+004,-1.51445462307068e+001,-2.78796295641197e-001

1.47426921729110e+004,-1.51445466667700e+001,-2.82688136774627e-001

1.49484924863494e+004,-1.51445471150920e+001,-2.86634305555602e-001

1.51571656651040e+004,-1.51445475760173e+001,-2.90635560352068e-001

1.53687518128801e+004,-1.51445480499004e+001,-2.94692670116656e-001

1.55832915932100e+004,-1.51445485371054e+001,-2.98806414536349e-001

1.58008262372675e+004,-1.51445490380069e+001,-3.02977584180566e-001

1.60213975517924e+004,-1.51445495529899e+001,-3.07206980653499e-001

1.62450479271247e+004,-1.51445500824499e+001,-3.11495416750623e-001

1.64718203453514e+004,-1.51445506267944e+001,-3.15843716608678e-001

1.67017583885674e+004,-1.51445511864415e+001,-3.20252715871661e-001

1.69349062472505e+004,-1.51445517618213e+001,-3.24723261845885e-001

1.71713087287550e+004,-1.51445523533763e+001,-3.29256213664896e-001

1.74110112659224e+004,-1.51445529615609e+001,-3.33852442454535e-001

1.76540599258131e+004,-1.51445535868428e+001,-3.38512831498954e-001

1.79005014185594e+004,-1.51445542297024e+001,-3.43238276412431e-001

1.81503831063432e+004,-1.51445548906340e+001,-3.48029685309114e-001

1.84037530124975e+004,-1.51445555701455e+001,-3.52887978979231e-001

1.86606598307361e+004,-1.51445562687592e+001,-3.57814091065966e-001

1.89211529345119e+004,-1.51445569870120e+001,-3.62808968243464e-001

1.91852823865052e+004,-1.51445577254558e+001,-3.67873570399970e-001

1.94530989482457e+004,-1.51445584846585e+001,-3.73008870820437e-001

1.97246540898671e+004,-1.51445592652034e+001,-3.78215856376239e-001

1.99999999999999e+004,-1.51445600676904e+001,-3.83495527712346e-001

2.02791895958005e+004,-1.51445608927363e+001,-3.88848899441009e-001

2.05622765331213e+004,-1.51445617409753e+001,-3.94277000335738e-001

2.08493152168224e+004,-1.51445626130591e+001,-3.99780873529667e-001

2.11403608112276e+004,-1.51445635096581e+001,-4.05361576714175e-001

2.14354692507258e+004,-1.51445644314613e+001,-4.11020182345679e-001

2.17346972505211e+004,-1.51445653791771e+001,-4.16757777847255e-001

2.20381023175322e+004,-1.51445663535340e+001,-4.22575465820464e-001

2.23457427614443e+004,-1.51445673552807e+001,-4.28474364256363e-001

2.26576777059159e+004,-1.51445683851871e+001,-4.34455606749517e-001

2.29739670999406e+004,-1.51445694440447e+001,-4.40520342716036e-001

2.32946717293690e+004,-1.51445705326672e+001,-4.46669737616674e-001

2.36198532285905e+004,-1.51445716518912e+001,-4.52904973175459e-001

2.39495740923785e+004,-1.51445728025768e+001,-4.59227247612946e-001

2.42838976879009e+004,-1.51445739856083e+001,-4.65637775870195e-001

2.46228882668982e+004,-1.51445752018948e+001,-4.72137789847373e-001

2.49666109780322e+004,-1.51445764523710e+001,-4.78728538636755e-001

2.53151318794055e+004,-1.51445777379978e+001,-4.85411288764076e-001

2.56685179512580e+004,-1.51445790597631e+001,-4.92187324431866e-001

2.60268371088386e+004,-1.51445804186827e+001,-4.99057947764716e-001

2.63901582154578e+004,-1.51445818158007e+001,-5.06024479061587e-001

2.67585510957221e+004,-1.51445832521907e+001,-5.13088257047530e-001

2.71320865489533e+004,-1.51445847289565e+001,-5.20250639131019e-001

2.75108363627948e+004,-1.51445862472328e+001,-5.27513001664600e-001

2.78948733270080e+004,-1.51445878081861e+001,-5.34876740209902e-001

2.82842712474618e+004,-1.51445894130160e+001,-5.42343269804877e-001

2.86791049603164e+004,-1.51445910629554e+001,-5.49914025235723e-001

2.90794503464061e+004,-1.51445927592721e+001,-5.57590461311915e-001

2.94853843458219e+004,-1.51445945032695e+001,-5.65374053145985e-001

2.98969849726987e+004,-1.51445962962874e+001,-5.73266296437507e-001

3.03143313302078e+004,-1.51445981397037e+001,-5.81268707757197e-001

3.07375036257601e+004,-1.51446000349342e+001,-5.89382824842738e-001

3.11665831864199e+004,-1.51446019834355e+001,-5.97610206889031e-001

3.16016524745350e+004,-1.51446039867043e+001,-6.05952434850639e-001

3.20427951035848e+004,-1.51446060462796e+001,-6.14411111745602e-001

3.24900958542493e+004,-1.51446081637437e+001,-6.22987862960521e-001

3.29436406907028e+004,-1.51446103407234e+001,-6.31684336563917e-001

3.34035167771346e+004,-1.51446125788909e+001,-6.40502203623756e-001

3.38698124945009e+004,-1.51446148799658e+001,-6.49443158525496e-001

3.43426174575100e+004,-1.51446172457155e+001,-6.58508919299972e-001

3.48220225318448e+004,-1.51446196779574e+001,-6.67701227951008e-001

3.53081198516260e+004,-1.51446221785597e+001,-6.77021850790883e-001

3.58010028371187e+004,-1.51446247494434e+001,-6.86472578778924e-001

3.63007662126863e+004,-1.51446273925829e+001,-6.96055227865264e-001

3.68075060249948e+004,-1.51446301100088e+001,-7.05771639338131e-001

3.73213196614721e+004,-1.51446329038079e+001,-7.15623680180150e-001

3.78423058690237e+004,-1.51446357761263e+001,-7.25613243421544e-001

3.83705647730104e+004,-1.51446387291697e+001,-7.35742248509947e-001

3.89061978964912e+004,-1.51446417652063e+001,-7.46012641671558e-001

3.94493081797342e+004,-1.51446448865677e+001,-7.56426396290148e-001

3.99999999999998e+004,-1.51446480956510e+001,-7.66985513281992e-001

4.05583791916010e+004,-1.51446513949207e+001,-7.77692021480945e-001

4.11245530662425e+004,-1.51446547869102e+001,-7.88547978028904e-001

4.16986304336447e+004,-1.51446582742244e+001,-7.99555468766732e-001

4.22807216224550e+004,-1.51446618595409e+001,-8.10716608639207e-001

4.28709385014515e+004,-1.51446655456128e+001,-8.22033542095187e-001

4.34693945010421e+004,-1.51446693352704e+001,-8.33508443503188e-001

4.40762046350642e+004,-1.51446732314234e+001,-8.45143517565965e-001

4.46914855228886e+004,-1.51446772370630e+001,-8.56940999744247e-001

4.53153554118317e+004,-1.51446813552646e+001,-8.68903156684291e-001

4.59479341998812e+004,-1.51446855891898e+001,-8.81032286653561e-001

4.65893434587380e+004,-1.51446899420889e+001,-8.93330719979519e-001

4.72397064571810e+004,-1.51446944173034e+001,-9.05800819498845e-001

4.78991481847569e+004,-1.51446990182685e+001,-9.18444981008480e-001

4.85677953758016e+004,-1.51447037485160e+001,-9.31265633723949e-001

4.92457765337964e+004,-1.51447086116765e+001,-9.44265240747599e-001

4.99332219560642e+004,-1.51447136114826e+001,-9.57446299537760e-001

5.06302637588109e+004,-1.51447187517716e+001,-9.70811342389924e-001

5.13370359025159e+004,-1.51447240364884e+001,-9.84362936918535e-001

5.20536742176771e+004,-1.51447294696885e+001,-9.98103686552016e-001

5.27803164309155e+004,-1.51447350555413e+001,-1.01203623102940e+000

5.35171021914442e+004,-1.51447407983330e+001,-1.02616324690748e+000

5.42641730979066e+004,-1.51447467024699e+001,-1.04048744807169e+000

5.50216727255895e+004,-1.51447527724822e+001,-1.05501158625655e+000

5.57897466540159e+004,-1.51447590130266e+001,-1.06973845157328e+000

5.65685424949235e+004,-1.51447654288909e+001,-1.08467087304266e+000

5.73582099206328e+004,-1.51447720249966e+001,-1.09981171913758e+000

5.81589006928121e+004,-1.51447788064036e+001,-1.11516389833110e+000

5.89707686916437e+004,-1.51447857783133e+001,-1.13073035965445e+000

5.97939699453972e+004,-1.51447929460731e+001,-1.14651409325962e+000

6.06286626604156e+004,-1.51448003151802e+001,-1.16251813099292e+000

6.14750072515201e+004,-1.51448078912856e+001,-1.17874554697509e+000

6.23331663728396e+004,-1.51448156801991e+001,-1.19519945818735e+000

6.32033049490698e+004,-1.51448236878928e+001,-1.21188302507030e+000

6.40855902071694e+004,-1.51448319205064e+001,-1.22879945212628e+000

6.49801917084985e+004,-1.51448403843514e+001,-1.24595198853318e+000

6.58872813814055e+004,-1.51448490859163e+001,-1.26334392876499e+000

6.68070335542691e+004,-1.51448580318711e+001,-1.28097861322242e+000

6.77396249890018e+004,-1.51448672290725e+001,-1.29885942887053e+000

6.86852349150199e+004,-1.51448766845695e+001,-1.31698980988582e+000

6.96440450636895e+004,-1.51448864056081e+001,-1.33537323831377e+000

7.06162397032520e+004,-1.51448963996374e+001,-1.35401324473208e+000

7.16020056742374e+004,-1.51449066743150e+001,-1.37291340892672e+000

7.26015324253724e+004,-1.51449172375124e+001,-1.39207736057502e+000

7.36150120499896e+004,-1.51449280973217e+001,-1.41150877993852e+000

7.46426393229441e+004,-1.51449392620614e+001,-1.43121139856579e+000

7.56846117380472e+004,-1.51449507402827e+001,-1.45118900000454e+000

7.67411295460207e+004,-1.51449625407758e+001,-1.47144542052369e+000

7.78123957929823e+004,-1.51449746725769e+001,-1.49198454984548e+000

7.88986163594682e+004,-1.51449871449748e+001,-1.51281033188705e+000

7.99999999999995e+004,-1.51449999675180e+001,-1.53392676551392e+000

8.11167583832018e+004,-1.51450131500220e+001,-1.55533790530074e+000

8.22491061324848e+004,-1.51450267025766e+001,-1.57704786230469e+000

8.33972608672892e+004,-1.51450406355535e+001,-1.59906080485071e+000

8.45614432449099e+004,-1.51450549596141e+001,-1.62138095932408e+000

8.57418770029029e+004,-1.51450696857178e+001,-1.64401261097523e+000

8.69387890020841e+004,-1.51450848251300e+001,-1.66696010473814e+000

8.81524092701283e+004,-1.51451003894309e+001,-1.69022784605488e+000

8.93829710457770e+004,-1.51451163905236e+001,-1.71382030171724e+000

9.06307108236633e+004,-1.51451328406439e+001,-1.73774200071403e+000

9.18958683997622e+004,-1.51451497523689e+001,-1.76199753509497e+000

9.31786869174758e+004,-1.51451671386265e+001,-1.78659156084298e+000

9.44794129143618e+004,-1.51451850127054e+001,-1.81152879876052e+000

9.57982963695136e+004,-1.51452033882650e+001,-1.83681403536565e+000

9.71355907516031e+004,-1.51452222793455e+001,-1.86245212380349e+000

9.84915530675926e+004,-1.51452417003786e+001,-1.88844798476644e+000

9.98664439121282e+004,-1.51452616661982e+001,-1.91480660743086e+000

1.01260527517622e+005,-1.51452821920515e+001,-1.94153305040211e+000

1.02674071805032e+005,-1.51453032936106e+001,-1.96863244267719e+000

1.04107348435354e+005,-1.51453249869839e+001,-1.99610998461616e+000

1.05560632861831e+005,-1.51453472887285e+001,-2.02397094892846e+000

1.07034204382888e+005,-1.51453702158625e+001,-2.05222068167429e+000

1.08528346195813e+005,-1.51453937858774e+001,-2.08086460327692e+000

1.10043345451179e+005,-1.51454180167512e+001,-2.10990820954957e+000

1.11579493308032e+005,-1.51454429269624e+001,-2.13935707273659e+000

1.13137084989847e+005,-1.51454685355030e+001,-2.16921684256855e+000

1.14716419841265e+005,-1.51454948618928e+001,-2.19949324733166e+000

1.16317801385624e+005,-1.51455219261943e+001,-2.23019209495056e+000

1.17941537383287e+005,-1.51455497490272e+001,-2.26131927408777e+000

1.19587939890794e+005,-1.51455783515837e+001,-2.29288075525584e+000

1.21257325320831e+005,-1.51456077556445e+001,-2.32488259194523e+000

1.22950014503040e+005,-1.51456379835946e+001,-2.35733092176848e+000

1.24666332745679e+005,-1.51456690584401e+001,-2.39023196761777e+000

1.26406609898139e+005,-1.51457010038249e+001,-2.42359203883875e+000

1.28171180414339e+005,-1.51457338440484e+001,-2.45741753242145e+000

1.29960383416997e+005,-1.51457676040833e+001,-2.49171493420485e+000

1.31774562762811e+005,-1.51458023095942e+001,-2.52649082009904e+000

1.33614067108538e+005,-1.51458379869559e+001,-2.56175185732308e+000

1.35479249978003e+005,-1.51458746632735e+001,-2.59750480565972e+000

1.37370469830040e+005,-1.51459123664016e+001,-2.63375651872741e+000

1.39288090127379e+005,-1.51459511249652e+001,-2.67051394526711e+000

1.41232479406504e+005,-1.51459909683805e+001,-2.70778413044785e+000

1.43204011348474e+005,-1.51460319268761e+001,-2.74557421719086e+000

1.45203064850745e+005,-1.51460740315155e+001,-2.78389144750790e+000

1.47230024099979e+005,-1.51461173142194e+001,-2.82274316386000e+000

1.49285278645888e+005,-1.51461618077890e+001,-2.86213681053326e+000

1.51369223476094e+005,-1.51462075459301e+001,-2.90207993503247e+000

1.53482259092041e+005,-1.51462545632768e+001,-2.94258018949386e+000

1.55624791585964e+005,-1.51463028954175e+001,-2.98364533211537e+000

1.57797232718936e+005,-1.51463525789198e+001,-3.02528322860795e+000

1.59999999999999e+005,-1.51464036513575e+001,-3.06750185366206e+000

1.62233516766403e+005,-1.51464561513374e+001,-3.11030929243742e+000

1.64498212264969e+005,-1.51465101185269e+001,-3.15371374206966e+000

1.66794521734578e+005,-1.51465655936827e+001,-3.19772351319768e+000

1.69122886489819e+005,-1.51466226186799e+001,-3.24234703151087e+000

1.71483754005805e+005,-1.51466812365420e+001,-3.28759283931592e+000

1.73877578004168e+005,-1.51467414914715e+001,-3.33346959712475e+000

1.76304818540256e+005,-1.51468034288815e+001,-3.37998608526201e+000

1.78765942091554e+005,-1.51468670954278e+001,-3.42715120549499e+000

1.81261421647326e+005,-1.51469325390422e+001,-3.47497398268282e+000

1.83791736799524e+005,-1.51469998089659e+001,-3.52346356644895e+000

1.86357373834951e+005,-1.51470689557852e+001,-3.57262923287176e+000

1.88958825828723e+005,-1.51471400314662e+001,-3.62248038620163e+000

1.91596592739027e+005,-1.51472130893918e+001,-3.67302656059663e+000

1.94271181503206e+005,-1.51472881843989e+001,-3.72427742188033e+000

1.96983106135185e+005,-1.51473653728169e+001,-3.77624276932511e+000

1.99732887824256e+005,-1.51474447125071e+001,-3.82893253745421e+000

2.02521055035243e+005,-1.51475262629025e+001,-3.88235679787044e+000

2.05348143610063e+005,-1.51476100850494e+001,-3.93652576110530e+000

2.08214696870707e+005,-1.51476962416496e+001,-3.99144977849338e+000

2.11121265723661e+005,-1.51477847971036e+001,-4.04713934406898e+000

2.14068408765776e+005,-1.51478758175548e+001,-4.10360509648871e+000

2.17056692391625e+005,-1.51479693709352e+001,-4.16085782097547e+000

2.20086690902357e+005,-1.51480655270113e+001,-4.21890845129006e+000

2.23158986616063e+005,-1.51481643574323e+001,-4.27776807172504e+000

2.26274169979693e+005,-1.51482659357784e+001,-4.33744791912425e+000

2.29432839682530e+005,-1.51483703376107e+001,-4.39795938492866e+000

2.32635602771247e+005,-1.51484776405221e+001,-4.45931401724618e+000

2.35883074766574e+005,-1.51485879241900e+001,-4.52152352294817e+000

2.39175879781588e+005,-1.51487012704292e+001,-4.58459976979097e+000

2.42514650641661e+005,-1.51488177632466e+001,-4.64855478856563e+000

2.45900029006080e+005,-1.51489374888975e+001,-4.71340077527156e+000

2.49332665491357e+005,-1.51490605359426e+001,-4.77915009331957e+000

2.52813219796278e+005,-1.51491869953063e+001,-4.84581527575976e+000

2.56342360828676e+005,-1.51493169603370e+001,-4.91340902753857e+000

2.59920766833993e+005,-1.51494505268679e+001,-4.98194422778238e+000

2.63549125525621e+005,-1.51495877932796e+001,-5.05143393210908e+000

2.67228134217075e+005,-1.51497288605644e+001,-5.12189137496837e+000

2.70958499956006e+005,-1.51498738323913e+001,-5.19332997201031e+000

2.74740939660078e+005,-1.51500228151732e+001,-5.26576332248163e+000

2.78576180254757e+005,-1.51501759181348e+001,-5.33920521165367e+000

2.82464958813007e+005,-1.51503332533825e+001,-5.41366961327591e+000

2.86408022696948e+005,-1.51504949359761e+001,-5.48917069206268e+000

2.90406129701488e+005,-1.51506610840010e+001,-5.56572280620748e+000

2.94460048199957e+005,-1.51508318186429e+001,-5.64334050992849e+000

2.98570557291775e+005,-1.51510072642639e+001,-5.72203855604457e+000

3.02738446952187e+005,-1.51511875484798e+001,-5.80183189858178e+000

3.06964518184081e+005,-1.51513728022394e+001,-5.88273569541100e+000

3.11249583171928e+005,-1.51515631599054e+001,-5.96476531091810e+000

3.15594465437872e+005,-1.51517587593369e+001,-6.04793631870364e+000

3.19999999999997e+005,-1.51519597419734e+001,-6.13226450431760e+000

3.24467033532806e+005,-1.51521662529211e+001,-6.21776586802388e+000

3.28996424529938e+005,-1.51523784410402e+001,-6.30445662759956e+000

3.33589043469155e+005,-1.51525964590347e+001,-6.39235322116624e+000

3.38245772979638e+005,-1.51528204635431e+001,-6.48147231005559e+000

3.42967508011610e+005,-1.51530506152320e+001,-6.57183078170774e+000

3.47755156008335e+005,-1.51532870788904e+001,-6.66344575260531e+000

3.52609637080511e+005,-1.51535300235270e+001,-6.75633457124124e+000

3.57531884183106e+005,-1.51537796224683e+001,-6.85051482112139e+000

3.62522843294651e+005,-1.51540360534591e+001,-6.94600432380352e+000

3.67583473599047e+005,-1.51542994987653e+001,-7.04282114197141e+000

3.72714747669902e+005,-1.51545701452777e+001,-7.14098358254522e+000

3.77917651657445e+005,-1.51548481846190e+001,-7.24051019982928e+000

3.83193185478053e+005,-1.51551338132514e+001,-7.34141979869589e+000

3.88542363006410e+005,-1.51554272325875e+001,-7.44373143780781e+000

3.93966212270369e+005,-1.51557286491026e+001,-7.54746443287825e+000

3.99465775648511e+005,-1.51560382744486e+001,-7.65263835996973e+000

4.05042110070485e+005,-1.51563563255716e+001,-7.75927305883178e+000

4.10696287220124e+005,-1.51566830248297e+001,-7.86738863627833e+000

4.16429393741414e+005,-1.51570186001143e+001,-7.97700546960494e+000

4.22242531447321e+005,-1.51573632849729e+001,-8.08814421004794e+000

4.28136817531551e+005,-1.51577173187348e+001,-8.20082578628254e+000

4.34113384783250e+005,-1.51580809466381e+001,-8.31507140796562e+000

4.40173381804713e+005,-1.51584544199599e+001,-8.43090256931776e+000

4.46317973232124e+005,-1.51588379961485e+001,-8.54834105275191e+000

4.52548339959385e+005,-1.51592319389575e+001,-8.66740893254216e+000

4.58865679365059e+005,-1.51596365185832e+001,-8.78812857853967e+000

4.65271205542494e+005,-1.51600520118037e+001,-8.91052265993236e+000

4.71766149533147e+005,-1.51604787021212e+001,-9.03461414905016e+000

4.78351759563174e+005,-1.51609168799058e+001,-9.16042632521749e+000

4.85029301283321e+005,-1.51613668425433e+001,-9.28798277865254e+000

4.91800058012158e+005,-1.51618288945844e+001,-9.41730741441450e+000

4.98665330982714e+005,-1.51623033478975e+001,-9.54842445639957e+000

5.05626439592555e+005,-1.51627905218240e+001,-9.68135845138663e+000

5.12684721657352e+005,-1.51632907433363e+001,-9.81613427313317e+000

5.19841533667984e+005,-1.51638043471991e+001,-9.95277712652259e+000

5.27098251051240e+005,-1.51643316761331e+001,-1.00913125517636e+001

5.34456268434150e+005,-1.51648730809832e+001,-1.02317664286425e+001

5.41916999912011e+005,-1.51654289208882e+001,-1.03741649808287e+001

