Freq.,VOut,OutRef

1.00000000000000e+004,-2.14415269649235e+001,-3.40701742457514e-001

1.01395947979003e+004,-2.14415284284815e+001,-3.45457735491757e-001

1.02811382665607e+004,-2.14415299331850e+001,-3.50280118607732e-001

1.04246576084112e+004,-2.14415314801906e+001,-3.55169818529964e-001

1.05701804056138e+004,-2.14415330706874e+001,-3.60127774917408e-001

1.07177346253629e+004,-2.14415347058983e+001,-3.65154940543020e-001

1.08673486252606e+004,-2.14415363870802e+001,-3.70252281479250e-001

1.10190511587661e+004,-2.14415381155255e+001,-3.75420777281120e-001

1.11728713807222e+004,-2.14415398925629e+001,-3.80661421175454e-001

1.13288388529580e+004,-2.14415417195583e+001,-3.85975220252435e-001

1.14869835499703e+004,-2.14415435979163e+001,-3.91363195656779e-001

1.16473358646846e+004,-2.14415455290808e+001,-3.96826382786367e-001

1.18099266142953e+004,-2.14415475145364e+001,-4.02365831488923e-001

1.19747870461893e+004,-2.14415495558091e+001,-4.07982606266315e-001

1.21419488439505e+004,-2.14415516544683e+001,-4.13677786474484e-001

1.23114441334492e+004,-2.14415538121271e+001,-4.19452466536428e-001

1.24833054890161e+004,-2.14415560304442e+001,-4.25307756147410e-001

1.26575659397028e+004,-2.14415583111247e+001,-4.31244780491142e-001

1.28342589756290e+004,-2.14415606559219e+001,-4.37264680453863e-001

1.30134185544193e+004,-2.14415630666383e+001,-4.43368612844797e-001

1.31950791077289e+004,-2.14415655451269e+001,-4.49557750617482e-001

1.33792755478611e+004,-2.14415680932930e+001,-4.55833283095539e-001

1.35660432744767e+004,-2.14415707130953e+001,-4.62196416200698e-001

1.37554181813974e+004,-2.14415734065475e+001,-4.68648372684724e-001

1.39474366635040e+004,-2.14415761757204e+001,-4.75190392362154e-001

1.41421356237309e+004,-2.14415790227423e+001,-4.81823732352193e-001

1.43395524801583e+004,-2.14415819498018e+001,-4.88549667315329e-001

1.45397251732031e+004,-2.14415849591489e+001,-4.95369489702669e-001

1.47426921729110e+004,-2.14415880530968e+001,-5.02284510001019e-001

1.49484924863494e+004,-2.14415912340237e+001,-5.09296056984701e-001

1.51571656651040e+004,-2.14415945043748e+001,-5.16405477972098e-001

1.53687518128801e+004,-2.14415978666639e+001,-5.23614139082429e-001

1.55832915932100e+004,-2.14416013234756e+001,-5.30923425498915e-001

1.58008262372675e+004,-2.14416048774668e+001,-5.38334741735986e-001

1.60213975517924e+004,-2.14416085313695e+001,-5.45849511905906e-001

1.62450479271247e+004,-2.14416122879923e+001,-5.53469179993573e-001

1.64718203453514e+004,-2.14416161502227e+001,-5.61195210134223e-001

1.67017583885674e+004,-2.14416201210296e+001,-5.69029086893598e-001

1.69349062472505e+004,-2.14416242034650e+001,-5.76972315553248e-001

1.71713087287550e+004,-2.14416284006669e+001,-5.85026422398853e-001

1.74110112659224e+004,-2.14416327158614e+001,-5.93192955013109e-001

1.76540599258131e+004,-2.14416371523655e+001,-6.01473482573502e-001

1.79005014185594e+004,-2.14416417135893e+001,-6.09869596151522e-001

1.81503831063432e+004,-2.14416464030384e+001,-6.18382909021017e-001

1.84037530124975e+004,-2.14416512243176e+001,-6.27015056964052e-001

1.86606598307361e+004,-2.14416561811325e+001,-6.35767698586808e-001

1.89211529345119e+004,-2.14416612772930e+001,-6.44642515637925e-001

1.91852823865052e+004,-2.14416665167162e+001,-6.53641213330125e-001

1.94530989482457e+004,-2.14416719034292e+001,-6.62765520667030e-001

1.97246540898671e+004,-2.14416774415721e+001,-6.72017190776362e-001

1.99999999999999e+004,-2.14416831354019e+001,-6.81398001243697e-001

2.02791895958005e+004,-2.14416889892944e+001,-6.90909754456457e-001

2.05622765331213e+004,-2.14416950077493e+001,-7.00554277946117e-001

2.08493152168224e+004,-2.14417011953922e+001,-7.10333424740493e-001

2.11403608112276e+004,-2.14417075569786e+001,-7.20249073720411e-001

2.14354692507258e+004,-2.14417140973982e+001,-7.30303129976287e-001

2.17346972505211e+004,-2.14417208216777e+001,-7.40497525175942e-001

2.20381023175322e+004,-2.14417277349852e+001,-7.50834217934716e-001

2.23457427614443e+004,-2.14417348426339e+001,-7.61315194189566e-001

2.26576777059159e+004,-2.14417421500866e+001,-7.71942467580550e-001

2.29739670999406e+004,-2.14417496629593e+001,-7.82718079837792e-001

2.32946717293690e+004,-2.14417573870260e+001,-7.93644101170118e-001

2.36198532285905e+004,-2.14417653282230e+001,-8.04722630664098e-001

2.39495740923785e+004,-2.14417734926535e+001,-8.15955796683928e-001

2.42838976879009e+004,-2.14417818865918e+001,-8.27345757282442e-001

2.46228882668982e+004,-2.14417905164889e+001,-8.38894700610953e-001

2.49666109780322e+004,-2.14417993889771e+001,-8.50604845340684e-001

2.53151318794055e+004,-2.14418085108748e+001,-8.62478441086914e-001

2.56685179512580e+004,-2.14418178891921e+001,-8.74517768839794e-001

2.60268371088386e+004,-2.14418275311363e+001,-8.86725141401174e-001

2.63901582154578e+004,-2.14418374441168e+001,-8.99102903827243e-001

2.67585510957221e+004,-2.14418476357517e+001,-9.11653433877753e-001

2.71320865489533e+004,-2.14418581138728e+001,-9.24379142471116e-001

2.75108363627948e+004,-2.14418688865321e+001,-9.37282474145208e-001

2.78948733270080e+004,-2.14418799620076e+001,-9.50365907526886e-001

2.82842712474618e+004,-2.14418913488104e+001,-9.63631955803707e-001

2.86791049603164e+004,-2.14419030556903e+001,-9.77083167207509e-001

2.90794503464061e+004,-2.14419150916430e+001,-9.90722125499975e-001

2.94853843458219e+004,-2.14419274659171e+001,-1.00455145046772e+000

2.98969849726987e+004,-2.14419401880209e+001,-1.01857379842279e+000

3.03143313302078e+004,-2.14419532677300e+001,-1.03279186271139e+000

3.07375036257601e+004,-2.14419667150944e+001,-1.04720837422822e+000

3.11665831864199e+004,-2.14419805404466e+001,-1.06182610193881e+000

3.16016524745350e+004,-2.14419947544094e+001,-1.07664785340863e+000

3.20427951035848e+004,-2.14420093679039e+001,-1.09167647533987e+000

3.24900958542493e+004,-2.14420243921582e+001,-1.10691485411551e+000

3.29436406907028e+004,-2.14420398387156e+001,-1.12236591635058e+000

3.34035167771346e+004,-2.14420557194437e+001,-1.13803262945105e+000

3.38698124945009e+004,-2.14420720465435e+001,-1.15391800218098e+000

3.43426174575100e+004,-2.14420888325588e+001,-1.17002508523713e+000

3.48220225318448e+004,-2.14421060903857e+001,-1.18635697183057e+000

3.53081198516260e+004,-2.14421238332824e+001,-1.20291679827803e+000

3.58010028371187e+004,-2.14421420748797e+001,-1.21970774460040e+000

3.63007662126863e+004,-2.14421608291910e+001,-1.23673303512948e+000

3.68075060249948e+004,-2.14421801106235e+001,-1.25399593912218e+000

3.73213196614721e+004,-2.14421999339889e+001,-1.27149977138568e+000

3.78423058690237e+004,-2.14422203145150e+001,-1.28924789290838e+000

3.83705647730104e+004,-2.14422412678571e+001,-1.30724371150125e+000

3.89061978964912e+004,-2.14422628101102e+001,-1.32549068244743e+000

3.94493081797342e+004,-2.14422849578213e+001,-1.34399230916010e+000

3.99999999999998e+004,-2.14423077280020e+001,-1.36275214385032e+000

4.05583791916010e+004,-2.14423311381419e+001,-1.38177378820393e+000

4.11245530662425e+004,-2.14423552062211e+001,-1.40106089406772e+000

4.16986304336447e+004,-2.14423799507250e+001,-1.42061716414348e+000

4.22807216224550e+004,-2.14424053906578e+001,-1.44044635269362e+000

4.28709385014515e+004,-2.14424315455575e+001,-1.46055226625494e+000

4.34693945010421e+004,-2.14424584355103e+001,-1.48093876436421e+000

4.40762046350642e+004,-2.14424860811667e+001,-1.50160976028957e+000

4.46914855228886e+004,-2.14425145037566e+001,-1.52256922177693e+000

4.53153554118317e+004,-2.14425437251059e+001,-1.54382117180351e+000

4.59479341998812e+004,-2.14425737676532e+001,-1.56536968934063e+000

4.65893434587380e+004,-2.14426046544671e+001,-1.58721891013013e+000

4.72397064571810e+004,-2.14426364092633e+001,-1.60937302746945e+000

4.78991481847569e+004,-2.14426690564236e+001,-1.63183629300685e+000

4.85677953758016e+004,-2.14427026210137e+001,-1.65461301754838e+000

4.92457765337964e+004,-2.14427371288030e+001,-1.67770757187612e+000

4.99332219560642e+004,-2.14427726062838e+001,-1.70112438757553e+000

5.06302637588109e+004,-2.14428090806921e+001,-1.72486795787728e+000

5.13370359025159e+004,-2.14428465800278e+001,-1.74894283850703e+000

5.20536742176771e+004,-2.14428851330769e+001,-1.77335364854802e+000

5.27803164309155e+004,-2.14429247694325e+001,-1.79810507131679e+000

5.35171021914442e+004,-2.14429655195183e+001,-1.82320185524853e+000

5.42641730979066e+004,-2.14430074146113e+001,-1.84864881479532e+000

5.50216727255895e+004,-2.14430504868660e+001,-1.87445083133588e+000

5.57897466540159e+004,-2.14430947693388e+001,-1.90061285409849e+000

5.65685424949235e+004,-2.14431402960132e+001,-1.92713990109621e+000

5.73582099206328e+004,-2.14431871018258e+001,-1.95403706007270e+000

5.81589006928121e+004,-2.14432352226932e+001,-1.98130948946393e+000

5.89707686916437e+004,-2.14432846955390e+001,-2.00896241936987e+000

5.97939699453972e+004,-2.14433355583221e+001,-2.03700115254018e+000

6.06286626604156e+004,-2.14433878500657e+001,-2.06543106537451e+000

6.14750072515201e+004,-2.14434416108874e+001,-2.09425760893286e+000

6.23331663728396e+004,-2.14434968820291e+001,-2.12348630996309e+000

6.32033049490698e+004,-2.14435537058889e+001,-2.15312277193892e+000

6.40855902071694e+004,-2.14436121260532e+001,-2.18317267611408e+000

6.49801917084985e+004,-2.14436721873303e+001,-2.21364178258806e+000

6.58872813814055e+004,-2.14437339357840e+001,-2.24453593138879e+000

6.68070335542691e+004,-2.14437974187689e+001,-2.27586104356708e+000

6.77396249890018e+004,-2.14438626849666e+001,-2.30762312230701e+000

6.86852349150199e+004,-2.14439297844225e+001,-2.33982825404987e+000

6.96440450636895e+004,-2.14439987685842e+001,-2.37248260963379e+000

7.06162397032520e+004,-2.14440696903401e+001,-2.40559244544838e+000

7.16020056742374e+004,-2.14441426040602e+001,-2.43916410460291e+000

7.26015324253724e+004,-2.14442175656372e+001,-2.47320401811143e+000

7.36150120499896e+004,-2.14442946325287e+001,-2.50771870609304e+000

7.46426393229441e+004,-2.14443738638013e+001,-2.54271477898744e+000

7.56846117380472e+004,-2.14444553201751e+001,-2.57819893878579e+000

7.67411295460207e+004,-2.14445390640703e+001,-2.61417798027834e+000

7.78123957929823e+004,-2.14446251596537e+001,-2.65065879231826e+000

7.88986163594682e+004,-2.14447136728884e+001,-2.68764835910046e+000

7.99999999999995e+004,-2.14448046715830e+001,-2.72515376145920e+000

8.11167583832018e+004,-2.14448982254435e+001,-2.76318217817948e+000

8.22491061324848e+004,-2.14449944061259e+001,-2.80174088732762e+000

8.33972608672892e+004,-2.14450932872905e+001,-2.84083726759773e+000

8.45614432449099e+004,-2.14451949446578e+001,-2.88047879967514e+000

8.57418770029029e+004,-2.14452994560655e+001,-2.92067306761813e+000

8.69387890020841e+004,-2.14454069015279e+001,-2.96142776025587e+000

8.81524092701283e+004,-2.14455173632957e+001,-3.00275067260522e+000

8.93829710457770e+004,-2.14456309259189e+001,-3.04464970730413e+000

9.06307108236633e+004,-2.14457476763103e+001,-3.08713287606466e+000

9.18958683997622e+004,-2.14458677038108e+001,-3.13020830114257e+000

9.31786869174758e+004,-2.14459911002575e+001,-3.17388421682586e+000

9.44794129143618e+004,-2.14461179600527e+001,-3.21816897094244e+000

9.57982963695136e+004,-2.14462483802347e+001,-3.26307102638459e+000

9.71355907516031e+004,-2.14463824605515e+001,-3.30859896265552e+000

9.84915530675926e+004,-2.14465203035356e+001,-3.35476147743096e+000

9.98664439121282e+004,-2.14466620145810e+001,-3.40156738814309e+000

1.01260527517622e+005,-2.14468077020230e+001,-3.44902563358144e+000

1.02674071805032e+005,-2.14469574772191e+001,-3.49714527551563e+000

1.04107348435354e+005,-2.14471114546330e+001,-3.54593550033496e+000

1.05560632861831e+005,-2.14472697519203e+001,-3.59540562071062e+000

1.07034204382888e+005,-2.14474324900170e+001,-3.64556507727464e+000

1.08528346195813e+005,-2.14475997932298e+001,-3.69642344032244e+000

1.10043345451179e+005,-2.14477717893297e+001,-3.74799041153258e+000

1.11579493308032e+005,-2.14479486096476e+001,-3.80027582570757e+000

1.13137084989847e+005,-2.14481303891720e+001,-3.85328965253674e+000

1.14716419841265e+005,-2.14483172666504e+001,-3.90704199837749e+000

1.16317801385624e+005,-2.14485093846930e+001,-3.96154310805850e+000

1.17941537383287e+005,-2.14487068898788e+001,-4.01680336670322e+000

1.19587939890794e+005,-2.14489099328652e+001,-4.07283330157442e+000

1.21257325320831e+005,-2.14491186684999e+001,-4.12964358394058e+000

1.22950014503040e+005,-2.14493332559367e+001,-4.18724503096147e+000

1.24666332745679e+005,-2.14495538587534e+001,-4.24564860759705e+000

1.26406609898139e+005,-2.14497806450735e+001,-4.30486542853616e+000

1.28171180414339e+005,-2.14500137876912e+001,-4.36490676014759e+000

1.29960383416997e+005,-2.14502534641992e+001,-4.42578402245219e+000

1.31774562762811e+005,-2.14504998571205e+001,-4.48750879111616e+000

1.33614067108538e+005,-2.14507531540436e+001,-4.55009279946654e+000

1.35479249978003e+005,-2.14510135477610e+001,-4.61354794052829e+000

1.37370469830040e+005,-2.14512812364114e+001,-4.67788626908269e+000

1.39288090127379e+005,-2.14515564236265e+001,-4.74312000374742e+000

1.41232479406504e+005,-2.14518393186803e+001,-4.80926152907883e+000

1.43204011348474e+005,-2.14521301366438e+001,-4.87632339769523e+000

1.45203064850745e+005,-2.14524290985426e+001,-4.94431833242307e+000

1.47230024099979e+005,-2.14527364315193e+001,-5.01325922846333e+000

1.49285278645888e+005,-2.14530523690002e+001,-5.08315915558090e+000

1.51369223476094e+005,-2.14533771508662e+001,-5.15403136031478e+000

1.53482259092041e+005,-2.14537110236279e+001,-5.22588926821034e+000

1.55624791585964e+005,-2.14540542406061e+001,-5.29874648607293e+000

1.57797232718936e+005,-2.14544070621162e+001,-5.37261680424249e+000

1.59999999999999e+005,-2.14547697556577e+001,-5.44751419889093e+000

1.62233516766403e+005,-2.14551425961091e+001,-5.52345283433880e+000

1.64498212264969e+005,-2.14555258659269e+001,-5.60044706539469e+000

1.66794521734578e+005,-2.14559198553505e+001,-5.67851143971465e+000

1.69122886489819e+005,-2.14563248626124e+001,-5.75766070018250e+000

1.71483754005805e+005,-2.14567411941533e+001,-5.83790978731110e+000

1.73877578004168e+005,-2.14571691648433e+001,-5.91927384166441e+000

1.76304818540256e+005,-2.14576090982084e+001,-6.00176820629759e+000

1.78765942091554e+005,-2.14580613266631e+001,-6.08540842921999e+000

1.81261421647326e+005,-2.14585261917484e+001,-6.17021026587589e+000

1.83791736799524e+005,-2.14590040443767e+001,-6.25618968164452e+000

1.86357373834951e+005,-2.14594952450823e+001,-6.34336285435987e+000

1.88958825828723e+005,-2.14600001642780e+001,-6.43174617684933e+000

1.91596592739027e+005,-2.14605191825192e+001,-6.52135625948930e+000

1.94271181503206e+005,-2.14610526907738e+001,-6.61220993277988e+000

1.96983106135185e+005,-2.14616010906987e+001,-6.70432424993692e+000

1.99732887824256e+005,-2.14621647949241e+001,-6.79771648950058e+000

2.02521055035243e+005,-2.14627442273443e+001,-6.89240415796038e+000

2.05348143610063e+005,-2.14633398234155e+001,-6.98840499239653e+000

2.08214696870707e+005,-2.14639520304616e+001,-7.08573696313705e+000

2.11121265723661e+005,-2.14645813079869e+001,-7.18441827642827e+000

2.14068408765776e+005,-2.14652281279970e+001,-7.28446737712138e+000

2.17056692391625e+005,-2.14658929753275e+001,-7.38590295137115e+000

2.20086690902357e+005,-2.14665763479800e+001,-7.48874392934749e+000

2.23158986616063e+005,-2.14672787574671e+001,-7.59300948796025e+000

2.26274169979693e+005,-2.14680007291654e+001,-7.69871905359395e+000

2.29432839682530e+005,-2.14687428026769e+001,-7.80589230485365e+000

2.32635602771247e+005,-2.14695055321994e+001,-7.91454917531983e+000

2.35883074766574e+005,-2.14702894869050e+001,-8.02470985631331e+000

2.39175879781588e+005,-2.14710952513280e+001,-8.13639479966550e+000

2.42514650641661e+005,-2.14719234257629e+001,-8.24962472049767e+000

2.45900029006080e+005,-2.14727746266693e+001,-8.36442060000432e+000

2.49332665491357e+005,-2.14736494870890e+001,-8.48080368824185e+000

2.52813219796278e+005,-2.14745486570708e+001,-8.59879550691971e+000

2.56342360828676e+005,-2.14754728041062e+001,-8.71841785219462e+000

2.59920766833993e+005,-2.14764226135743e+001,-8.83969279746488e+000

2.63549125525621e+005,-2.14773987891974e+001,-8.96264269616454e+000

2.67228134217075e+005,-2.14784020535070e+001,-9.08729018455522e+000

2.70958499956006e+005,-2.14794331483196e+001,-9.21365818451521e+000

2.74740939660078e+005,-2.14804928352235e+001,-9.34176990632320e+000

2.78576180254757e+005,-2.14815818960771e+001,-9.47164885143545e+000

2.82464958813007e+005,-2.14827011335165e+001,-9.60331881525540e+000

2.86408022696948e+005,-2.14838513714763e+001,-9.73680388989313e+000

2.90406129701488e+005,-2.14850334557195e+001,-9.87212846691290e+000

2.94460048199957e+005,-2.14862482543810e+001,-1.00093172400678e+001

2.98570557291775e+005,-2.14874966585205e+001,-1.01483952080189e+001

3.02738446952187e+005,-2.14887795826893e+001,-1.02893876770365e+001

3.06964518184081e+005,-2.14900979655070e+001,-1.04323202636834e+001

3.11249583171928e+005,-2.14914527702515e+001,-1.05772188974743e+001

3.15594465437872e+005,-2.14928449854608e+001,-1.07241098235140e+001

3.19999999999997e+005,-2.14942756255467e+001,-1.08730196051074e+001

3.24467033532806e+005,-2.14957457314213e+001,-1.10239751263429e+001

3.28996424529938e+005,-2.14972563711361e+001,-1.11770035946427e+001

3.33589043469155e+005,-2.14988086405332e+001,-1.13321325432825e+001

3.38245772979638e+005,-2.15004036639096e+001,-1.14893898338725e+001

3.42967508011610e+005,-2.15020425946947e+001,-1.16488036588016e+001

3.47755156008335e+005,-2.15037266161395e+001,-1.18104025436385e+001

3.52609637080511e+005,-2.15054569420203e+001,-1.19742153494900e+001

3.57531884183106e+005,-2.15072348173542e+001,-1.21402712753112e+001

3.62522843294651e+005,-2.15090615191289e+001,-1.23085998601646e+001

3.67583473599047e+005,-2.15109383570443e+001,-1.24792309854273e+001

3.72714747669902e+005,-2.15128666742686e+001,-1.26521948769403e+001

3.77917651657445e+005,-2.15148478482071e+001,-1.28275221070979e+001

3.83193185478053e+005,-2.15168832912841e+001,-1.30052435968745e+001

3.88542363006410e+005,-2.15189744517385e+001,-1.31853906177834e+001

3.93966212270369e+005,-2.15211228144323e+001,-1.33679947937659e+001

3.99465775648511e+005,-2.15233299016727e+001,-1.35530881030063e+001

4.05042110070485e+005,-2.15255972740472e+001,-1.37407028796683e+001

4.10696287220124e+005,-2.15279265312718e+001,-1.39308718155505e+001

4.16429393741414e+005,-2.15303193130525e+001,-1.41236279616563e+001

4.22242531447321e+005,-2.15327772999596e+001,-1.43190047296728e+001

4.28136817531551e+005,-2.15353022143154e+001,-1.45170358933583e+001

4.34113384783250e+005,-2.15378958210937e+001,-1.47177555898295e+001

4.40173381804713e+005,-2.15405599288333e+001,-1.49211983207480e+001

4.46317973232124e+005,-2.15432963905628e+001,-1.51273989533995e+001

4.52548339959385e+005,-2.15461071047383e+001,-1.53363927216628e+001

4.58865679365059e+005,-2.15489940161930e+001,-1.55482152268621e+001

4.65271205542494e+005,-2.15519591170992e+001,-1.57629024384999e+001

4.71766149533147e+005,-2.15550044479409e+001,-1.59804906948651e+001

4.78351759563174e+005,-2.15581320984991e+001,-1.62010167035114e+001

4.85029301283321e+005,-2.15613442088469e+001,-1.64245175416004e+001

4.91800058012158e+005,-2.15646429703563e+001,-1.66510306561073e+001

4.98665330982714e+005,-2.15680306267146e+001,-1.68805938638799e+001

5.05626439592555e+005,-2.15715094749517e+001,-1.71132453515500e+001

5.12684721657352e+005,-2.15750818664766e+001,-1.73490236752890e+001

5.19841533667984e+005,-2.15787502081225e+001,-1.75879677604047e+001

5.27098251051240e+005,-2.15825169632017e+001,-1.78301169007725e+001

5.34456268434150e+005,-2.15863846525682e+001,-1.80755107580958e+001

5.41916999912011e+005,-2.15903558556876e+001,-1.83241893609922e+001

