Freq.,VOut,OutRef

1.00000000000000e+004,-3.35079685470066e+001,-7.81886813943968e-002

1.01395947979003e+004,-3.35079687229954e+001,-7.92801504571070e-002

1.02811382665607e+004,-3.35079689039317e+001,-8.03868556794093e-002

1.04246576084112e+004,-3.35079690899546e+001,-8.15090097428739e-002

1.05701804056138e+004,-3.35079692812071e+001,-8.26468282963720e-002

1.07177346253629e+004,-3.35079694778361e+001,-8.38005300005117e-002

1.08673486252606e+004,-3.35079696799928e+001,-8.49703365674388e-002

1.10190511587661e+004,-3.35079698878325e+001,-8.61564728033912e-002

1.11728713807222e+004,-3.35079701015154e+001,-8.73591666508019e-002

1.13288388529580e+004,-3.35079703212051e+001,-8.85786492380825e-002

1.14869835499703e+004,-3.35079705470709e+001,-8.98151549157855e-002

1.16473358646846e+004,-3.35079707792863e+001,-9.10689213060960e-002

1.18099266142953e+004,-3.35079710180298e+001,-9.23401893495976e-002

1.19747870461893e+004,-3.35079712634847e+001,-9.36292033491167e-002

1.21419488439505e+004,-3.35079715158401e+001,-9.49362110145938e-002

1.23114441334492e+004,-3.35079717752897e+001,-9.62614635168687e-002

1.24833054890161e+004,-3.35079720420327e+001,-9.76052155325561e-002

1.26575659397028e+004,-3.35079723162745e+001,-9.89677252896040e-002

1.28342589756290e+004,-3.35079725982258e+001,-1.00349254621950e-001

1.30134185544193e+004,-3.35079728881032e+001,-1.01750069019668e-001

1.31950791077289e+004,-3.35079731861295e+001,-1.03170437675305e-001

1.33792755478611e+004,-3.35079734925340e+001,-1.04610633540196e-001

1.35660432744767e+004,-3.35079738075519e+001,-1.06070933374913e-001

1.37554181813974e+004,-3.35079741314256e+001,-1.07551617802719e-001

1.39474366635040e+004,-3.35079744644037e+001,-1.09052971364942e-001

1.41421356237309e+004,-3.35079748067422e+001,-1.10575282572045e-001

1.43395524801583e+004,-3.35079751587045e+001,-1.12118843960356e-001

1.45397251732031e+004,-3.35079755205611e+001,-1.13683952151231e-001

1.47426921729110e+004,-3.35079758925896e+001,-1.15270907906514e-001

1.49484924863494e+004,-3.35079762750763e+001,-1.16880016183810e-001

1.51571656651040e+004,-3.35079766683152e+001,-1.18511586196142e-001

1.53687518128801e+004,-3.35079770726086e+001,-1.20165931473035e-001

1.55832915932100e+004,-3.35079774882668e+001,-1.21843369921514e-001

1.58008262372675e+004,-3.35079779156097e+001,-1.23544223881032e-001

1.60213975517924e+004,-3.35079783549655e+001,-1.25268820194059e-001

1.62450479271247e+004,-3.35079788066718e+001,-1.27017490261979e-001

1.64718203453514e+004,-3.35079792710759e+001,-1.28790570111748e-001

1.67017583885674e+004,-3.35079797485346e+001,-1.30588400458766e-001

1.69349062472505e+004,-3.35079802394149e+001,-1.32411326775298e-001

1.71713087287550e+004,-3.35079807440940e+001,-1.34259699353489e-001

1.74110112659224e+004,-3.35079812629597e+001,-1.36133873374022e-001

1.76540599258131e+004,-3.35079817964108e+001,-1.38034208974091e-001

1.79005014185594e+004,-3.35079823448572e+001,-1.39961071317116e-001

1.81503831063432e+004,-3.35079829087204e+001,-1.41914830662602e-001

1.84037530124975e+004,-3.35079834884336e+001,-1.43895862436028e-001

1.86606598307361e+004,-3.35079840844425e+001,-1.45904547301851e-001

1.89211529345119e+004,-3.35079846972049e+001,-1.47941271238113e-001

1.91852823865052e+004,-3.35079853271917e+001,-1.50006425607055e-001

1.94530989482457e+004,-3.35079859748870e+001,-1.52100407233703e-001

1.97246540898671e+004,-3.35079866407886e+001,-1.54223618478009e-001

1.99999999999999e+004,-3.35079873254080e+001,-1.56376467317963e-001

2.02791895958005e+004,-3.35079880292712e+001,-1.58559367422249e-001

2.05622765331213e+004,-3.35079887529192e+001,-1.60772738231134e-001

2.08493152168224e+004,-3.35079894969081e+001,-1.63017005038323e-001

2.11403608112276e+004,-3.35079902618093e+001,-1.65292599073051e-001

2.14354692507258e+004,-3.35079910482107e+001,-1.67599957579950e-001

2.17346972505211e+004,-3.35079918567164e+001,-1.69939523904498e-001

2.20381023175322e+004,-3.35079926879475e+001,-1.72311747580272e-001

2.23457427614443e+004,-3.35079935425430e+001,-1.74717084408850e-001

2.26576777059159e+004,-3.35079944211590e+001,-1.77155996556441e-001

2.29739670999406e+004,-3.35079953244709e+001,-1.79628952633379e-001

2.32946717293690e+004,-3.35079962531724e+001,-1.82136427790499e-001

2.36198532285905e+004,-3.35079972079772e+001,-1.84678903806311e-001

2.39495740923785e+004,-3.35079981896186e+001,-1.87256869182392e-001

2.42838976879009e+004,-3.35079991988509e+001,-1.89870819234795e-001

2.46228882668982e+004,-3.35080002364492e+001,-1.92521256189625e-001

2.49666109780322e+004,-3.35080013032107e+001,-1.95208689279416e-001

2.53151318794055e+004,-3.35080023999548e+001,-1.97933634842063e-001

2.56685179512580e+004,-3.35080035275240e+001,-2.00696616417160e-001

2.60268371088386e+004,-3.35080046867846e+001,-2.03498164847655e-001

2.63901582154578e+004,-3.35080058786267e+001,-2.06338818383941e-001

2.67585510957221e+004,-3.35080071039658e+001,-2.09219122783193e-001

2.71320865489533e+004,-3.35080083637432e+001,-2.12139631415129e-001

2.75108363627948e+004,-3.35080096589265e+001,-2.15100905368731e-001

2.78948733270080e+004,-3.35080109905102e+001,-2.18103513561217e-001

2.82842712474618e+004,-3.35080123595172e+001,-2.21148032843303e-001

2.86791049603164e+004,-3.35080137669990e+001,-2.24235048111682e-001

2.90794503464061e+004,-3.35080152140361e+001,-2.27365152423331e-001

2.94853843458219e+004,-3.35080167017402e+001,-2.30538947104204e-001

2.98969849726987e+004,-3.35080182312535e+001,-2.33757041869258e-001

3.03143313302078e+004,-3.35080198037505e+001,-2.37020054936911e-001

3.07375036257601e+004,-3.35080214204388e+001,-2.40328613145251e-001

3.11665831864199e+004,-3.35080230825596e+001,-2.43683352078081e-001

3.16016524745350e+004,-3.35080247913893e+001,-2.47084916179372e-001

3.20427951035848e+004,-3.35080265482399e+001,-2.50533958882127e-001

3.24900958542493e+004,-3.35080283544603e+001,-2.54031142731037e-001

3.29436406907028e+004,-3.35080302114372e+001,-2.57577139510106e-001

3.34035167771346e+004,-3.35080321205961e+001,-2.61172630370515e-001

3.38698124945009e+004,-3.35080340834027e+001,-2.64818305961170e-001

3.43426174575100e+004,-3.35080361013637e+001,-2.68514866561795e-001

3.48220225318448e+004,-3.35080381760284e+001,-2.72263022213916e-001

3.53081198516260e+004,-3.35080403089890e+001,-2.76063492860889e-001

3.58010028371187e+004,-3.35080425018828e+001,-2.79917008483704e-001

3.63007662126863e+004,-3.35080447563930e+001,-2.83824309237522e-001

3.68075060249948e+004,-3.35080470742496e+001,-2.87786145599771e-001

3.73213196614721e+004,-3.35080494572317e+001,-2.91803278507467e-001

3.78423058690237e+004,-3.35080519071681e+001,-2.95876479504787e-001

3.83705647730104e+004,-3.35080544259387e+001,-3.00006530892404e-001

3.89061978964912e+004,-3.35080570154761e+001,-3.04194225874601e-001

3.94493081797342e+004,-3.35080596777675e+001,-3.08440368710565e-001

3.99999999999998e+004,-3.35080624148555e+001,-3.12745774870732e-001

4.05583791916010e+004,-3.35080652288399e+001,-3.17111271189342e-001

4.11245530662425e+004,-3.35080681218797e+001,-3.21537696024298e-001

4.16986304336447e+004,-3.35080710961942e+001,-3.26025899416136e-001

4.22807216224550e+004,-3.35080741540648e+001,-3.30576743252022e-001

4.28709385014515e+004,-3.35080772978371e+001,-3.35191101427506e-001

4.34693945010421e+004,-3.35080805299223e+001,-3.39869860015807e-001

4.40762046350642e+004,-3.35080838527990e+001,-3.44613917435934e-001

4.46914855228886e+004,-3.35080872690158e+001,-3.49424184621925e-001

4.53153554118317e+004,-3.35080907811921e+001,-3.54301585201554e-001

4.59479341998812e+004,-3.35080943920211e+001,-3.59247055666158e-001

4.65893434587380e+004,-3.35080981042711e+001,-3.64261545555727e-001

4.72397064571810e+004,-3.35081019207882e+001,-3.69346017633033e-001

4.78991481847569e+004,-3.35081058444984e+001,-3.74501448072374e-001

4.85677953758016e+004,-3.35081098784090e+001,-3.79728826643577e-001

4.92457765337964e+004,-3.35081140256121e+001,-3.85029156899935e-001

4.99332219560642e+004,-3.35081182892860e+001,-3.90403456370336e-001

5.06302637588109e+004,-3.35081226726985e+001,-3.95852756750383e-001

5.13370359025159e+004,-3.35081271792082e+001,-4.01378104103611e-001

5.20536742176771e+004,-3.35081318122681e+001,-4.06980559055779e-001

5.27803164309155e+004,-3.35081365754278e+001,-4.12661196997516e-001

5.35171021914442e+004,-3.35081414723362e+001,-4.18421108290750e-001

5.42641730979066e+004,-3.35081465067442e+001,-4.24261398474367e-001

5.50216727255895e+004,-3.35081516825077e+001,-4.30183188474111e-001

5.57897466540159e+004,-3.35081570035904e+001,-4.36187614817061e-001

5.65685424949235e+004,-3.35081624740670e+001,-4.42275829843544e-001

5.73582099206328e+004,-3.35081680981260e+001,-4.48449001931288e-001

5.81589006928121e+004,-3.35081738800731e+001,-4.54708315712503e-001

5.89707686916437e+004,-3.35081798243341e+001,-4.61054972300993e-001

5.97939699453972e+004,-3.35081859354588e+001,-4.67490189519580e-001

6.06286626604156e+004,-3.35081922181241e+001,-4.74015202129103e-001

6.14750072515201e+004,-3.35081986771374e+001,-4.80631262065205e-001

6.23331663728396e+004,-3.35082053174404e+001,-4.87339638673619e-001

6.32033049490698e+004,-3.35082121441132e+001,-4.94141618949283e-001

6.40855902071694e+004,-3.35082191623771e+001,-5.01038507783523e-001

6.49801917084985e+004,-3.35082263775998e+001,-5.08031628206609e-001

6.58872813814055e+004,-3.35082337952985e+001,-5.15122321641049e-001

6.68070335542691e+004,-3.35082414211446e+001,-5.22311948153045e-001

6.77396249890018e+004,-3.35082492609672e+001,-5.29601886711489e-001

6.86852349150199e+004,-3.35082573207587e+001,-5.36993535444684e-001

6.96440450636895e+004,-3.35082656066783e+001,-5.44488311908517e-001

7.06162397032520e+004,-3.35082741250569e+001,-5.52087653350053e-001

7.16020056742374e+004,-3.35082828824021e+001,-5.59793016980656e-001

7.26015324253724e+004,-3.35082918854025e+001,-5.67605880250464e-001

7.36150120499896e+004,-3.35083011409336e+001,-5.75527741124472e-001

7.46426393229441e+004,-3.35083106560619e+001,-5.83560118366665e-001

7.56846117380472e+004,-3.35083204380510e+001,-5.91704551824953e-001

7.67411295460207e+004,-3.35083304943668e+001,-5.99962602719579e-001

7.78123957929823e+004,-3.35083408326828e+001,-6.08335853937847e-001

7.88986163594682e+004,-3.35083514608861e+001,-6.16825910330728e-001

7.99999999999995e+004,-3.35083623870833e+001,-6.25434399012385e-001

8.11167583832018e+004,-3.35083736196064e+001,-6.34162969668325e-001

8.22491061324848e+004,-3.35083851670190e+001,-6.43013294861354e-001

8.33972608672892e+004,-3.35083970381227e+001,-6.51987070346019e-001

8.45614432449099e+004,-3.35084092419638e+001,-6.61086015387029e-001

8.57418770029029e+004,-3.35084217878398e+001,-6.70311873077241e-001

8.69387890020841e+004,-3.35084346853062e+001,-6.79666410667184e-001

8.81524092701283e+004,-3.35084479441840e+001,-6.89151419891167e-001

8.93829710457770e+004,-3.35084615745665e+001,-6.98768717305075e-001

9.06307108236633e+004,-3.35084755868270e+001,-7.08520144622233e-001

9.18958683997622e+004,-3.35084899916264e+001,-7.18407569056001e-001

9.31786869174758e+004,-3.35085047999212e+001,-7.28432883669411e-001

9.44794129143618e+004,-3.35085200229712e+001,-7.38598007725545e-001

9.57982963695136e+004,-3.35085356723481e+001,-7.48904887043259e-001

9.71355907516031e+004,-3.35085517599442e+001,-7.59355494358767e-001

9.84915530675926e+004,-3.35085682979803e+001,-7.69951829692194e-001

9.98664439121282e+004,-3.35085852990156e+001,-7.80695920716224e-001

1.01260527517622e+005,-3.35086027759564e+001,-7.91589823131787e-001

1.02674071805032e+005,-3.35086207420654e+001,-8.02635621047761e-001

1.04107348435354e+005,-3.35086392109720e+001,-8.13835427365138e-001

1.05560632861831e+005,-3.35086581966812e+001,-8.25191384168334e-001

1.07034204382888e+005,-3.35086777135850e+001,-8.36705663116354e-001

1.08528346195813e+005,-3.35086977764719e+001,-8.48380465845351e-001

1.10043345451179e+005,-3.35087184005381e+001,-8.60218024370762e-001

1.11579493308032e+005,-3.35087396013981e+001,-8.72220601499236e-001

1.13137084989847e+005,-3.35087613950967e+001,-8.84390491239957e-001

1.14716419841265e+005,-3.35087837981197e+001,-8.96730019227382e-001

1.16317801385624e+005,-3.35088068274064e+001,-9.09241543144693e-001

1.17941537383287e+005,-3.35088305003616e+001,-9.21927453154447e-001

1.19587939890794e+005,-3.35088548348677e+001,-9.34790172334901e-001

1.21257325320831e+005,-3.35088798492982e+001,-9.47832157119685e-001

1.22950014503040e+005,-3.35089055625304e+001,-9.61055897744424e-001

1.24666332745679e+005,-3.35089319939587e+001,-9.74463918700412e-001

1.26406609898139e+005,-3.35089591635089e+001,-9.88058779188611e-001

1.28171180414339e+005,-3.35089870916520e+001,-1.00184307358562e+000

1.29960383416997e+005,-3.35090157994185e+001,-1.01581943191108e+000

1.31774562762811e+005,-3.35090453084139e+001,-1.02999052030121e+000

1.33614067108538e+005,-3.35090756408331e+001,-1.04435904148924e+000

1.35479249978003e+005,-3.35091068194769e+001,-1.05892773529103e+000

1.37370469830040e+005,-3.35091388677672e+001,-1.07369937909664e+000

1.39288090127379e+005,-3.35091718097639e+001,-1.08867678836648e+000

1.41232479406504e+005,-3.35092056701813e+001,-1.10386281713558e+000

1.43204011348474e+005,-3.35092404744058e+001,-1.11926035852116e+000

1.45203064850745e+005,-3.35092762485128e+001,-1.13487234523924e+000

1.47230024099979e+005,-3.35093130192857e+001,-1.15070175012341e+000

1.49285278645888e+005,-3.35093508142331e+001,-1.16675158665444e+000

1.51369223476094e+005,-3.35093896616089e+001,-1.18302490949047e+000

1.53482259092041e+005,-3.35094295904310e+001,-1.19952481500775e+000

1.55624791585964e+005,-3.35094706305014e+001,-1.21625444184514e+000

1.57797232718936e+005,-3.35095128124261e+001,-1.23321697145614e+000

1.59999999999999e+005,-3.35095561676366e+001,-1.25041562866543e+000

1.62233516766403e+005,-3.35096007284102e+001,-1.26785368223420e+000

1.64498212264969e+005,-3.35096465278925e+001,-1.28553444542917e+000

1.66794521734578e+005,-3.35096936001190e+001,-1.30346127659933e+000

1.69122886489819e+005,-3.35097419800387e+001,-1.32163757975864e+000

1.71483754005805e+005,-3.35097917035363e+001,-1.34006680517554e+000

1.73877578004168e+005,-3.35098428074570e+001,-1.35875244996797e+000

1.76304818540256e+005,-3.35098953296300e+001,-1.37769805870613e+000

1.78765942091554e+005,-3.35099493088937e+001,-1.39690722402014e+000

1.81261421647326e+005,-3.35100047851214e+001,-1.41638358721535e+000

1.83791736799524e+005,-3.35100617992466e+001,-1.43613083889435e+000

1.86357373834951e+005,-3.35101203932901e+001,-1.45615271958387e+000

1.88958825828723e+005,-3.35101806103866e+001,-1.47645302036983e+000

1.91596592739027e+005,-3.35102424948131e+001,-1.49703558353840e+000

1.94271181503206e+005,-3.35103060920163e+001,-1.51790430322428e+000

1.96983106135185e+005,-3.35103714486420e+001,-1.53906312606368e+000

1.99732887824256e+005,-3.35104386125642e+001,-1.56051605185689e+000

2.02521055035243e+005,-3.35105076329156e+001,-1.58226713423454e+000

2.05348143610063e+005,-3.35105785601180e+001,-1.60432048133209e+000

2.08214696870707e+005,-3.35106514459131e+001,-1.62668025647173e+000

2.11121265723661e+005,-3.35107263433956e+001,-1.64935067884797e+000

2.14068408765776e+005,-3.35108033070442e+001,-1.67233602422416e+000

2.17056692391625e+005,-3.35108823927561e+001,-1.69564062563226e+000

2.20086690902357e+005,-3.35109636578798e+001,-1.71926887408060e+000

2.23158986616063e+005,-3.35110471612501e+001,-1.74322521926762e+000

2.26274169979693e+005,-3.35111329632231e+001,-1.76751417030493e+000

2.29432839682530e+005,-3.35112211257113e+001,-1.79214029644352e+000

2.32635602771247e+005,-3.35113117122209e+001,-1.81710822780822e+000

2.35883074766574e+005,-3.35114047878879e+001,-1.84242265614075e+000

2.39175879781588e+005,-3.35115004195162e+001,-1.86808833554646e+000

2.42514650641661e+005,-3.35115986756156e+001,-1.89411008324914e+000

2.45900029006080e+005,-3.35116996264413e+001,-1.92049278035309e+000

2.49332665491357e+005,-3.35118033440322e+001,-1.94724137261233e+000

2.52813219796278e+005,-3.35119099022527e+001,-1.97436087120376e+000

2.56342360828676e+005,-3.35120193768319e+001,-2.00185635351157e+000

2.59920766833993e+005,-3.35121318454064e+001,-2.02973296391434e+000

2.63549125525621e+005,-3.35122473875614e+001,-2.05799591458121e+000

2.67228134217075e+005,-3.35123660848738e+001,-2.08665048627475e+000

2.70958499956006e+005,-3.35124880209553e+001,-2.11570202915957e+000

2.74740939660078e+005,-3.35126132814964e+001,-2.14515596361933e+000

2.78576180254757e+005,-3.35127419543109e+001,-2.17501778107877e+000

2.82464958813007e+005,-3.35128741293808e+001,-2.20529304483489e+000

2.86408022696948e+005,-3.35130098989017e+001,-2.23598739089368e+000

2.90406129701488e+005,-3.35131493573295e+001,-2.26710652881300e+000

2.94460048199957e+005,-3.35132926014264e+001,-2.29865624255506e+000

2.98570557291775e+005,-3.35134397303087e+001,-2.33064239134415e+000

3.02738446952187e+005,-3.35135908454940e+001,-2.36307091053095e+000

3.06964518184081e+005,-3.35137460509496e+001,-2.39594781246684e+000

3.11249583171928e+005,-3.35139054531410e+001,-2.42927918738152e+000

3.15594465437872e+005,-3.35140691610813e+001,-2.46307120427169e+000

3.19999999999997e+005,-3.35142372863800e+001,-2.49733011179534e+000

3.24467033532806e+005,-3.35144099432935e+001,-2.53206223917330e+000

3.28996424529938e+005,-3.35145872487749e+001,-2.56727399709943e+000

3.33589043469155e+005,-3.35147693225246e+001,-2.60297187865882e+000

3.38245772979638e+005,-3.35149562870414e+001,-2.63916246025215e+000

3.42967508011610e+005,-3.35151482676733e+001,-2.67585240253064e+000

3.47755156008335e+005,-3.35153453926687e+001,-2.71304845133722e+000

3.52609637080511e+005,-3.35155477932284e+001,-2.75075743865700e+000

3.57531884183106e+005,-3.35157556035570e+001,-2.78898628357725e+000

3.62522843294651e+005,-3.35159689609147e+001,-2.82774199325406e+000

3.67583473599047e+005,-3.35161880056693e+001,-2.86703166389100e+000

3.72714747669902e+005,-3.35164128813480e+001,-2.90686248172484e+000

3.77917651657445e+005,-3.35166437346896e+001,-2.94724172402291e+000

3.83193185478053e+005,-3.35168807156963e+001,-2.98817676008860e+000

3.88542363006410e+005,-3.35171239776856e+001,-3.02967505227920e+000

3.93966212270369e+005,-3.35173736773416e+001,-3.07174415703352e+000

3.99465775648511e+005,-3.35176299747675e+001,-3.11439172591096e+000

4.05042110070485e+005,-3.35178930335357e+001,-3.15762550664210e+000

4.10696287220124e+005,-3.35181630207401e+001,-3.20145334419217e+000

4.16429393741414e+005,-3.35184401070461e+001,-3.24588318183663e+000

4.22242531447321e+005,-3.35187244667410e+001,-3.29092306225012e+000

4.28136817531551e+005,-3.35190162777846e+001,-3.33658112860921e+000

4.34113384783250e+005,-3.35193157218584e+001,-3.38286562571047e+000

4.40173381804713e+005,-3.35196229844147e+001,-3.42978490110211e+000

4.46317973232124e+005,-3.35199382547252e+001,-3.47734740623346e+000

4.52548339959385e+005,-3.35202617259295e+001,-3.52556169762017e+000

4.58865679365059e+005,-3.35205935950817e+001,-3.57443643802677e+000

4.65271205542494e+005,-3.35209340631980e+001,-3.62398039766844e+000

4.71766149533147e+005,-3.35212833353021e+001,-3.67420245543124e+000

4.78351759563174e+005,-3.35216416204715e+001,-3.72511160011371e+000

4.85029301283321e+005,-3.35220091318814e+001,-3.77671693168890e+000

4.91800058012158e+005,-3.35223860868492e+001,-3.82902766258987e+000

4.98665330982714e+005,-3.35227727068776e+001,-3.88205311901739e+000

5.05626439592555e+005,-3.35231692176968e+001,-3.93580274227461e+000

5.12684721657352e+005,-3.35235758493068e+001,-3.99028609012531e+000

5.19841533667984e+005,-3.35239928360179e+001,-4.04551283818201e+000

5.27098251051240e+005,-3.35244204164910e+001,-4.10149278132106e+000

5.34456268434150e+005,-3.35248588337774e+001,-4.15823583512887e+000

5.41916999912011e+005,-3.35253083353570e+001,-4.21575203738012e+000

