Freq.,VOut,OutRef

1.00000000000000e+004,-1.23328856398494e+001,-1.97951464248001e-001

1.01395947979003e+004,-1.23328856294047e+001,-2.00714763061375e-001

1.02811382665607e+004,-1.23328856186661e+001,-2.03516636062166e-001

1.04246576084112e+004,-1.23328856076257e+001,-2.06357621722927e-001

1.05701804056138e+004,-1.23328855962746e+001,-2.09238266036463e-001

1.07177346253629e+004,-1.23328855846044e+001,-2.12159122614390e-001

1.08673486252606e+004,-1.23328855726060e+001,-2.15120752798246e-001

1.10190511587661e+004,-1.23328855602702e+001,-2.18123725764286e-001

1.11728713807222e+004,-1.23328855475876e+001,-2.21168618634829e-001

1.13288388529580e+004,-1.23328855345482e+001,-2.24256016589776e-001

1.14869835499703e+004,-1.23328855211421e+001,-2.27386512975669e-001

1.16473358646846e+004,-1.23328855073590e+001,-2.30560709422018e-001

1.18099266142953e+004,-1.23328854931883e+001,-2.33779215957699e-001

1.19747870461893e+004,-1.23328854786190e+001,-2.37042651127369e-001

1.21419488439505e+004,-1.23328854636401e+001,-2.40351642107687e-001

1.23114441334492e+004,-1.23328854482398e+001,-2.43706824833705e-001

1.24833054890161e+004,-1.23328854324063e+001,-2.47108844116522e-001

1.26575659397028e+004,-1.23328854161276e+001,-2.50558353766803e-001

1.28342589756290e+004,-1.23328853993911e+001,-2.54056016723413e-001

1.30134185544193e+004,-1.23328853821839e+001,-2.57602505179005e-001

1.31950791077289e+004,-1.23328853644927e+001,-2.61198500710570e-001

1.33792755478611e+004,-1.23328853463038e+001,-2.64844694408347e-001

1.35660432744767e+004,-1.23328853276035e+001,-2.68541787009482e-001

1.37554181813974e+004,-1.23328853083771e+001,-2.72290489034004e-001

1.39474366635040e+004,-1.23328852886100e+001,-2.76091520919886e-001

1.41421356237309e+004,-1.23328852682867e+001,-2.79945613162555e-001

1.43395524801583e+004,-1.23328852473920e+001,-2.83853506452019e-001

1.45397251732031e+004,-1.23328852259095e+001,-2.87815951820969e-001

1.47426921729110e+004,-1.23328852038227e+001,-2.91833710784550e-001

1.49484924863494e+004,-1.23328851811146e+001,-2.95907555488081e-001

1.51571656651040e+004,-1.23328851577678e+001,-3.00038268856378e-001

1.53687518128801e+004,-1.23328851337641e+001,-3.04226644742534e-001

1.55832915932100e+004,-1.23328851090854e+001,-3.08473488080065e-001

1.58008262372675e+004,-1.23328850837124e+001,-3.12779615041647e-001

1.60213975517924e+004,-1.23328850576255e+001,-3.17145853191531e-001

1.62450479271247e+004,-1.23328850308049e+001,-3.21573041644976e-001

1.64718203453514e+004,-1.23328850032296e+001,-3.26062031233424e-001

1.67017583885674e+004,-1.23328849748787e+001,-3.30613684661857e-001

1.69349062472505e+004,-1.23328849457301e+001,-3.35228876682241e-001

1.71713087287550e+004,-1.23328849157614e+001,-3.39908494253013e-001

1.74110112659224e+004,-1.23328848849497e+001,-3.44653436716272e-001

1.76540599258131e+004,-1.23328848532710e+001,-3.49464615968674e-001

1.79005014185594e+004,-1.23328848207011e+001,-3.54342956634908e-001

1.81503831063432e+004,-1.23328847872147e+001,-3.59289396247341e-001

1.84037530124975e+004,-1.23328847527861e+001,-3.64304885425321e-001

1.86606598307361e+004,-1.23328847173888e+001,-3.69390388057680e-001

1.89211529345119e+004,-1.23328846809955e+001,-3.74546881489584e-001

1.91852823865052e+004,-1.23328846435782e+001,-3.79775356707641e-001

1.94530989482457e+004,-1.23328846051079e+001,-3.85076818533224e-001

1.97246540898671e+004,-1.23328845655551e+001,-3.90452285812914e-001

1.99999999999999e+004,-1.23328845248892e+001,-3.95902791616764e-001

2.02791895958005e+004,-1.23328844830788e+001,-4.01429383434450e-001

2.05622765331213e+004,-1.23328844400919e+001,-4.07033123377664e-001

2.08493152168224e+004,-1.23328843958952e+001,-4.12715088385588e-001

2.11403608112276e+004,-1.23328843504546e+001,-4.18476370428753e-001

2.14354692507258e+004,-1.23328843037350e+001,-4.24318076722919e-001

2.17346972505211e+004,-1.23328842557006e+001,-4.30241329936603e-001

2.20381023175322e+004,-1.23328842063141e+001,-4.36247268412472e-001

2.23457427614443e+004,-1.23328841555374e+001,-4.42337046382359e-001

2.26576777059159e+004,-1.23328841033316e+001,-4.48511834188773e-001

2.29739670999406e+004,-1.23328840496561e+001,-4.54772818513328e-001

2.32946717293690e+004,-1.23328839944697e+001,-4.61121202600981e-001

2.36198532285905e+004,-1.23328839377296e+001,-4.67558206493523e-001

2.39495740923785e+004,-1.23328838793921e+001,-4.74085067263692e-001

2.42838976879009e+004,-1.23328838194123e+001,-4.80703039250998e-001

2.46228882668982e+004,-1.23328837577438e+001,-4.87413394305544e-001

2.49666109780322e+004,-1.23328836943388e+001,-4.94217422031210e-001

2.53151318794055e+004,-1.23328836291486e+001,-5.01116430032609e-001

2.56685179512580e+004,-1.23328835621227e+001,-5.08111744168020e-001

2.60268371088386e+004,-1.23328834932094e+001,-5.15204708802095e-001

2.63901582154578e+004,-1.23328834223555e+001,-5.22396687066353e-001

2.67585510957221e+004,-1.23328833495061e+001,-5.29689061119640e-001

2.71320865489533e+004,-1.23328832746050e+001,-5.37083232414987e-001

2.75108363627948e+004,-1.23328831975944e+001,-5.44580621966426e-001

2.78948733270080e+004,-1.23328831184146e+001,-5.52182670625905e-001

2.82842712474618e+004,-1.23328830370045e+001,-5.59890839355609e-001

2.86791049603164e+004,-1.23328829533012e+001,-5.67706609512511e-001

2.90794503464061e+004,-1.23328828672397e+001,-5.75631483131987e-001

2.94853843458219e+004,-1.23328827787538e+001,-5.83666983214210e-001

2.98969849726987e+004,-1.23328826877748e+001,-5.91814654020311e-001

3.03143313302078e+004,-1.23328825942324e+001,-6.00076061365646e-001

3.07375036257601e+004,-1.23328824980542e+001,-6.08452792923848e-001

3.11665831864199e+004,-1.23328823991657e+001,-6.16946458529553e-001

3.16016524745350e+004,-1.23328822974905e+001,-6.25558690488492e-001

3.20427951035848e+004,-1.23328821929497e+001,-6.34291143891893e-001

3.24900958542493e+004,-1.23328820854624e+001,-6.43145496933035e-001

3.29436406907028e+004,-1.23328819749453e+001,-6.52123451230380e-001

3.34035167771346e+004,-1.23328818613129e+001,-6.61226732155024e-001

3.38698124945009e+004,-1.23328817444770e+001,-6.70457089161365e-001

3.43426174575100e+004,-1.23328816243471e+001,-6.79816296123418e-001

3.48220225318448e+004,-1.23328815008301e+001,-6.89306151676896e-001

3.53081198516260e+004,-1.23328813738301e+001,-6.98928479562002e-001

3.58010028371187e+004,-1.23328812432486e+001,-7.08685128977193e-001

3.63007662126863e+004,-1.23328811089845e+001,-7.18577974930745e-001

3.68075060249948e+004,-1.23328809709334e+001,-7.28608918605270e-001

3.73213196614721e+004,-1.23328808289882e+001,-7.38779887719152e-001

3.78423058690237e+004,-1.23328806830385e+001,-7.49092836899749e-001

3.83705647730104e+004,-1.23328805329713e+001,-7.59549748055673e-001

3.89061978964912e+004,-1.23328803786698e+001,-7.70152630760922e-001

3.94493081797342e+004,-1.23328802200140e+001,-7.80903522640293e-001

3.99999999999998e+004,-1.23328800568807e+001,-7.91804489757957e-001

4.05583791916010e+004,-1.23328798891430e+001,-8.02857627018252e-001

4.11245530662425e+004,-1.23328797166705e+001,-8.14065058565497e-001

4.16986304336447e+004,-1.23328795393289e+001,-8.25428938193555e-001

4.22807216224550e+004,-1.23328793569801e+001,-8.36951449758756e-001

4.28709385014515e+004,-1.23328791694823e+001,-8.48634807598896e-001

4.34693945010421e+004,-1.23328789766893e+001,-8.60481256960593e-001

4.40762046350642e+004,-1.23328787784510e+001,-8.72493074428670e-001

4.46914855228886e+004,-1.23328785746128e+001,-8.84672568364667e-001

4.53153554118317e+004,-1.23328783650157e+001,-8.97022079348916e-001

4.59479341998812e+004,-1.23328781494964e+001,-9.09543980631729e-001

4.65893434587380e+004,-1.23328779278863e+001,-9.22240678589148e-001

4.72397064571810e+004,-1.23328777000128e+001,-9.35114613182366e-001

4.78991481847569e+004,-1.23328774656977e+001,-9.48168258431818e-001

4.85677953758016e+004,-1.23328772247580e+001,-9.61404122886240e-001

4.92457765337964e+004,-1.23328769770053e+001,-9.74824750109230e-001

4.99332219560642e+004,-1.23328767222457e+001,-9.88432719165953e-001

5.06302637588109e+004,-1.23328764602801e+001,-1.00223064511765e+000

5.13370359025159e+004,-1.23328761909032e+001,-1.01622117952559e+000

5.20536742176771e+004,-1.23328759139041e+001,-1.03040701096008e+000

5.27803164309155e+004,-1.23328756290656e+001,-1.04479086551550e+000

5.35171021914442e+004,-1.23328753361645e+001,-1.05937550733518e+000

5.42641730979066e+004,-1.23328750349711e+001,-1.07416373914160e+000

5.50216727255895e+004,-1.23328747252488e+001,-1.08915840277536e+000

5.57897466540159e+004,-1.23328744067543e+001,-1.10436237974058e+000

5.65685424949235e+004,-1.23328740792375e+001,-1.11977859175807e+000

5.73582099206328e+004,-1.23328737424407e+001,-1.13541000132591e+000

5.81589006928121e+004,-1.23328733960989e+001,-1.15125961229054e+000

5.89707686916437e+004,-1.23328730399396e+001,-1.16733047042053e+000

5.97939699453972e+004,-1.23328726736820e+001,-1.18362566399409e+000

6.06286626604156e+004,-1.23328722970374e+001,-1.20014832439092e+000

6.14750072515201e+004,-1.23328719097087e+001,-1.21690162669365e+000

6.23331663728396e+004,-1.23328715113901e+001,-1.23388879029677e+000

6.32033049490698e+004,-1.23328711017670e+001,-1.25111307952608e+000

6.40855902071694e+004,-1.23328706805153e+001,-1.26857780426617e+000

6.49801917084985e+004,-1.23328702473020e+001,-1.28628632059211e+000

6.58872813814055e+004,-1.23328698017838e+001,-1.30424203141915e+000

6.68070335542691e+004,-1.23328693436078e+001,-1.32244838715097e+000

6.77396249890018e+004,-1.23328688724104e+001,-1.34090888634620e+000

6.86852349150199e+004,-1.23328683878178e+001,-1.35962707638775e+000

6.96440450636895e+004,-1.23328678894448e+001,-1.37860655416404e+000

7.06162397032520e+004,-1.23328673768952e+001,-1.39785096676059e+000

7.16020056742374e+004,-1.23328668497610e+001,-1.41736401215960e+000

7.26015324253724e+004,-1.23328663076222e+001,-1.43714943994865e+000

7.36150120499896e+004,-1.23328657500465e+001,-1.45721105204312e+000

7.46426393229441e+004,-1.23328651765889e+001,-1.47755270341281e+000

7.56846117380472e+004,-1.23328645867910e+001,-1.49817830282487e+000

7.67411295460207e+004,-1.23328639801811e+001,-1.51909181359169e+000

7.78123957929823e+004,-1.23328633562736e+001,-1.54029725433278e+000

7.88986163594682e+004,-1.23328627145681e+001,-1.56179869974665e+000

7.99999999999995e+004,-1.23328620545498e+001,-1.58360028139037e+000

8.11167583832018e+004,-1.23328613756885e+001,-1.60570618847548e+000

8.22491061324848e+004,-1.23328606774379e+001,-1.62812066866995e+000

8.33972608672892e+004,-1.23328599592358e+001,-1.65084802891460e+000

8.45614432449099e+004,-1.23328592205030e+001,-1.67389263624772e+000

8.57418770029029e+004,-1.23328584606431e+001,-1.69725891864507e+000

8.69387890020841e+004,-1.23328576790419e+001,-1.72095136586849e+000

8.81524092701283e+004,-1.23328568750665e+001,-1.74497453032750e+000

8.93829710457770e+004,-1.23328560480653e+001,-1.76933302795247e+000

9.06307108236633e+004,-1.23328551973669e+001,-1.79403153908083e+000

9.18958683997622e+004,-1.23328543222798e+001,-1.81907480935456e+000

9.31786869174758e+004,-1.23328534220915e+001,-1.84446765062995e+000

9.44794129143618e+004,-1.23328524960682e+001,-1.87021494190236e+000

9.57982963695136e+004,-1.23328515434534e+001,-1.89632163024056e+000

9.71355907516031e+004,-1.23328505634682e+001,-1.92279273173628e+000

9.84915530675926e+004,-1.23328495553097e+001,-1.94963333246599e+000

9.98664439121282e+004,-1.23328485181505e+001,-1.97684858946650e+000

1.01260527517622e+005,-1.23328474511382e+001,-2.00444373172426e+000

1.02674071805032e+005,-1.23328463533942e+001,-2.03242406117777e+000

1.04107348435354e+005,-1.23328452240128e+001,-2.06079495373486e+000

1.05560632861831e+005,-1.23328440620609e+001,-2.08956186030239e+000

1.07034204382888e+005,-1.23328428665763e+001,-2.11873030783272e+000

1.08528346195813e+005,-1.23328416365673e+001,-2.14830590038246e+000

1.10043345451179e+005,-1.23328403710117e+001,-2.17829432018779e+000

1.11579493308032e+005,-1.23328390688554e+001,-2.20870132875281e+000

1.13137084989847e+005,-1.23328377290118e+001,-2.23953276795454e+000

1.14716419841265e+005,-1.23328363503604e+001,-2.27079456116269e+000

1.16317801385624e+005,-1.23328349317457e+001,-2.30249271437546e+000

1.17941537383287e+005,-1.23328334719762e+001,-2.33463331736982e+000

1.19587939890794e+005,-1.23328319698232e+001,-2.36722254486913e+000

1.21257325320831e+005,-1.23328304240191e+001,-2.40026665772654e+000

1.22950014503040e+005,-1.23328288332567e+001,-2.43377200412463e+000

1.24666332745679e+005,-1.23328271961874e+001,-2.46774502079190e+000

1.26406609898139e+005,-1.23328255114200e+001,-2.50219223423601e+000

1.28171180414339e+005,-1.23328237775191e+001,-2.53712026199409e+000

1.29960383416997e+005,-1.23328219930039e+001,-2.57253581390115e+000

1.31774562762811e+005,-1.23328201563460e+001,-2.60844569337426e+000

1.33614067108538e+005,-1.23328182659685e+001,-2.64485679871766e+000

1.35479249978003e+005,-1.23328163202437e+001,-2.68177612444175e+000

1.37370469830040e+005,-1.23328143174917e+001,-2.71921076260466e+000

1.39288090127379e+005,-1.23328122559785e+001,-2.75716790416947e+000

1.41232479406504e+005,-1.23328101339139e+001,-2.79565484038193e+000

1.43204011348474e+005,-1.23328079494497e+001,-2.83467896416591e+000

1.45203064850745e+005,-1.23328057006776e+001,-2.87424777153974e+000

1.47230024099979e+005,-1.23328033856272e+001,-2.91436886305058e+000

1.49285278645888e+005,-1.23328010022634e+001,-2.95504994523074e+000

1.51369223476094e+005,-1.23327985484846e+001,-2.99629883207128e+000

1.53482259092041e+005,-1.23327960221199e+001,-3.03812344651968e+000

1.55624791585964e+005,-1.23327934209266e+001,-3.08053182199504e+000

1.57797232718936e+005,-1.23327907425879e+001,-3.12353210392565e+000

1.59999999999999e+005,-1.23327879847101e+001,-3.16713255130901e+000

1.62233516766403e+005,-1.23327851448195e+001,-3.21134153829064e+000

1.64498212264969e+005,-1.23327822203598e+001,-3.25616755576853e+000

1.66794521734578e+005,-1.23327792086891e+001,-3.30161921301549e+000

1.69122886489819e+005,-1.23327761070762e+001,-3.34770523932865e+000

1.71483754005805e+005,-1.23327729126980e+001,-3.39443448569789e+000

1.73877578004168e+005,-1.23327696226358e+001,-3.44181592649984e+000

1.76304818540256e+005,-1.23327662338713e+001,-3.48985866121430e+000

1.78765942091554e+005,-1.23327627432837e+001,-3.53857191616477e+000

1.81261421647326e+005,-1.23327591476451e+001,-3.58796504628387e+000

1.83791736799524e+005,-1.23327554436168e+001,-3.63804753690118e+000

1.86357373834951e+005,-1.23327516277451e+001,-3.68882900555859e+000

1.88958825828723e+005,-1.23327476964569e+001,-3.74031920384927e+000

1.91596592739027e+005,-1.23327436460550e+001,-3.79252801928142e+000

1.94271181503206e+005,-1.23327394727134e+001,-3.84546547717069e+000

1.96983106135185e+005,-1.23327351724727e+001,-3.89914174255594e+000

1.99732887824256e+005,-1.23327307412344e+001,-3.95356712214284e+000

2.02521055035243e+005,-1.23327261747558e+001,-4.00875206627528e+000

2.05348143610063e+005,-1.23327214686444e+001,-4.06470717093255e+000

2.08214696870707e+005,-1.23327166183522e+001,-4.12144317975602e+000

2.11121265723661e+005,-1.23327116191692e+001,-4.17897098610260e+000

2.14068408765776e+005,-1.23327064662173e+001,-4.23730163512773e+000

2.17056692391625e+005,-1.23327011544439e+001,-4.29644632589654e+000

2.20086690902357e+005,-1.23326956786148e+001,-4.35641641352559e+000

2.23158986616063e+005,-1.23326900333067e+001,-4.41722341135334e+000

2.26274169979693e+005,-1.23326842129003e+001,-4.47887899314186e+000

2.29432839682530e+005,-1.23326782115721e+001,-4.54139499530822e+000

2.32635602771247e+005,-1.23326720232864e+001,-4.60478341918804e+000

2.35883074766574e+005,-1.23326656417865e+001,-4.66905643333055e+000

2.39175879781588e+005,-1.23326590605866e+001,-4.73422637582468e+000

2.42514650641661e+005,-1.23326522729615e+001,-4.80030575665999e+000

2.45900029006080e+005,-1.23326452719377e+001,-4.86730726011752e+000

2.49332665491357e+005,-1.23326380502834e+001,-4.93524374719727e+000

2.52813219796278e+005,-1.23326306004974e+001,-5.00412825807793e+000

2.56342360828676e+005,-1.23326229147987e+001,-5.07397401461198e+000

2.59920766833993e+005,-1.23326149851150e+001,-5.14479442285539e+000

2.63549125525621e+005,-1.23326068030707e+001,-5.21660307563328e+000

2.67228134217075e+005,-1.23325983599746e+001,-5.28941375514190e+000

2.70958499956006e+005,-1.23325896468069e+001,-5.36324043558717e+000

2.74740939660078e+005,-1.23325806542056e+001,-5.43809728586060e+000

2.78576180254757e+005,-1.23325713724529e+001,-5.51399867225320e+000

2.82464958813007e+005,-1.23325617914601e+001,-5.59095916120805e+000

2.86408022696948e+005,-1.23325519007523e+001,-5.66899352211121e+000

2.90406129701488e+005,-1.23325416894530e+001,-5.74811673012440e+000

2.94460048199957e+005,-1.23325311462668e+001,-5.82834396905536e+000

2.98570557291775e+005,-1.23325202594626e+001,-5.90969063427119e+000

3.02738446952187e+005,-1.23325090168553e+001,-5.99217233565386e+000

3.06964518184081e+005,-1.23324974057871e+001,-6.07580490059582e+000

3.11249583171928e+005,-1.23324854131080e+001,-6.16060437704118e+000

3.15594465437872e+005,-1.23324730251552e+001,-6.24658703657008e+000

3.19999999999997e+005,-1.23324602277319e+001,-6.33376937752621e+000

3.24467033532806e+005,-1.23324470060852e+001,-6.42216812819292e+000

3.28996424529938e+005,-1.23324333448830e+001,-6.51180025001196e+000

3.33589043469155e+005,-1.23324192281900e+001,-6.60268294085200e+000

3.38245772979638e+005,-1.23324046394427e+001,-6.69483363832351e+000

3.42967508011610e+005,-1.23323895614231e+001,-6.78827002314304e+000

3.47755156008335e+005,-1.23323739762322e+001,-6.88301002254670e+000

3.52609637080511e+005,-1.23323578652612e+001,-6.97907181375460e+000

3.57531884183106e+005,-1.23323412091623e+001,-7.07647382748636e+000

3.62522843294651e+005,-1.23323239878186e+001,-7.17523475152922e+000

3.67583473599047e+005,-1.23323061803118e+001,-7.27537353435916e+000

3.72714747669902e+005,-1.23322877648895e+001,-7.37690938881758e+000

3.77917651657445e+005,-1.23322687189309e+001,-7.47986179584220e+000

3.83193185478053e+005,-1.23322490189111e+001,-7.58425050825496e+000

3.88542363006410e+005,-1.23322286403642e+001,-7.69009555460841e+000

3.93966212270369e+005,-1.23322075578448e+001,-7.79741724308945e+000

3.99465775648511e+005,-1.23321857448879e+001,-7.90623616548448e+000

4.05042110070485e+005,-1.23321631739680e+001,-8.01657320120540e+000

4.10696287220124e+005,-1.23321398164555e+001,-8.12844952137767e+000

4.16429393741414e+005,-1.23321156425725e+001,-8.24188659299297e+000

4.22242531447321e+005,-1.23320906213468e+001,-8.35690618312691e+000

4.28136817531551e+005,-1.23320647205635e+001,-8.47353036322307e+000

4.34113384783250e+005,-1.23320379067159e+001,-8.59178151344523e+000

4.40173381804713e+005,-1.23320101449537e+001,-8.71168232709938e+000

4.46317973232124e+005,-1.23319813990303e+001,-8.83325581512657e+000

4.52548339959385e+005,-1.23319516312476e+001,-8.95652531066881e+000

4.58865679365059e+005,-1.23319208023991e+001,-9.08151447370850e+000

4.65271205542494e+005,-1.23318888717111e+001,-9.20824729578518e+000

4.71766149533147e+005,-1.23318557967824e+001,-9.33674810478867e+000

4.78351759563174e+005,-1.23318215335212e+001,-9.46704156983264e+000

4.85029301283321e+005,-1.23317860360804e+001,-9.59915270620971e+000

4.91800058012158e+005,-1.23317492567916e+001,-9.73310688042893e+000

4.98665330982714e+005,-1.23317111460957e+001,-9.86892981533952e+000

5.05626439592555e+005,-1.23316716524723e+001,-1.00066475953424e+001

5.12684721657352e+005,-1.23316307223671e+001,-1.01462866716894e+001

5.19841533667984e+005,-1.23315883001169e+001,-1.02878738678763e+001

5.27098251051240e+005,-1.23315443278726e+001,-1.04314363851279e+001

5.34456268434150e+005,-1.23314987455203e+001,-1.05770018079809e+001

5.41916999912011e+005,-1.23314514905998e+001,-1.07245981099639e+001

