Freq.,VOut,OutRef

1.00000000000000e+004,-1.32045360987914e+000,-1.33040767442764e-001

1.01395947979003e+004,-1.32045354299733e+000,-1.34897948046342e-001

1.02811382665607e+004,-1.32045347423525e+000,-1.36781053954700e-001

1.04246576084112e+004,-1.32045340354008e+000,-1.38690447072449e-001

1.05701804056138e+004,-1.32045333085733e+000,-1.40626494357734e-001

1.07177346253629e+004,-1.32045325613118e+000,-1.42589567889726e-001

1.08673486252606e+004,-1.32045317930433e+000,-1.44580044941413e-001

1.10190511587661e+004,-1.32045310031759e+000,-1.46598308053763e-001

1.11728713807222e+004,-1.32045301911007e+000,-1.48644745108497e-001

1.13288388529580e+004,-1.32045293561973e+000,-1.50719749398560e-001

1.14869835499703e+004,-1.32045284978215e+000,-1.52823719710691e-001

1.16473358646846e+004,-1.32045276153129e+000,-1.54957060397284e-001

1.18099266142953e+004,-1.32045267079938e+000,-1.57120181455233e-001

1.19747870461893e+004,-1.32045257751685e+000,-1.59313498603878e-001

1.21419488439505e+004,-1.32045248161169e+000,-1.61537433368598e-001

1.23114441334492e+004,-1.32045238301027e+000,-1.63792413156828e-001

1.24833054890161e+004,-1.32045228163683e+000,-1.66078871343069e-001

1.26575659397028e+004,-1.32045217741351e+000,-1.68397247350923e-001

1.28342589756290e+004,-1.32045207026003e+000,-1.70747986740183e-001

1.30134185544193e+004,-1.32045196009422e+000,-1.73131541287717e-001

1.31950791077289e+004,-1.32045184683117e+000,-1.75548369080363e-001

1.33792755478611e+004,-1.32045173038394e+000,-1.77998934596930e-001

1.35660432744767e+004,-1.32045161066297e+000,-1.80483708801667e-001

1.37554181813974e+004,-1.32045148757626e+000,-1.83003169232438e-001

1.39474366635040e+004,-1.32045136102909e+000,-1.85557800094869e-001

1.41421356237309e+004,-1.32045123092427e+000,-1.88148092352314e-001

1.43395524801583e+004,-1.32045109716181e+000,-1.90774543822624e-001

1.45397251732031e+004,-1.32045095963891e+000,-1.93437659272560e-001

1.47426921729110e+004,-1.32045081824960e+000,-1.96137950517505e-001

1.49484924863494e+004,-1.32045067288560e+000,-1.98875936513314e-001

1.51571656651040e+004,-1.32045052343475e+000,-2.01652143465670e-001

1.53687518128801e+004,-1.32045036978241e+000,-2.04467104921618e-001

1.55832915932100e+004,-1.32045021181041e+000,-2.07321361878421e-001

1.58008262372675e+004,-1.32045004939735e+000,-2.10215462885049e-001

1.60213975517924e+004,-1.32044988241826e+000,-2.13149964148866e-001

1.62450479271247e+004,-1.32044971074483e+000,-2.16125429641113e-001

1.64718203453514e+004,-1.32044953424518e+000,-2.19142431205374e-001

1.67017583885674e+004,-1.32044935278344e+000,-2.22201548670109e-001

1.69349062472505e+004,-1.32044916622037e+000,-2.25303369954997e-001

1.71713087287550e+004,-1.32044897441242e+000,-2.28448491190027e-001

1.74110112659224e+004,-1.32044877721211e+000,-2.31637516825481e-001

1.76540599258131e+004,-1.32044857446790e+000,-2.34871059750387e-001

1.79005014185594e+004,-1.32044836602386e+000,-2.38149741409160e-001

1.81503831063432e+004,-1.32044815171982e+000,-2.41474191921723e-001

1.84037530124975e+004,-1.32044793139107e+000,-2.44845050204149e-001

1.86606598307361e+004,-1.32044770486830e+000,-2.48262964091594e-001

1.89211529345119e+004,-1.32044747197723e+000,-2.51728590464302e-001

1.91852823865052e+004,-1.32044723253886e+000,-2.55242595371650e-001

1.94530989482457e+004,-1.32044698636918e+000,-2.58805654160364e-001

1.97246540898671e+004,-1.32044673327898e+000,-2.62418451605661e-001

1.99999999999999e+004,-1.32044647307363e+000,-2.66081682042799e-001

2.02791895958005e+004,-1.32044620555326e+000,-2.69796049498282e-001

2.05622765331213e+004,-1.32044593051207e+000,-2.73562267829047e-001

2.08493152168224e+004,-1.32044564773861e+000,-2.77381060856623e-001

2.11403608112276e+004,-1.32044535701573e+000,-2.81253162505572e-001

2.14354692507258e+004,-1.32044505811974e+000,-2.85179316948674e-001

2.17346972505211e+004,-1.32044475082095e+000,-2.89160278745919e-001

2.20381023175322e+004,-1.32044443488318e+000,-2.93196812991391e-001

2.23457427614443e+004,-1.32044411006362e+000,-2.97289695459409e-001

2.26576777059159e+004,-1.32044377611247e+000,-3.01439712755400e-001

2.29739670999406e+004,-1.32044343277302e+000,-3.05647662465629e-001

2.32946717293690e+004,-1.32044307978152e+000,-3.09914353309414e-001

2.36198532285905e+004,-1.32044271686643e+000,-3.14240605298458e-001

2.39495740923785e+004,-1.32044234374892e+000,-3.18627249889592e-001

2.42838976879009e+004,-1.32044196014217e+000,-3.23075130148336e-001

2.46228882668982e+004,-1.32044156575131e+000,-3.27585100909500e-001

2.49666109780322e+004,-1.32044116027320e+000,-3.32158028941174e-001

2.53151318794055e+004,-1.32044074339607e+000,-3.36794793112975e-001

2.56685179512580e+004,-1.32044031479964e+000,-3.41496284561824e-001

2.60268371088386e+004,-1.32043987415434e+000,-3.46263406867519e-001

2.63901582154578e+004,-1.32043942112146e+000,-3.51097076223134e-001

2.67585510957221e+004,-1.32043895535293e+000,-3.55998221610873e-001

2.71320865489533e+004,-1.32043847649063e+000,-3.60967784984419e-001

2.75108363627948e+004,-1.32043798416653e+000,-3.66006721446324e-001

2.78948733270080e+004,-1.32043747800213e+000,-3.71115999432801e-001

2.82842712474618e+004,-1.32043695760849e+000,-3.76296600899919e-001

2.86791049603164e+004,-1.32043642258553e+000,-3.81549521512872e-001

2.90794503464061e+004,-1.32043587252208e+000,-3.86875770836762e-001

2.94853843458219e+004,-1.32043530699543e+000,-3.92276372530062e-001

2.98969849726987e+004,-1.32043472557068e+000,-3.97752364543896e-001

3.03143313302078e+004,-1.32043412780115e+000,-4.03304799317978e-001

3.07375036257601e+004,-1.32043351322733e+000,-4.08934743986479e-001

3.11665831864199e+004,-1.32043288137680e+000,-4.14643280580698e-001

3.16016524745350e+004,-1.32043223176402e+000,-4.20431506237871e-001

3.20427951035848e+004,-1.32043156388972e+000,-4.26300533412415e-001

3.24900958542493e+004,-1.32043087724044e+000,-4.32251490090249e-001

3.29436406907028e+004,-1.32043017128856e+000,-4.38285520003817e-001

3.34035167771346e+004,-1.32042944549152e+000,-4.44403782853711e-001

3.38698124945009e+004,-1.32042869929146e+000,-4.50607454531041e-001

3.43426174575100e+004,-1.32042793211481e+000,-4.56897727344378e-001

3.48220225318448e+004,-1.32042714337211e+000,-4.63275810246416e-001

3.53081198516260e+004,-1.32042633245699e+000,-4.69742929070554e-001

3.58010028371187e+004,-1.32042549874637e+000,-4.76300326761740e-001

3.63007662126863e+004,-1.32042464159949e+000,-4.82949263619668e-001

3.68075060249948e+004,-1.32042376035760e+000,-4.89691017538966e-001

3.73213196614721e+004,-1.32042285434343e+000,-4.96526884255314e-001

3.78423058690237e+004,-1.32042192286065e+000,-5.03458177595028e-001

3.83705647730104e+004,-1.32042096519355e+000,-5.10486229726032e-001

3.89061978964912e+004,-1.32041998060601e+000,-5.17612391417268e-001

3.94493081797342e+004,-1.32041896834149e+000,-5.24838032294668e-001

3.99999999999998e+004,-1.32041792762207e+000,-5.32164541107120e-001

4.05583791916010e+004,-1.32041685764794e+000,-5.39593325992887e-001

4.11245530662425e+004,-1.32041575759691e+000,-5.47125814750042e-001

4.16986304336447e+004,-1.32041462662357e+000,-5.54763455111493e-001

4.22807216224550e+004,-1.32041346385894e+000,-5.62507715022433e-001

4.28709385014515e+004,-1.32041226840941e+000,-5.70360082924250e-001

4.34693945010421e+004,-1.32041103935642e+000,-5.78322068039362e-001

4.40762046350642e+004,-1.32040977575546e+000,-5.86395200662649e-001

4.46914855228886e+004,-1.32040847663567e+000,-5.94581032454181e-001

4.53153554118317e+004,-1.32040714099878e+000,-6.02881136739158e-001

4.59479341998812e+004,-1.32040576781841e+000,-6.11297108810596e-001

4.65893434587380e+004,-1.32040435603957e+000,-6.19830566234188e-001

4.72397064571810e+004,-1.32040290457745e+000,-6.28483149161562e-001

4.78991481847569e+004,-1.32040141231677e+000,-6.37256520645290e-001

4.85677953758016e+004,-1.32039987811101e+000,-6.46152366957916e-001

4.92457765337964e+004,-1.32039830078136e+000,-6.55172397916750e-001

4.99332219560642e+004,-1.32039667911593e+000,-6.64318347213655e-001

5.06302637588109e+004,-1.32039501186882e+000,-6.73591972746884e-001

5.13370359025159e+004,-1.32039329775908e+000,-6.82995056960696e-001

5.20536742176771e+004,-1.32039153546975e+000,-6.92529407187756e-001

5.27803164309155e+004,-1.32038972364704e+000,-7.02196855996251e-001

5.35171021914442e+004,-1.32038786089888e+000,-7.11999261544086e-001

5.42641730979066e+004,-1.32038594579424e+000,-7.21938507934322e-001

5.50216727255895e+004,-1.32038397686204e+000,-7.32016505578382e-001

5.57897466540159e+004,-1.32038195258963e+000,-7.42235191564967e-001

5.65685424949235e+004,-1.32037987142194e+000,-7.52596530031286e-001

5.73582099206328e+004,-1.32037773176039e+000,-7.63102512540812e-001

5.81589006928121e+004,-1.32037553196129e+000,-7.73755158467976e-001

5.89707686916437e+004,-1.32037327033493e+000,-7.84556515385217e-001

5.97939699453972e+004,-1.32037094514409e+000,-7.95508659458022e-001

6.06286626604156e+004,-1.32036855460282e+000,-8.06613695843885e-001

6.14750072515201e+004,-1.32036609687493e+000,-8.17873759098135e-001

6.23331663728396e+004,-1.32036357007275e+000,-8.29291013583703e-001

6.32033049490698e+004,-1.32036097225555e+000,-8.40867653889061e-001

6.40855902071694e+004,-1.32035830142821e+000,-8.52605905248903e-001

6.49801917084985e+004,-1.32035555553941e+000,-8.64508023974426e-001

6.58872813814055e+004,-1.32035273248049e+000,-8.76576297885570e-001

6.68070335542691e+004,-1.32034983008332e+000,-8.88813046753782e-001

6.77396249890018e+004,-1.32034684611915e+000,-9.01220622746171e-001

6.86852349150199e+004,-1.32034377829647e+000,-9.13801410880119e-001

6.96440450636895e+004,-1.32034062425955e+000,-9.26557829481758e-001

7.06162397032520e+004,-1.32033738158655e+000,-9.39492330651378e-001

7.16020056742374e+004,-1.32033404778762e+000,-9.52607400736011e-001

7.26015324253724e+004,-1.32033062030289e+000,-9.65905560808676e-001

7.36150120499896e+004,-1.32032709650095e+000,-9.79389367152136e-001

7.46426393229441e+004,-1.32032347367624e+000,-9.93061411752948e-001

7.56846117380472e+004,-1.32031974904747e+000,-1.00692432279992e+000

7.67411295460207e+004,-1.32031591975525e+000,-1.02098076518989e+000

7.78123957929823e+004,-1.32031198285985e+000,-1.03523344104242e+000

7.88986163594682e+004,-1.32030793533923e+000,-1.04968509021826e+000

7.99999999999995e+004,-1.32030377408642e+000,-1.06433849084910e+000

8.11167583832018e+004,-1.32029949590734e+000,-1.07919645987146e+000

8.22491061324848e+004,-1.32029509751833e+000,-1.09426185356995e+000

8.33972608672892e+004,-1.32029057554354e+000,-1.10953756812765e+000

8.45614432449099e+004,-1.32028592651252e+000,-1.12502654018366e+000

8.57418770029029e+004,-1.32028114685734e+000,-1.14073174740012e+000

8.69387890020841e+004,-1.32027623291017e+000,-1.15665620903448e+000

8.81524092701283e+004,-1.32027118090016e+000,-1.17280298652261e+000

8.93829710457770e+004,-1.32026598695087e+000,-1.18917518406815e+000

9.06307108236633e+004,-1.32026064707696e+000,-1.20577594924238e+000

9.18958683997622e+004,-1.32025515718151e+000,-1.22260847358862e+000

9.31786869174758e+004,-1.32024951305267e+000,-1.23967599323921e+000

9.44794129143618e+004,-1.32024371036056e+000,-1.25698178953891e+000

9.57982963695136e+004,-1.32023774465379e+000,-1.27452918967828e+000

9.71355907516031e+004,-1.32023161135633e+000,-1.29232156733437e+000

9.84915530675926e+004,-1.32022530576381e+000,-1.31036234332210e+000

9.98664439121282e+004,-1.32021882304007e+000,-1.32865498625351e+000

1.01260527517622e+005,-1.32021215821340e+000,-1.34720301320736e+000

1.02674071805032e+005,-1.32020530617273e+000,-1.36600999040761e+000

1.04107348435354e+005,-1.32019826166389e+000,-1.38507953391098e+000

1.05560632861831e+005,-1.32019101928534e+000,-1.40441531030582e+000

1.07034204382888e+005,-1.32018357348448e+000,-1.42402103741803e+000

1.08528346195813e+005,-1.32017591855288e+000,-1.44390048503053e+000

1.10043345451179e+005,-1.32016804862242e+000,-1.46405747560958e+000

1.11579493308032e+005,-1.32015995766065e+000,-1.48449588504282e+000

1.13137084989847e+005,-1.32015163946610e+000,-1.50521964338858e+000

1.14716419841265e+005,-1.32014308766368e+000,-1.52623273563393e+000

1.16317801385624e+005,-1.32013429569992e+000,-1.54753920246450e+000

1.17941537383287e+005,-1.32012525683780e+000,-1.56914314104494e+000

1.19587939890794e+005,-1.32011596415181e+000,-1.59104870581049e+000

1.21257325320831e+005,-1.32010641052258e+000,-1.61326010926967e+000

1.22950014503040e+005,-1.32009658863152e+000,-1.63578162281820e+000

1.24666332745679e+005,-1.32008649095532e+000,-1.65861757756442e+000

1.26406609898139e+005,-1.32007610976012e+000,-1.68177236516694e+000

1.28171180414339e+005,-1.32006543709584e+000,-1.70525043868307e+000

1.29960383416997e+005,-1.32005446479003e+000,-1.72905631342977e+000

1.31774562762811e+005,-1.32004318444165e+000,-1.75319456785758e+000

1.33614067108538e+005,-1.32003158741483e+000,-1.77766984443576e+000

1.35479249978003e+005,-1.32001966483224e+000,-1.80248685055048e+000

1.37370469830040e+005,-1.32000740756855e+000,-1.82765035941509e+000

1.39288090127379e+005,-1.31999480624323e+000,-1.85316521099475e+000

1.41232479406504e+005,-1.31998185121376e+000,-1.87903631294275e+000

1.43204011348474e+005,-1.31996853256825e+000,-1.90526864155058e+000

1.45203064850745e+005,-1.31995484011782e+000,-1.93186724271202e+000

1.47230024099979e+005,-1.31994076338920e+000,-1.95883723289955e+000

1.49285278645888e+005,-1.31992629161657e+000,-1.98618380015634e+000

1.51369223476094e+005,-1.31991141373373e+000,-2.01391220510060e+000

1.53482259092041e+005,-1.31989611836538e+000,-2.04202778194625e+000

1.55624791585964e+005,-1.31988039381888e+000,-2.07053593953596e+000

1.57797232718936e+005,-1.31986422807543e+000,-2.09944216238991e+000

1.59999999999999e+005,-1.31984760878084e+000,-2.12875201177010e+000

1.62233516766403e+005,-1.31983052323647e+000,-2.15847112675854e+000

1.64498212264969e+005,-1.31981295838954e+000,-2.18860522535143e+000

1.66794521734578e+005,-1.31979490082349e+000,-2.21916010556902e+000

1.69122886489819e+005,-1.31977633674775e+000,-2.25014164658132e+000

1.71483754005805e+005,-1.31975725198752e+000,-2.28155580984951e+000

1.73877578004168e+005,-1.31973763197313e+000,-2.31340864028405e+000

1.76304818540256e+005,-1.31971746172920e+000,-2.34570626741864e+000

1.78765942091554e+005,-1.31969672586326e+000,-2.37845490660218e+000

1.81261421647326e+005,-1.31967540855453e+000,-2.41166086020655e+000

1.83791736799524e+005,-1.31965349354177e+000,-2.44533051885273e+000

1.86357373834951e+005,-1.31963096411156e+000,-2.47947036265268e+000

1.88958825828723e+005,-1.31960780308539e+000,-2.51408696247210e+000

1.91596592739027e+005,-1.31958399280730e+000,-2.54918698120755e+000

1.94271181503206e+005,-1.31955951513043e+000,-2.58477717508503e+000

1.96983106135185e+005,-1.31953435140363e+000,-2.62086439497593e+000

1.99732887824256e+005,-1.31950848245768e+000,-2.65745558773087e+000

2.02521055035243e+005,-1.31948188859093e+000,-2.69455779753502e+000

2.05348143610063e+005,-1.31945454955480e+000,-2.73217816728081e+000

2.08214696870707e+005,-1.31942644453878e+000,-2.77032393996122e+000

2.11121265723661e+005,-1.31939755215486e+000,-2.80900246008413e+000

2.14068408765776e+005,-1.31936785042200e+000,-2.84822117510447e+000

2.17056692391625e+005,-1.31933731674964e+000,-2.88798763688001e+000

2.20086690902357e+005,-1.31930592792113e+000,-2.92830950314631e+000

2.23158986616063e+005,-1.31927366007670e+000,-2.96919453901322e+000

2.26274169979693e+005,-1.31924048869575e+000,-3.01065061848362e+000

2.29432839682530e+005,-1.31920638857886e+000,-3.05268572599372e+000

2.32635602771247e+005,-1.31917133382934e+000,-3.09530795797534e+000

2.35883074766574e+005,-1.31913529783422e+000,-3.13852552444187e+000

2.39175879781588e+005,-1.31909825324458e+000,-3.18234675059629e+000

2.42514650641661e+005,-1.31906017195578e+000,-3.22678007846245e+000

2.45900029006080e+005,-1.31902102508673e+000,-3.27183406854109e+000

2.49332665491357e+005,-1.31898078295883e+000,-3.31751740148920e+000

2.52813219796278e+005,-1.31893941507441e+000,-3.36383887982359e+000

2.56342360828676e+005,-1.31889689009442e+000,-3.41080742964984e+000

2.59920766833993e+005,-1.31885317581564e+000,-3.45843210241660e+000

2.63549125525621e+005,-1.31880823914737e+000,-3.50672207669470e+000

2.67228134217075e+005,-1.31876204608734e+000,-3.55568665998276e+000

2.70958499956006e+005,-1.31871456169708e+000,-3.60533529053980e+000

2.74740939660078e+005,-1.31866575007670e+000,-3.65567753924345e+000

2.78576180254757e+005,-1.31861557433895e+000,-3.70672311147647e+000

2.82464958813007e+005,-1.31856399658261e+000,-3.75848184904002e+000

2.86408022696948e+005,-1.31851097786507e+000,-3.81096373209648e+000

2.90406129701488e+005,-1.31845647817461e+000,-3.86417888113882e+000

2.94460048199957e+005,-1.31840045640136e+000,-3.91813755899102e+000

2.98570557291775e+005,-1.31834287030805e+000,-3.97285017283648e+000

3.02738446952187e+005,-1.31828367649971e+000,-4.02832727627717e+000

3.06964518184081e+005,-1.31822283039268e+000,-4.08457957142261e+000

3.11249583171928e+005,-1.31816028618286e+000,-4.14161791101048e+000

3.15594465437872e+005,-1.31809599681296e+000,-4.19945330055801e+000

3.19999999999997e+005,-1.31802991393925e+000,-4.25809690054556e+000

3.24467033532806e+005,-1.31796198789710e+000,-4.31756002863239e+000

3.28996424529938e+005,-1.31789216766587e+000,-4.37785416190604e+000

3.33589043469155e+005,-1.31782040083291e+000,-4.43899093916368e+000

3.38245772979638e+005,-1.31774663355643e+000,-4.50098216322939e+000

3.42967508011610e+005,-1.31767081052782e+000,-4.56383980330435e+000

3.47755156008335e+005,-1.31759287493253e+000,-4.62757599735305e+000

3.52609637080511e+005,-1.31751276841030e+000,-4.69220305452531e+000

3.57531884183106e+005,-1.31743043101443e+000,-4.75773345761343e+000

3.62522843294651e+005,-1.31734580116970e+000,-4.82417986554766e+000

3.67583473599047e+005,-1.31725881562957e+000,-4.89155511592803e+000

3.72714747669902e+005,-1.31716940943207e+000,-4.95987222759491e+000

3.77917651657445e+005,-1.31707751585481e+000,-5.02914440323775e+000

3.83193185478053e+005,-1.31698306636865e+000,-5.09938503204359e+000

3.88542363006410e+005,-1.31688599059027e+000,-5.17060769238560e+000

3.93966212270369e+005,-1.31678621623380e+000,-5.24282615455133e+000

3.99465775648511e+005,-1.31668366906083e+000,-5.31605438351392e+000

4.05042110070485e+005,-1.31657827282951e+000,-5.39030654174356e+000

4.10696287220124e+005,-1.31646994924226e+000,-5.46559699206343e+000

4.16429393741414e+005,-1.31635861789224e+000,-5.54194030054689e+000

4.22242531447321e+005,-1.31624419620847e+000,-5.61935123946126e+000

4.28136817531551e+005,-1.31612659939952e+000,-5.69784479025469e+000

4.34113384783250e+005,-1.31600574039601e+000,-5.77743614658928e+000

4.40173381804713e+005,-1.31588152979155e+000,-5.85814071742072e+000

4.46317973232124e+005,-1.31575387578222e+000,-5.93997413012508e+000

4.52548339959385e+005,-1.31562268410471e+000,-6.02295223367334e+000

4.58865679365059e+005,-1.31548785797277e+000,-6.10709110185555e+000

4.65271205542494e+005,-1.31534929801225e+000,-6.19240703655335e+000

4.71766149533147e+005,-1.31520690219448e+000,-6.27891657106428e+000

4.78351759563174e+005,-1.31506056576802e+000,-6.36663647347664e+000

4.85029301283321e+005,-1.31491018118892e+000,-6.45558375009711e+000

4.91800058012158e+005,-1.31475563804895e+000,-6.54577564893124e+000

4.98665330982714e+005,-1.31459682300245e+000,-6.63722966321838e+000

5.05626439592555e+005,-1.31443361969115e+000,-6.72996353502139e+000

5.12684721657352e+005,-1.31426590866722e+000,-6.82399525887245e+000

5.19841533667984e+005,-1.31409356731473e+000,-6.91934308547583e+000

5.27098251051240e+005,-1.31391646976866e+000,-7.01602552546900e+000

5.34456268434150e+005,-1.31373448683255e+000,-7.11406135324246e+000

5.41916999912011e+005,-1.31354748589367e+000,-7.21346961081981e+000

