Freq.,VOut,OutRef

1.00000000000000e+004,-8.54337542780206e+000,-1.33213385638037e-001

1.01395947979003e+004,-8.54337530270234e+000,-1.35072975456261e-001

1.02811382665607e+004,-8.54337517408560e+000,-1.36958524191550e-001

1.04246576084112e+004,-8.54337504185283e+000,-1.38870394217807e-001

1.05701804056138e+004,-8.54337490590253e+000,-1.40808952966461e-001

1.07177346253629e+004,-8.54337476613002e+000,-1.42774572999311e-001

1.08673486252606e+004,-8.54337462242795e+000,-1.44767632078050e-001

1.10190511587661e+004,-8.54337447468588e+000,-1.46788513237234e-001

1.11728713807222e+004,-8.54337432279017e+000,-1.48837604860271e-001

1.13288388529580e+004,-8.54337416662409e+000,-1.50915300750177e-001

1.14869835499703e+004,-8.54337400606734e+000,-1.53022000210176e-001

1.16473358646846e+004,-8.54337384099676e+000,-1.55158108113723e-001

1.18099266142953e+004,-8.54337367128524e+000,-1.57324034989327e-001

1.19747870461893e+004,-8.54337349680250e+000,-1.59520197093934e-001

1.21419488439505e+004,-8.54337331741444e+000,-1.61747016495884e-001

1.23114441334492e+004,-8.54337313298284e+000,-1.64004921157870e-001

1.24833054890161e+004,-8.54337294336611e+000,-1.66294345013469e-001

1.26575659397028e+004,-8.54337274841838e+000,-1.68615728055547e-001

1.28342589756290e+004,-8.54337254798999e+000,-1.70969516417383e-001

1.30134185544193e+004,-8.54337234192663e+000,-1.73356162462402e-001

1.31950791077289e+004,-8.54337213006994e+000,-1.75776124867363e-001

1.33792755478611e+004,-8.54337191225699e+000,-1.78229868712751e-001

1.35660432744767e+004,-8.54337168832045e+000,-1.80717865569957e-001

1.37554181813974e+004,-8.54337145808797e+000,-1.83240593595391e-001

1.39474366635040e+004,-8.54337122138280e+000,-1.85798537617652e-001

1.41421356237309e+004,-8.54337097802265e+000,-1.88392189236831e-001

1.43395524801583e+004,-8.54337072782066e+000,-1.91022046912074e-001

1.45397251732031e+004,-8.54337047058422e+000,-1.93688616063795e-001

1.47426921729110e+004,-8.54337020611590e+000,-1.96392409164300e-001

1.49484924863494e+004,-8.54336993421209e+000,-1.99133945843816e-001

1.51571656651040e+004,-8.54336965466394e+000,-2.01913752982989e-001

1.53687518128801e+004,-8.54336936725634e+000,-2.04732364820435e-001

1.55832915932100e+004,-8.54336907176855e+000,-2.07590323049367e-001

1.58008262372675e+004,-8.54336876797312e+000,-2.10488176928487e-001

1.60213975517924e+004,-8.54336845563665e+000,-2.13426483380634e-001

1.62450479271247e+004,-8.54336813451907e+000,-2.16405807104493e-001

1.64718203453514e+004,-8.54336780437325e+000,-2.19426720682601e-001

1.67017583885674e+004,-8.54336746494555e+000,-2.22489804688739e-001

1.69349062472505e+004,-8.54336711597494e+000,-2.25595647802481e-001

1.71713087287550e+004,-8.54336675719317e+000,-2.28744846920269e-001

1.74110112659224e+004,-8.54336638832431e+000,-2.31938007272239e-001

1.76540599258131e+004,-8.54336600908488e+000,-2.35175742535572e-001

1.79005014185594e+004,-8.54336561918308e+000,-2.38458674956799e-001

1.81503831063432e+004,-8.54336521831937e+000,-2.41787435465385e-001

1.84037530124975e+004,-8.54336480618553e+000,-2.45162663800496e-001

1.86606598307361e+004,-8.54336438246451e+000,-2.48585008632455e-001

1.89211529345119e+004,-8.54336394683072e+000,-2.52055127684457e-001

1.91852823865052e+004,-8.54336349894906e+000,-2.55573687863758e-001

1.94530989482457e+004,-8.54336303847523e+000,-2.59141365385939e-001

1.97246540898671e+004,-8.54336256505533e+000,-2.62758845905784e-001

1.99999999999999e+004,-8.54336207832511e+000,-2.66426824651822e-001

2.02791895958005e+004,-8.54336157791052e+000,-2.70146006555500e-001

2.05622765331213e+004,-8.54336106342666e+000,-2.73917106390602e-001

2.08493152168224e+004,-8.54336053447819e+000,-2.77740848906682e-001

2.11403608112276e+004,-8.54335999065821e+000,-2.81617968973236e-001

2.14354692507258e+004,-8.54335943154862e+000,-2.85549211716939e-001

2.17346972505211e+004,-8.54335885671962e+000,-2.89535332665707e-001

2.20381023175322e+004,-8.54335826572910e+000,-2.93577097896028e-001

2.23457427614443e+004,-8.54335765812277e+000,-2.97675284176734e-001

2.26576777059159e+004,-8.54335703343346e+000,-3.01830679121043e-001

2.29739670999406e+004,-8.54335639118074e+000,-3.06044081338008e-001

2.32946717293690e+004,-8.54335573087072e+000,-3.10316300583994e-001

2.36198532285905e+004,-8.54335505199597e+000,-3.14648157918070e-001

2.39495740923785e+004,-8.54335435403423e+000,-3.19040485863933e-001

2.42838976879009e+004,-8.54335363644895e+000,-3.23494128565049e-001

2.46228882668982e+004,-8.54335289868830e+000,-3.28009941949950e-001

2.49666109780322e+004,-8.54335214018516e+000,-3.32588793894356e-001

2.53151318794055e+004,-8.54335136035613e+000,-3.37231564391465e-001

2.56685179512580e+004,-8.54335055860169e+000,-3.41939145717121e-001

2.60268371088386e+004,-8.54334973430523e+000,-3.46712442604720e-001

2.63901582154578e+004,-8.54334888683299e+000,-3.51552372416071e-001

2.67585510957221e+004,-8.54334801553344e+000,-3.56459865319504e-001

2.71320865489533e+004,-8.54334711973635e+000,-3.61435864470053e-001

2.75108363627948e+004,-8.54334619875304e+000,-3.66481326187008e-001

2.78948733270080e+004,-8.54334525187527e+000,-3.71597220140537e-001

2.82842712474618e+004,-8.54334427837501e+000,-3.76784529536841e-001

2.86791049603164e+004,-8.54334327750368e+000,-3.82044251308059e-001

2.90794503464061e+004,-8.54334224849143e+000,-3.87377396304094e-001

2.94853843458219e+004,-8.54334119054731e+000,-3.92784989483751e-001

2.98969849726987e+004,-8.54334010285757e+000,-3.98268070116935e-001

3.03143313302078e+004,-8.54333898458575e+000,-4.03827691980807e-001

3.07375036257601e+004,-8.54333783487203e+000,-4.09464923562190e-001

3.11665831864199e+004,-8.54333665283220e+000,-4.15180848264990e-001

3.16016524745350e+004,-8.54333543755735e+000,-4.20976564616881e-001

3.20427951035848e+004,-8.54333418811293e+000,-4.26853186480882e-001

3.24900958542493e+004,-8.54333290353793e+000,-4.32811843270906e-001

3.29436406907028e+004,-8.54333158284469e+000,-4.38853680165060e-001

3.34035167771346e+004,-8.54333022501748e+000,-4.44979858329885e-001

3.38698124945009e+004,-8.54332882901191e+000,-4.51191555142414e-001

3.43426174575100e+004,-8.54332739375475e+000,-4.57489964413189e-001

3.48220225318448e+004,-8.54332591814189e+000,-4.63876296621534e-001

3.53081198516260e+004,-8.54332440103859e+000,-4.70351779143542e-001

3.58010028371187e+004,-8.54332284127818e+000,-4.76917656489432e-001

3.63007662126863e+004,-8.54332123766103e+000,-4.83575190543674e-001

3.68075060249948e+004,-8.54331958895372e+000,-4.90325660806980e-001

3.73213196614721e+004,-8.54331789388841e+000,-4.97170364640927e-001

3.78423058690237e+004,-8.54331615116128e+000,-5.04110617519779e-001

3.83705647730104e+004,-8.54331435943209e+000,-5.11147753280956e-001

3.89061978964912e+004,-8.54331251732271e+000,-5.18283124383722e-001

3.94493081797342e+004,-8.54331062341634e+000,-5.25518102166788e-001

3.99999999999998e+004,-8.54330867625634e+000,-5.32854077113809e-001

4.05583791916010e+004,-8.54330667434497e+000,-5.40292459120132e-001

4.11245530662425e+004,-8.54330461614239e+000,-5.47834677763810e-001

4.16986304336447e+004,-8.54330250006571e+000,-5.55482182578567e-001

4.22807216224550e+004,-8.54330032448707e+000,-5.63236443336420e-001

4.28709385014515e+004,-8.54329808773302e+000,-5.71098950327350e-001

4.34693945010421e+004,-8.54329578808317e+000,-5.79071214644897e-001

4.40762046350642e+004,-8.54329342376855e+000,-5.87154768479670e-001

4.46914855228886e+004,-8.54329099297039e+000,-5.95351165412236e-001

4.53153554118317e+004,-8.54328849381875e+000,-6.03661980711781e-001

4.59479341998812e+004,-8.54328592439132e+000,-6.12088811638086e-001

4.65893434587380e+004,-8.54328328271144e+000,-6.20633277750700e-001

4.72397064571810e+004,-8.54328056674686e+000,-6.29297021218835e-001

4.78991481847569e+004,-8.54327777440814e+000,-6.38081707137813e-001

4.85677953758016e+004,-8.54327490354722e+000,-6.46989023847528e-001

4.92457765337964e+004,-8.54327195195539e+000,-6.56020683259366e-001

4.99332219560642e+004,-8.54326891736184e+000,-6.65178421183849e-001

5.06302637588109e+004,-8.54326579743197e+000,-6.74463997664340e-001

5.13370359025159e+004,-8.54326258976531e+000,-6.83879197316207e-001

5.20536742176771e+004,-8.54325929189378e+000,-6.93425829670351e-001

5.27803164309155e+004,-8.54325590128024e+000,-7.03105729517778e-001

5.35171021914442e+004,-8.54325241531556e+000,-7.12920757267864e-001

5.42641730979066e+004,-8.54324883131768e+000,-7.22872799300434e-001

5.50216727255895e+004,-8.54324514652874e+000,-7.32963768332752e-001

5.57897466540159e+004,-8.54324135811331e+000,-7.43195603785140e-001

5.65685424949235e+004,-8.54323746315625e+000,-7.53570272153598e-001

5.73582099206328e+004,-8.54323345866026e+000,-7.64089767389439e-001

5.81589006928121e+004,-8.54322934154368e+000,-7.74756111281718e-001

5.89707686916437e+004,-8.54322510863810e+000,-7.85571353845840e-001

5.97939699453972e+004,-8.54322075668600e+000,-7.96537573717563e-001

6.06286626604156e+004,-8.54321628233795e+000,-8.07656878554270e-001

6.14750072515201e+004,-8.54321168215028e+000,-8.18931405439131e-001

6.23331663728396e+004,-8.54320695258252e+000,-8.30363321290398e-001

6.32033049490698e+004,-8.54320208999443e+000,-8.41954823280495e-001

6.40855902071694e+004,-8.54319709064299e+000,-8.53708139259411e-001

6.49801917084985e+004,-8.54319195068025e+000,-8.65625528178750e-001

6.58872813814055e+004,-8.54318666614948e+000,-8.77709280531038e-001

6.68070335542691e+004,-8.54318123298276e+000,-8.89961718786805e-001

6.77396249890018e+004,-8.54317564699756e+000,-9.02385197842354e-001

6.86852349150199e+004,-8.54316990389342e+000,-9.14982105473677e-001

6.96440450636895e+004,-8.54316399924879e+000,-9.27754862794787e-001

7.06162397032520e+004,-8.54315792851787e+000,-9.40705924720915e-001

7.16020056742374e+004,-8.54315168702627e+000,-9.53837780446395e-001

7.26015324253724e+004,-8.54314526996833e+000,-9.67152953917684e-001

7.36150120499896e+004,-8.54313867240288e+000,-9.80654004321954e-001

7.46426393229441e+004,-8.54313188924934e+000,-9.94343526579212e-001

7.56846117380472e+004,-8.54312491528438e+000,-1.00822415183911e+000

7.67411295460207e+004,-8.54311774513712e+000,-1.02229854799012e+000

7.78123957929823e+004,-8.54311037328547e+000,-1.03656942017110e+000

7.88986163594682e+004,-8.54310279405174e+000,-1.05103951129109e+000

7.99999999999995e+004,-8.54309500159808e+000,-1.06571160255894e+000

8.11167583832018e+004,-8.54308698992237e+000,-1.08058851401547e+000

8.22491061324848e+004,-8.54307875285298e+000,-1.09567310507955e+000

8.33972608672892e+004,-8.54307028404442e+000,-1.11096827509531e+000

8.45614432449099e+004,-8.54306157697250e+000,-1.12647696389011e+000

8.57418770029029e+004,-8.54305262492881e+000,-1.14220215234249e+000

8.69387890020841e+004,-8.54304342101589e+000,-1.15814686295366e+000

8.81524092701283e+004,-8.54303395814185e+000,-1.17431416042894e+000

8.93829710457770e+004,-8.54302422901470e+000,-1.19070715226901e+000

9.06307108236633e+004,-8.54301422613683e+000,-1.20732898936654e+000

9.18958683997622e+004,-8.54300394179908e+000,-1.22418286661331e+000

9.31786869174758e+004,-8.54299336807504e+000,-1.24127202351371e+000

9.44794129143618e+004,-8.54298249681447e+000,-1.25859974481039e+000

9.57982963695136e+004,-8.54297131963725e+000,-1.27616936111418e+000

9.71355907516031e+004,-8.54295982792684e+000,-1.29398424954711e+000

9.84915530675926e+004,-8.54294801282348e+000,-1.31204783439046e+000

9.98664439121282e+004,-8.54293586521745e+000,-1.33036358774547e+000

1.01260527517622e+005,-8.54292337574182e+000,-1.34893503020108e+000

1.02674071805032e+005,-8.54291053476535e+000,-1.36776573151107e+000

1.04107348435354e+005,-8.54289733238478e+000,-1.38685931128257e+000

1.05560632861831e+005,-8.54288375841734e+000,-1.40621943967180e+000

1.07034204382888e+005,-8.54286980239269e+000,-1.42584983809150e+000

1.08528346195813e+005,-8.54285545354480e+000,-1.44575427992639e+000

1.10043345451179e+005,-8.54284070080357e+000,-1.46593659126128e+000

1.11579493308032e+005,-8.54282553278616e+000,-1.48640065161630e+000

1.13137084989847e+005,-8.54280993778818e+000,-1.50715039469567e+000

1.14716419841265e+005,-8.54279390377454e+000,-1.52818980914329e+000

1.16317801385624e+005,-8.54277741836998e+000,-1.54952293931340e+000

1.17941537383287e+005,-8.54276046884959e+000,-1.57115388604727e+000

1.19587939890794e+005,-8.54274304212866e+000,-1.59308680746503e+000

1.21257325320831e+005,-8.54272512475271e+000,-1.61532591976514e+000

1.22950014503040e+005,-8.54270670288667e+000,-1.63787549803854e+000

1.24666332745679e+005,-8.54268776230425e+000,-1.66073987709077e+000

1.26406609898139e+005,-8.54266828837692e+000,-1.68392345227782e+000

1.28171180414339e+005,-8.54264826606221e+000,-1.70743068035403e+000

1.29960383416997e+005,-8.54262767989210e+000,-1.73126608032937e+000

1.31774562762811e+005,-8.54260651396081e+000,-1.75543423434252e+000

1.33614067108538e+005,-8.54258475191250e+000,-1.77993978854257e+000

1.35479249978003e+005,-8.54256237692826e+000,-1.80478745398511e+000

1.37370469830040e+005,-8.54253937171295e+000,-1.82998200754192e+000

1.39288090127379e+005,-8.54251571848176e+000,-1.85552829282019e+000

1.41232479406504e+005,-8.54249139894609e+000,-1.88143122109785e+000

1.43204011348474e+005,-8.54246639429934e+000,-1.90769577227072e+000

1.45203064850745e+005,-8.54244068520189e+000,-1.93432699581314e+000

1.47230024099979e+005,-8.54241425176621e+000,-1.96133001175158e+000

1.49285278645888e+005,-8.54238707354095e+000,-1.98871001165389e+000

1.51369223476094e+005,-8.54235912949493e+000,-2.01647225963000e+000

1.53482259092041e+005,-8.54233039800054e+000,-2.04462209334876e+000

1.55624791585964e+005,-8.54230085681679e+000,-2.07316492506787e+000

1.57797232718936e+005,-8.54227048307159e+000,-2.10210624267946e+000

1.59999999999999e+005,-8.54223925324397e+000,-2.13145161076862e+000

1.62233516766403e+005,-8.54220714314524e+000,-2.16120667168964e+000

1.64498212264969e+005,-8.54217412789989e+000,-2.19137714665557e+000

1.66794521734578e+005,-8.54214018192607e+000,-2.22196883684318e+000

1.69122886489819e+005,-8.54210527891531e+000,-2.25298762451386e+000

1.71483754005805e+005,-8.54206939181157e+000,-2.28443947415182e+000

1.73877578004168e+005,-8.54203249278997e+000,-2.31633043361540e+000

1.76304818540256e+005,-8.54199455323451e+000,-2.34866663530870e+000

1.78765942091554e+005,-8.54195554371554e+000,-2.38145429736580e+000

1.81261421647326e+005,-8.54191543396627e+000,-2.41469972485499e+000

1.83791736799524e+005,-8.54187419285884e+000,-2.44840931099773e+000

1.86357373834951e+005,-8.54183178837944e+000,-2.48258953840704e+000

1.88958825828723e+005,-8.54178818760277e+000,-2.51724698034283e+000

1.91596592739027e+005,-8.54174335666601e+000,-2.55238830198363e+000

1.94271181503206e+005,-8.54169726074163e+000,-2.58802026171871e+000

1.96983106135185e+005,-8.54164986400967e+000,-2.62414971245800e+000

1.99732887824256e+005,-8.54160112962919e+000,-2.66078360295893e+000

2.02521055035243e+005,-8.54155101970859e+000,-2.69792897917608e+000

2.05348143610063e+005,-8.54149949527560e+000,-2.73559298562540e+000

2.08214696870707e+005,-8.54144651624578e+000,-2.77378286677259e+000

2.11121265723661e+005,-8.54139204139060e+000,-2.81250596843812e+000

2.14068408765776e+005,-8.54133602830426e+000,-2.85176973922340e+000

2.17056692391625e+005,-8.54127843336964e+000,-2.89158173195879e+000

2.20086690902357e+005,-8.54121921172316e+000,-2.93194960517115e+000

2.23158986616063e+005,-8.54115831721891e+000,-2.97288112457144e+000

2.26274169979693e+005,-8.54109570239114e+000,-3.01438416456780e+000

2.29432839682530e+005,-8.54103131841642e+000,-3.05646670979492e+000

2.32635602771247e+005,-8.54096511507376e+000,-3.09913685667137e+000

2.35883074766574e+005,-8.54089704070450e+000,-3.14240281497441e+000

2.39175879781588e+005,-8.54082704217007e+000,-3.18627290944243e+000

2.42514650641661e+005,-8.54075506480945e+000,-3.23075558139579e+000

2.45900029006080e+005,-8.54068105239446e+000,-3.27585939038605e+000

2.49332665491357e+005,-8.54060494708447e+000,-3.32159301586557e+000

2.52813219796278e+005,-8.54052668937915e+000,-3.36796525888436e+000

2.56342360828676e+005,-8.54044621807039e+000,-3.41498504380928e+000

2.59920766833993e+005,-8.54036347019223e+000,-3.46266142007070e+000

2.63549125525621e+005,-8.54027838096968e+000,-3.51100356393427e+000

2.67228134217075e+005,-8.54019088376593e+000,-3.56002078029722e+000

2.70958499956006e+005,-8.54010091002787e+000,-3.60972250451403e+000

2.74740939660078e+005,-8.54000838923013e+000,-3.66011830424663e+000

2.78576180254757e+005,-8.53991324881729e+000,-3.71121788134433e+000

2.82464958813007e+005,-8.53981541414447e+000,-3.76303107374976e+000

2.86408022696948e+005,-8.53971480841629e+000,-3.81556785743424e+000

2.90406129701488e+005,-8.53961135262348e+000,-3.86883834836296e+000

2.94460048199957e+005,-8.53950496547834e+000,-3.92285280448776e+000

2.98570557291775e+005,-8.53939556334758e+000,-3.97762162777194e+000

3.02738446952187e+005,-8.53928306018353e+000,-4.03315536624444e+000

3.06964518184081e+005,-8.53916736745326e+000,-4.08946471608522e+000

3.11249583171928e+005,-8.53904839406551e+000,-4.14656052374318e+000

3.15594465437872e+005,-8.53892604629524e+000,-4.20445378808584e+000

3.19999999999997e+005,-8.53880022770628e+000,-4.26315566258227e+000

3.24467033532806e+005,-8.53867083907154e+000,-4.32267745751826e+000

3.28996424529938e+005,-8.53853777829066e+000,-4.38303064224826e+000

3.33589043469155e+005,-8.53840094030527e+000,-4.44422684748016e+000

3.38245772979638e+005,-8.53826021701180e+000,-4.50627786759628e+000

3.42967508011610e+005,-8.53811549717171e+000,-4.56919566300997e+000

3.47755156008335e+005,-8.53796666631879e+000,-4.63299236256091e+000

3.52609637080511e+005,-8.53781360666389e+000,-4.69768026594640e+000

3.57531884183106e+005,-8.53765619699684e+000,-4.76327184619143e+000

3.62522843294651e+005,-8.53749431258511e+000,-4.82977975215946e+000

3.67583473599047e+005,-8.53732782506990e+000,-4.89721681110113e+000

3.72714747669902e+005,-8.53715660235876e+000,-4.96559603124582e+000

3.77917651657445e+005,-8.53698050851517e+000,-5.03493060443406e+000

3.83193185478053e+005,-8.53679940364484e+000,-5.10523390879245e+000

3.88542363006410e+005,-8.53661314377838e+000,-5.17651951145353e+000

3.93966212270369e+005,-8.53642158075100e+000,-5.24880117131825e+000

3.99465775648511e+005,-8.53622456207798e+000,-5.32209284186643e+000

4.05042110070485e+005,-8.53602193082710e+000,-5.39640867401111e+000

4.10696287220124e+005,-8.53581352548661e+000,-5.47176301900329e+000

4.16429393741414e+005,-8.53559917982997e+000,-5.54817043138329e+000

4.22242531447321e+005,-8.53537872277603e+000,-5.62564567198347e+000

4.28136817531551e+005,-8.53515197824557e+000,-5.70420371098069e+000

4.34113384783250e+005,-8.53491876501318e+000,-5.78385973100236e+000

4.40173381804713e+005,-8.53467889655525e+000,-5.86462913028449e+000

4.46317973232124e+005,-8.53443218089300e+000,-5.94652752588609e+000

4.52548339959385e+005,-8.53417842043141e+000,-6.02957075695860e+000

4.58865679365059e+005,-8.53391741179325e+000,-6.11377488807251e+000

4.65271205542494e+005,-8.53364894564819e+000,-6.19915621260443e+000

4.71766149533147e+005,-8.53337280653720e+000,-6.28573125618268e+000

4.78351759563174e+005,-8.53308877269180e+000,-6.37351678019575e+000

4.85029301283321e+005,-8.53279661584805e+000,-6.46252978536410e+000

4.91800058012158e+005,-8.53249610105527e+000,-6.55278751537721e+000

4.98665330982714e+005,-8.53218698647935e+000,-6.64430746059646e+000

5.05626439592555e+005,-8.53186902320058e+000,-6.73710736182737e+000

5.12684721657352e+005,-8.53154195500541e+000,-6.83120521416231e+000

5.19841533667984e+005,-8.53120551817286e+000,-6.92661927089384e+000

5.27098251051240e+005,-8.53085944125466e+000,-7.02336804750375e+000

5.34456268434150e+005,-8.53050344484907e+000,-7.12147032572800e+000

5.41916999912011e+005,-8.53013724136916e+000,-7.22094515769757e+000

