Freq.,VOut,OutRef

1.00000000000000e+004,-2.58957684598108e+001,-1.70221879900314e-001

1.01395947979003e+004,-2.58957689332507e+001,-1.72598081944275e-001

1.02811382665607e+004,-2.58957694200005e+001,-1.75007454242854e-001

1.04246576084112e+004,-2.58957699204343e+001,-1.77450459822263e-001

1.05701804056138e+004,-2.58957704349372e+001,-1.79927568171522e-001

1.07177346253629e+004,-2.58957709639042e+001,-1.82439255336683e-001

1.08673486252606e+004,-2.58957715077424e+001,-1.84986004003419e-001

1.10190511587661e+004,-2.58957720668694e+001,-1.87568303599802e-001

1.11728713807222e+004,-2.58957726417153e+001,-1.90186650381631e-001

1.13288388529580e+004,-2.58957732327221e+001,-1.92841547532875e-001

1.14869835499703e+004,-2.58957738403438e+001,-1.95533505262269e-001

1.16473358646846e+004,-2.58957744650478e+001,-1.98263040897627e-001

1.18099266142953e+004,-2.58957751073140e+001,-2.01030678990735e-001

1.19747870461893e+004,-2.58957757676364e+001,-2.03836951411704e-001

1.21419488439505e+004,-2.58957764465223e+001,-2.06682397457870e-001

1.23114441334492e+004,-2.58957771444939e+001,-2.09567563950871e-001

1.24833054890161e+004,-2.58957778620876e+001,-2.12493005346341e-001

1.26575659397028e+004,-2.58957785998551e+001,-2.15459283838851e-001

1.28342589756290e+004,-2.58957793583633e+001,-2.18466969471495e-001

1.30134185544193e+004,-2.58957801381954e+001,-2.21516640240912e-001

1.31950791077289e+004,-2.58957809399510e+001,-2.24608882212731e-001

1.33792755478611e+004,-2.58957817642461e+001,-2.27744289633635e-001

1.35660432744767e+004,-2.58957826117147e+001,-2.30923465042312e-001

1.37554181813974e+004,-2.58957834830080e+001,-2.34147019389749e-001

1.39474366635040e+004,-2.58957843787958e+001,-2.37415572153180e-001

1.41421356237309e+004,-2.58957852997667e+001,-2.40729751456173e-001

1.43395524801583e+004,-2.58957862466286e+001,-2.44090194189421e-001

1.45397251732031e+004,-2.58957872201095e+001,-2.47497546132156e-001

1.47426921729110e+004,-2.58957882209574e+001,-2.50952462079117e-001

1.49484924863494e+004,-2.58957892499420e+001,-2.54455605960518e-001

1.51571656651040e+004,-2.58957903078540e+001,-2.58007650977358e-001

1.53687518128801e+004,-2.58957913955067e+001,-2.61609279723172e-001

1.55832915932100e+004,-2.58957925137361e+001,-2.65261184320105e-001

1.58008262372675e+004,-2.58957936634018e+001,-2.68964066550227e-001

1.60213975517924e+004,-2.58957948453874e+001,-2.72718637990115e-001

1.62450479271247e+004,-2.58957960606016e+001,-2.76525620146843e-001

1.64718203453514e+004,-2.58957973099785e+001,-2.80385744597961e-001

1.67017583885674e+004,-2.58957985944783e+001,-2.84299753132639e-001

1.69349062472505e+004,-2.58957999150885e+001,-2.88268397890052e-001

1.71713087287550e+004,-2.58958012728240e+001,-2.92292441509800e-001

1.74110112659224e+004,-2.58958026687285e+001,-2.96372657273509e-001

1.76540599258131e+004,-2.58958041038750e+001,-3.00509829254035e-001

1.79005014185594e+004,-2.58958055793667e+001,-3.04704752468805e-001

1.81503831063432e+004,-2.58958070963376e+001,-3.08958233029782e-001

1.84037530124975e+004,-2.58958086559536e+001,-3.13271088299597e-001

1.86606598307361e+004,-2.58958102594137e+001,-3.17644147046535e-001

1.89211529345119e+004,-2.58958119079502e+001,-3.22078249606606e-001

1.91852823865052e+004,-2.58958136028304e+001,-3.26574248042006e-001

1.94530989482457e+004,-2.58958153453567e+001,-3.31133006308087e-001

1.97246540898671e+004,-2.58958171368686e+001,-3.35755400415518e-001

1.99999999999999e+004,-2.58958189787431e+001,-3.40442318599245e-001

2.02791895958005e+004,-2.58958208723959e+001,-3.45194661492135e-001

2.05622765331213e+004,-2.58958228192824e+001,-3.50013342293515e-001

2.08493152168224e+004,-2.58958248208991e+001,-3.54899286947608e-001

2.11403608112276e+004,-2.58958268787841e+001,-3.59853434320457e-001

2.14354692507258e+004,-2.58958289945194e+001,-3.64876736378577e-001

2.17346972505211e+004,-2.58958311697310e+001,-3.69970158373379e-001

2.20381023175322e+004,-2.58958334060906e+001,-3.75134679027155e-001

2.23457427614443e+004,-2.58958357053172e+001,-3.80371290717772e-001

2.26576777059159e+004,-2.58958380691777e+001,-3.85680999671994e-001

2.29739670999406e+004,-2.58958404994890e+001,-3.91064826157451e-001

2.32946717293690e+004,-2.58958429981190e+001,-3.96523804678506e-001

2.36198532285905e+004,-2.58958455669877e+001,-4.02058984175945e-001

2.39495740923785e+004,-2.58958482080696e+001,-4.07671428225320e-001

2.42838976879009e+004,-2.58958509233946e+001,-4.13362215242716e-001

2.46228882668982e+004,-2.58958537150492e+001,-4.19132438694366e-001

2.49666109780322e+004,-2.58958565851790e+001,-4.24983207301068e-001

2.53151318794055e+004,-2.58958595359897e+001,-4.30915645254837e-001

2.56685179512580e+004,-2.58958625697489e+001,-4.36930892433142e-001

2.60268371088386e+004,-2.58958656887882e+001,-4.43030104617228e-001

2.63901582154578e+004,-2.58958688955046e+001,-4.49214453714794e-001

2.67585510957221e+004,-2.58958721923621e+001,-4.55485127985235e-001

2.71320865489533e+004,-2.58958755818945e+001,-4.61843332264370e-001

2.75108363627948e+004,-2.58958790667065e+001,-4.68290288198956e-001

2.78948733270080e+004,-2.58958826494759e+001,-4.74827234479922e-001

2.82842712474618e+004,-2.58958863329560e+001,-4.81455427079164e-001

2.86791049603164e+004,-2.58958901199774e+001,-4.88176139490757e-001

2.90794503464061e+004,-2.58958940134498e+001,-4.94990662976196e-001

2.94853843458219e+004,-2.58958980163654e+001,-5.01900306809381e-001

2.98969849726987e+004,-2.58959021317999e+001,-5.08906398529671e-001

3.03143313302078e+004,-2.58959063629155e+001,-5.16010284197235e-001

3.07375036257601e+004,-2.58959107129636e+001,-5.23213328647239e-001

3.11665831864199e+004,-2.58959151852864e+001,-5.30516915756168e-001

3.16016524745350e+004,-2.58959197833205e+001,-5.37922448702791e-001

3.20427951035848e+004,-2.58959245105986e+001,-5.45431350240473e-001

3.24900958542493e+004,-2.58959293707531e+001,-5.53045062966811e-001

3.29436406907028e+004,-2.58959343675180e+001,-5.60765049603618e-001

3.34035167771346e+004,-2.58959395047325e+001,-5.68592793272431e-001

3.38698124945009e+004,-2.58959447863435e+001,-5.76529797783346e-001

3.43426174575100e+004,-2.58959502164089e+001,-5.84577587919278e-001

3.48220225318448e+004,-2.58959557991004e+001,-5.92737709730809e-001

3.53081198516260e+004,-2.58959615387071e+001,-6.01011730830111e-001

3.58010028371187e+004,-2.58959674396382e+001,-6.09401240693908e-001

3.63007662126863e+004,-2.58959735064274e+001,-6.17907850963004e-001

3.68075060249948e+004,-2.58959797437350e+001,-6.26533195757067e-001

3.73213196614721e+004,-2.58959861563525e+001,-6.35278931982031e-001

3.78423058690237e+004,-2.58959927492063e+001,-6.44146739649334e-001

3.83705647730104e+004,-2.58959995273606e+001,-6.53138322199505e-001

3.89061978964912e+004,-2.58960064960222e+001,-6.62255406823451e-001

3.94493081797342e+004,-2.58960136605439e+001,-6.71499744797786e-001

3.99999999999998e+004,-2.58960210264290e+001,-6.80873111816710e-001

4.05583791916010e+004,-2.58960285993350e+001,-6.90377308333396e-001

4.11245530662425e+004,-2.58960363850789e+001,-7.00014159901776e-001

4.16986304336447e+004,-2.58960443896404e+001,-7.09785517529698e-001

4.22807216224550e+004,-2.58960526191673e+001,-7.19693258029964e-001

4.28709385014515e+004,-2.58960610799802e+001,-7.29739284379111e-001

4.34693945010421e+004,-2.58960697785771e+001,-7.39925526082510e-001

4.40762046350642e+004,-2.58960787216381e+001,-7.50253939542718e-001

4.46914855228886e+004,-2.58960879160312e+001,-7.60726508433116e-001

4.53153554118317e+004,-2.58960973688171e+001,-7.71345244076425e-001

4.59479341998812e+004,-2.58961070872548e+001,-7.82112185830107e-001

4.65893434587380e+004,-2.58961170788068e+001,-7.93029401475628e-001

4.72397064571810e+004,-2.58961273511453e+001,-8.04098987611722e-001

4.78991481847569e+004,-2.58961379121577e+001,-8.15323070057416e-001

4.85677953758016e+004,-2.58961487699530e+001,-8.26703804255574e-001

4.92457765337964e+004,-2.58961599328675e+001,-8.38243375685257e-001

4.99332219560642e+004,-2.58961714094717e+001,-8.49944000279022e-001

5.06302637588109e+004,-2.58961832085763e+001,-8.61807924845232e-001

5.13370359025159e+004,-2.58961953392396e+001,-8.73837427496850e-001

5.20536742176771e+004,-2.58962078107740e+001,-8.86034818085226e-001

5.27803164309155e+004,-2.58962206327530e+001,-8.98402438642132e-001

5.35171021914442e+004,-2.58962338150187e+001,-9.10942663824536e-001

5.42641730979066e+004,-2.58962473676895e+001,-9.23657901367979e-001

5.50216727255895e+004,-2.58962613011677e+001,-9.36550592545457e-001

5.57897466540159e+004,-2.58962756261472e+001,-9.49623212632342e-001

5.65685424949235e+004,-2.58962903536220e+001,-9.62878271377298e-001

5.73582099206328e+004,-2.58963054948943e+001,-9.76318313481096e-001

5.81589006928121e+004,-2.58963210615835e+001,-9.89945919079751e-001

5.89707686916437e+004,-2.58963370656348e+001,-1.00376370423747e+000

5.97939699453972e+004,-2.58963535193283e+001,-1.01777432144177e+000

6.06286626604156e+004,-2.58963704352886e+001,-1.03198046010951e+000

6.14750072515201e+004,-2.58963878264939e+001,-1.04638484709974e+000

6.23331663728396e+004,-2.58964057062869e+001,-1.06099024722790e+000

6.32033049490698e+004,-2.58964240883837e+001,-1.07579946379571e+000

6.40855902071694e+004,-2.58964429868854e+001,-1.09081533912065e+000

6.49801917084985e+004,-2.58964624162879e+001,-1.10604075507721e+000

6.58872813814055e+004,-2.58964823914939e+001,-1.12147863364250e+000

6.68070335542691e+004,-2.58965029278234e+001,-1.13713193745315e+000

6.77396249890018e+004,-2.58965240410256e+001,-1.15300367036530e+000

6.86852349150199e+004,-2.58965457472914e+001,-1.16909687802460e+000

6.96440450636895e+004,-2.58965680632650e+001,-1.18541464844458e+000

7.06162397032520e+004,-2.58965910060571e+001,-1.20196011259049e+000

7.16020056742374e+004,-2.58966145932575e+001,-1.21873644497365e+000

7.26015324253724e+004,-2.58966388429489e+001,-1.23574686425133e+000

7.36150120499896e+004,-2.58966637737202e+001,-1.25299463383663e+000

7.46426393229441e+004,-2.58966894046812e+001,-1.27048306251553e+000

7.56846117380472e+004,-2.58967157554763e+001,-1.28821550507327e+000

7.67411295460207e+004,-2.58967428463002e+001,-1.30619536292805e+000

7.78123957929823e+004,-2.58967706979130e+001,-1.32442608477232e+000

7.88986163594682e+004,-2.58967993316557e+001,-1.34291116722655e+000

7.99999999999995e+004,-2.58968287694666e+001,-1.36165415549812e+000

8.11167583832018e+004,-2.58968590338980e+001,-1.38065864404837e+000

8.22491061324848e+004,-2.58968901481333e+001,-1.39992827727362e+000

8.33972608672892e+004,-2.58969221360041e+001,-1.41946675018950e+000

8.45614432449099e+004,-2.58969550220090e+001,-1.43927780912797e+000

8.57418770029029e+004,-2.58969888313318e+001,-1.45936525244166e+000

8.69387890020841e+004,-2.58970235898603e+001,-1.47973293122005e+000

8.81524092701283e+004,-2.58970593242062e+001,-1.50038475001216e+000

8.93829710457770e+004,-2.58970960617254e+001,-1.52132466756055e+000

9.06307108236633e+004,-2.58971338305383e+001,-1.54255669754537e+000

9.18958683997622e+004,-2.58971726595510e+001,-1.56408490933686e+000

9.31786869174758e+004,-2.58972125784775e+001,-1.58591342875922e+000

9.44794129143618e+004,-2.58972536178620e+001,-1.60804643886305e+000

9.57982963695136e+004,-2.58972958091019e+001,-1.63048818071010e+000

9.71355907516031e+004,-2.58973391844712e+001,-1.65324295416570e+000

9.84915530675926e+004,-2.58973837771454e+001,-1.67631511870390e+000

9.98664439121282e+004,-2.58974296212261e+001,-1.69970909422117e+000

1.01260527517622e+005,-2.58974767517665e+001,-1.72342936186288e+000

1.02674071805032e+005,-2.58975252047985e+001,-1.74748046485863e+000

1.04107348435354e+005,-2.58975750173588e+001,-1.77186700936992e+000

1.05560632861831e+005,-2.58976262275175e+001,-1.79659366534756e+000

1.07034204382888e+005,-2.58976788744066e+001,-1.82166516740099e+000

1.08528346195813e+005,-2.58977329982489e+001,-1.84708631567873e+000

1.10043345451179e+005,-2.58977886403887e+001,-1.87286197676034e+000

1.11579493308032e+005,-2.58978458433223e+001,-1.89899708455971e+000

1.13137084989847e+005,-2.58979046507304e+001,-1.92549664124008e+000

1.14716419841265e+005,-2.58979651075101e+001,-1.95236571813969e+000

1.16317801385624e+005,-2.58980272598093e+001,-1.97960945671149e+000

1.17941537383287e+005,-2.58980911550603e+001,-2.00723306947331e+000

1.19587939890794e+005,-2.58981568420160e+001,-2.03524184097020e+000

1.21257325320831e+005,-2.58982243707857e+001,-2.06364112874942e+000

1.22950014503040e+005,-2.58982937928729e+001,-2.09243636434750e+000

1.24666332745679e+005,-2.58983651612130e+001,-2.12163305429071e+000

1.26406609898139e+005,-2.58984385302138e+001,-2.15123678110534e+000

1.28171180414339e+005,-2.58985139557948e+001,-2.18125320434533e+000

1.29960383416997e+005,-2.58985914954293e+001,-2.21168806162813e+000

1.31774562762811e+005,-2.58986712081873e+001,-2.24254716968570e+000

1.33614067108538e+005,-2.58987531547785e+001,-2.27383642542965e+000

1.35479249978003e+005,-2.58988373975981e+001,-2.30556180702669e+000

1.37370469830040e+005,-2.58989240007726e+001,-2.33772937499045e+000

1.39288090127379e+005,-2.58990130302071e+001,-2.37034527328383e+000

1.41232479406504e+005,-2.58991045536342e+001,-2.40341573043824e+000

1.43204011348474e+005,-2.58991986406636e+001,-2.43694706068260e+000

1.45203064850745e+005,-2.58992953628340e+001,-2.47094566508994e+000

1.47230024099979e+005,-2.58993947936651e+001,-2.50541803273543e+000

1.49285278645888e+005,-2.58994970087119e+001,-2.54037074186904e+000

1.51369223476094e+005,-2.58996020856203e+001,-2.57581046110288e+000

1.53482259092041e+005,-2.58997101041839e+001,-2.61174395061184e+000

1.55624791585964e+005,-2.58998211464022e+001,-2.64817806334960e+000

1.57797232718936e+005,-2.58999352965410e+001,-2.68511974627880e+000

1.59999999999999e+005,-2.59000526411936e+001,-2.72257604161469e+000

1.62233516766403e+005,-2.59001732693443e+001,-2.76055408808539e+000

1.64498212264969e+005,-2.59002972724325e+001,-2.79906112220540e+000

1.66794521734578e+005,-2.59004247444201e+001,-2.83810447956408e+000

1.69122886489819e+005,-2.59005557818590e+001,-2.87769159613019e+000

1.71483754005805e+005,-2.59006904839615e+001,-2.91783000957102e+000

1.73877578004168e+005,-2.59008289526719e+001,-2.95852736058539e+000

1.76304818540256e+005,-2.59009712927402e+001,-2.99979139425372e+000

1.78765942091554e+005,-2.59011176117978e+001,-3.04162996140291e+000

1.81261421647326e+005,-2.59012680204348e+001,-3.08405101998537e+000

1.83791736799524e+005,-2.59014226322795e+001,-3.12706263647624e+000

1.86357373834951e+005,-2.59015815640803e+001,-3.17067298728293e+000

1.88958825828723e+005,-2.59017449357890e+001,-3.21489036017298e+000

1.91596592739027e+005,-2.59019128706464e+001,-3.25972315571629e+000

1.94271181503206e+005,-2.59020854952706e+001,-3.30517988874377e+000

1.96983106135185e+005,-2.59022629397471e+001,-3.35126918982052e+000

1.99732887824256e+005,-2.59024453377210e+001,-3.39799980673759e+000

2.02521055035243e+005,-2.59026328264921e+001,-3.44538060601670e+000

2.05348143610063e+005,-2.59028255471119e+001,-3.49342057443292e+000

2.08214696870707e+005,-2.59030236444830e+001,-3.54212882055309e+000

2.11121265723661e+005,-2.59032272674615e+001,-3.59151457628980e+000

2.14068408765776e+005,-2.59034365689617e+001,-3.64158719847190e+000

2.17056692391625e+005,-2.59036517060628e+001,-3.69235617043139e+000

2.20086690902357e+005,-2.59038728401196e+001,-3.74383110360612e+000

2.23158986616063e+005,-2.59041001368742e+001,-3.79602173915885e+000

2.26274169979693e+005,-2.59043337665722e+001,-3.84893794961267e+000

2.29432839682530e+005,-2.59045739040800e+001,-3.90258974050318e+000

2.32635602771247e+005,-2.59048207290070e+001,-3.95698725204510e+000

2.35883074766574e+005,-2.59050744258287e+001,-4.01214076081794e+000

2.39175879781588e+005,-2.59053351840141e+001,-4.06806068146560e+000

2.42514650641661e+005,-2.59056031981557e+001,-4.12475756841318e+000

2.45900029006080e+005,-2.59058786681030e+001,-4.18224211760042e+000

2.49332665491357e+005,-2.59061617990986e+001,-4.24052516823004e+000

2.52813219796278e+005,-2.59064528019180e+001,-4.29961770453403e+000

2.56342360828676e+005,-2.59067518930129e+001,-4.35953085755462e+000

2.59920766833993e+005,-2.59070592946571e+001,-4.42027590694175e+000

2.63549125525621e+005,-2.59073752350966e+001,-4.48186428276784e+000

2.67228134217075e+005,-2.59076999487032e+001,-4.54430756735613e+000

2.70958499956006e+005,-2.59080336761309e+001,-4.60761749712748e+000

2.74740939660078e+005,-2.59083766644769e+001,-4.67180596446144e+000

2.78576180254757e+005,-2.59087291674460e+001,-4.73688501957337e+000

2.82464958813007e+005,-2.59090914455183e+001,-4.80286687240851e+000

2.86408022696948e+005,-2.59094637661215e+001,-4.86976389454974e+000

2.90406129701488e+005,-2.59098464038066e+001,-4.93758862114257e+000

2.94460048199957e+005,-2.59102396404279e+001,-5.00635375283477e+000

2.98570557291775e+005,-2.59106437653271e+001,-5.07607215773132e+000

3.02738446952187e+005,-2.59110590755210e+001,-5.14675687336490e+000

3.06964518184081e+005,-2.59114858758939e+001,-5.21842110868180e+000

3.11249583171928e+005,-2.59119244793946e+001,-5.29107824604200e+000

3.15594465437872e+005,-2.59123752072368e+001,-5.36474184323495e+000

3.19999999999997e+005,-2.59128383891046e+001,-5.43942563550936e+000

3.24467033532806e+005,-2.59133143633627e+001,-5.51514353761822e+000

3.28996424529938e+005,-2.59138034772704e+001,-5.59190964587841e+000

3.33589043469155e+005,-2.59143060872009e+001,-5.66973824024382e+000

3.38245772979638e+005,-2.59148225588650e+001,-5.74864378639322e+000

3.42967508011610e+005,-2.59153532675398e+001,-5.82864093783224e+000

3.47755156008335e+005,-2.59158985983024e+001,-5.90974453800926e+000

3.52609637080511e+005,-2.59164589462679e+001,-5.99196962244420e+000

3.57531884183106e+005,-2.59170347168330e+001,-6.07533142087226e+000

3.62522843294651e+005,-2.59176263259251e+001,-6.15984535939967e+000

3.67583473599047e+005,-2.59182342002553e+001,-6.24552706267351e+000

3.72714747669902e+005,-2.59188587775780e+001,-6.33239235606468e+000

3.77917651657445e+005,-2.59195005069553e+001,-6.42045726786278e+000

3.83193185478053e+005,-2.59201598490263e+001,-6.50973803148501e+000

3.88542363006410e+005,-2.59208372762834e+001,-6.60025108769661e+000

3.93966212270369e+005,-2.59215332733523e+001,-6.69201308684436e+000

3.99465775648511e+005,-2.59222483372793e+001,-6.78504089110202e+000

4.05042110070485e+005,-2.59229829778237e+001,-6.87935157672780e+000

4.10696287220124e+005,-2.59237377177559e+001,-6.97496243633388e+000

4.16429393741414e+005,-2.59245130931617e+001,-7.07189098116777e+000

4.22242531447321e+005,-2.59253096537530e+001,-7.17015494340510e+000

4.28136817531551e+005,-2.59261279631838e+001,-7.26977227845361e+000

4.34113384783250e+005,-2.59269685993734e+001,-7.37076116726972e+000

4.40173381804713e+005,-2.59278321548354e+001,-7.47314001868413e+000

4.46317973232124e+005,-2.59287192370133e+001,-7.57692747174061e+000

4.52548339959385e+005,-2.59296304686224e+001,-7.68214239804439e+000

4.58865679365059e+005,-2.59305664879992e+001,-7.78880390412183e+000

4.65271205542494e+005,-2.59315279494568e+001,-7.89693133379047e+000

4.71766149533147e+005,-2.59325155236476e+001,-8.00654427054002e+000

4.78351759563174e+005,-2.59335298979326e+001,-8.11766253992341e+000

4.85029301283321e+005,-2.59345717767591e+001,-8.23030621195857e+000

4.91800058012158e+005,-2.59356418820441e+001,-8.34449560353941e+000

4.98665330982714e+005,-2.59367409535666e+001,-8.46025128085884e+000

5.05626439592555e+005,-2.59378697493665e+001,-8.57759406183954e+000

5.12684721657352e+005,-2.59390290461524e+001,-8.69654501857601e+000

5.19841533667984e+005,-2.59402196397158e+001,-8.81712547978644e+000

5.27098251051240e+005,-2.59414423453553e+001,-8.93935703327336e+000

5.34456268434150e+005,-2.59426979983078e+001,-9.06326152839443e+000

5.41916999912011e+005,-2.59439874541886e+001,-9.18886107854281e+000

