Freq.,VOut,OutRef

1.00000000000000e+004,-1.72340174450684e+000,-1.44887346637891e-002

1.01395947979003e+004,-1.72340177129938e+000,-1.46909887051060e-002

1.02811382665607e+004,-1.72340179884443e+000,-1.48960660628196e-002

1.04246576084112e+004,-1.72340182716396e+000,-1.51040061418496e-002

1.05701804056138e+004,-1.72340185627989e+000,-1.53148489007551e-002

1.07177346253629e+004,-1.72340188621434e+000,-1.55286348590903e-002

1.08673486252606e+004,-1.72340191698979e+000,-1.57454051036157e-002

1.10190511587661e+004,-1.72340194863053e+000,-1.59652012865034e-002

1.11728713807222e+004,-1.72340198116107e+000,-1.61880656445713e-002

1.13288388529580e+004,-1.72340201460598e+000,-1.64140410082369e-002

1.14869835499703e+004,-1.72340204899101e+000,-1.66431708021109e-002

1.16473358646846e+004,-1.72340208434249e+000,-1.68754990584368e-002

1.18099266142953e+004,-1.72340212068773e+000,-1.71110704220160e-002

1.19747870461893e+004,-1.72340215805440e+000,-1.73499301634878e-002

1.21419488439505e+004,-1.72340219647200e+000,-1.75921241784175e-002

1.23114441334492e+004,-1.72340223596945e+000,-1.78376990121439e-002

1.24833054890161e+004,-1.72340227657711e+000,-1.80867018554315e-002

1.26575659397028e+004,-1.72340231832617e+000,-1.83391805580637e-002

1.28342589756290e+004,-1.72340236124876e+000,-1.85951836368352e-002

1.30134185544193e+004,-1.72340240537814e+000,-1.88547602844300e-002

1.31950791077289e+004,-1.72340245074756e+000,-1.91179603862248e-002

1.33792755478611e+004,-1.72340249739260e+000,-1.93848345143543e-002

1.35660432744767e+004,-1.72340254534890e+000,-1.96554339534531e-002

1.37554181813974e+004,-1.72340259465309e+000,-1.99298107033859e-002

1.39474366635040e+004,-1.72340264534302e+000,-2.02080174887594e-002

1.41421356237309e+004,-1.72340269745818e+000,-2.04901077660240e-002

1.43395524801583e+004,-1.72340275103821e+000,-2.07761357440413e-002

1.45397251732031e+004,-1.72340280612414e+000,-2.10661563864424e-002

1.47426921729110e+004,-1.72340286275859e+000,-2.13602254207297e-002

1.49484924863494e+004,-1.72340292098490e+000,-2.16583993555661e-002

1.51571656651040e+004,-1.72340298084792e+000,-2.19607354858484e-002

1.53687518128801e+004,-1.72340304239333e+000,-2.22672919093473e-002

1.55832915932100e+004,-1.72340310566888e+000,-2.25781275288607e-002

1.58008262372675e+004,-1.72340317072335e+000,-2.28933020716803e-002

1.60213975517924e+004,-1.72340323760585e+000,-2.32128761049797e-002

1.62450479271247e+004,-1.72340330636859e+000,-2.35369110301013e-002

1.64718203453514e+004,-1.72340337706375e+000,-2.38654691149077e-002

1.67017583885674e+004,-1.72340344974652e+000,-2.41986134859203e-002

1.69349062472505e+004,-1.72340352447194e+000,-2.45364081615609e-002

1.71713087287550e+004,-1.72340360129742e+000,-2.48789180484310e-002

1.74110112659224e+004,-1.72340368028275e+000,-2.52262089535568e-002

1.76540599258131e+004,-1.72340376148775e+000,-2.55783476133843e-002

1.79005014185594e+004,-1.72340384497516e+000,-2.59354016867216e-002

1.81503831063432e+004,-1.72340393080930e+000,-2.62974397780963e-002

1.84037530124975e+004,-1.72340401905547e+000,-2.66645314544283e-002

1.86606598307361e+004,-1.72340410978235e+000,-2.70367472437644e-002

1.89211529345119e+004,-1.72340420305917e+000,-2.74141586663171e-002

1.91852823865052e+004,-1.72340429895721e+000,-2.77968382395674e-002

1.94530989482457e+004,-1.72340439755082e+000,-2.81848594864309e-002

1.97246540898671e+004,-1.72340449891536e+000,-2.85782969622526e-002

1.99999999999999e+004,-1.72340460312855e+000,-2.89772262609508e-002

2.02791895958005e+004,-1.72340471027089e+000,-2.93817240269926e-002

2.05622765331213e+004,-1.72340482042434e+000,-2.97918679796994e-002

2.08493152168224e+004,-1.72340493367319e+000,-3.02077369219590e-002

2.11403608112276e+004,-1.72340505010510e+000,-3.06294107501013e-002

2.14354692507258e+004,-1.72340516980933e+000,-3.10569704798330e-002

2.17346972505211e+004,-1.72340529287722e+000,-3.14904982607413e-002

2.20381023175322e+004,-1.72340541940382e+000,-3.19300773801103e-002

2.23457427614443e+004,-1.72340554948618e+000,-3.23757922918723e-002

2.26576777059159e+004,-1.72340568322417e+000,-3.28277286272020e-002

2.29739670999406e+004,-1.72340582072038e+000,-3.32859732120664e-002

2.32946717293690e+004,-1.72340596208066e+000,-3.37506140817076e-002

2.36198532285905e+004,-1.72340610741316e+000,-3.42217405028401e-002

2.39495740923785e+004,-1.72340625682946e+000,-3.46994429852970e-002

2.42838976879009e+004,-1.72340641044469e+000,-3.51838132986015e-002

2.46228882668982e+004,-1.72340656837653e+000,-3.56749444963341e-002

2.49666109780322e+004,-1.72340673074621e+000,-3.61729309281535e-002

2.53151318794055e+004,-1.72340689767845e+000,-3.66778682596368e-002

2.56685179512580e+004,-1.72340706930122e+000,-3.71898534913799e-002

2.60268371088386e+004,-1.72340724574626e+000,-3.77089849762419e-002

2.63901582154578e+004,-1.72340742714939e+000,-3.82353624356464e-002

2.67585510957221e+004,-1.72340761364912e+000,-3.87690869894875e-002

2.71320865489533e+004,-1.72340780538929e+000,-3.93102611577042e-002

2.75108363627948e+004,-1.72340800251671e+000,-3.98589888971052e-002

2.78948733270080e+004,-1.72340820518275e+000,-4.04153756112261e-002

2.82842712474618e+004,-1.72340841354259e+000,-4.09795281760765e-002

2.86791049603164e+004,-1.72340862775651e+000,-4.15515549526157e-002

2.90794503464061e+004,-1.72340884798883e+000,-4.21315658162012e-002

2.94853843458219e+004,-1.72340907440820e+000,-4.27196721754820e-002

2.98969849726987e+004,-1.72340930718885e+000,-4.33159869865245e-002

3.03143313302078e+004,-1.72340954650893e+000,-4.39206247872749e-002

3.07375036257601e+004,-1.72340979255214e+000,-4.45337017078465e-002

3.11665831864199e+004,-1.72341004550695e+000,-4.51553355003058e-002

3.16016524745350e+004,-1.72341030556768e+000,-4.57856455537865e-002

3.20427951035848e+004,-1.72341057293390e+000,-4.64247529237920e-002

3.24900958542493e+004,-1.72341084781043e+000,-4.70727803544532e-002

3.29436406907028e+004,-1.72341113040798e+000,-4.77298522999704e-002

3.34035167771346e+004,-1.72341142094342e+000,-4.83960949478162e-002

3.38698124945009e+004,-1.72341171963937e+000,-4.90716362456738e-002

3.43426174575100e+004,-1.72341202672490e+000,-4.97566059233244e-002

3.48220225318448e+004,-1.72341234243560e+000,-5.04511355172243e-002

3.53081198516260e+004,-1.72341266701297e+000,-5.11553584012958e-002

3.58010028371187e+004,-1.72341300070625e+000,-5.18694098017582e-002

3.63007662126863e+004,-1.72341334377110e+000,-5.25934268327450e-002

3.68075060249948e+004,-1.72341369647033e+000,-5.33275485182381e-002

3.73213196614721e+004,-1.72341405907417e+000,-5.40719158188995e-002

3.78423058690237e+004,-1.72341443186066e+000,-5.48266716576596e-002

3.83705647730104e+004,-1.72341481511512e+000,-5.55919609510268e-002

3.89061978964912e+004,-1.72341520913139e+000,-5.63679306314027e-002

3.94493081797342e+004,-1.72341561421106e+000,-5.71547296801743e-002

3.99999999999998e+004,-1.72341603066457e+000,-5.79525091509696e-002

4.05583791916010e+004,-1.72341645881085e+000,-5.87614222029491e-002

4.11245530662425e+004,-1.72341689897759e+000,-5.95816241286660e-002

4.16986304336447e+004,-1.72341735150199e+000,-6.04132723807448e-002

4.22807216224550e+004,-1.72341781673049e+000,-6.12565266056378e-002

4.28709385014515e+004,-1.72341829501885e+000,-6.21115486745817e-002

4.34693945010421e+004,-1.72341878673358e+000,-6.29785027073605e-002

4.40762046350642e+004,-1.72341929225074e+000,-6.38575551127909e-002

4.46914855228886e+004,-1.72341981195741e+000,-6.47488746129463e-002

4.53153554118317e+004,-1.72342034625092e+000,-6.56526322812369e-002

4.59479341998812e+004,-1.72342089554008e+000,-6.65690015703565e-002

4.65893434587380e+004,-1.72342146024523e+000,-6.74981583452817e-002

4.72397064571810e+004,-1.72342204079789e+000,-6.84402809221536e-002

4.78991481847569e+004,-1.72342263764233e+000,-6.93955500936378e-002

4.85677953758016e+004,-1.72342325123465e+000,-7.03641491709108e-002

4.92457765337964e+004,-1.72342388204395e+000,-7.13462640140442e-002

4.99332219560642e+004,-1.72342453055240e+000,-7.23420830677660e-002

5.06302637588109e+004,-1.72342519725561e+000,-7.33517973985841e-002

5.13370359025159e+004,-1.72342588266274e+000,-7.43756007313347e-002

5.20536742176771e+004,-1.72342658729773e+000,-7.54136894807569e-002

5.27803164309155e+004,-1.72342731169847e+000,-7.64662627973502e-002

5.35171021914442e+004,-1.72342805641853e+000,-7.75335225956123e-002

5.42641730979066e+004,-1.72342882202597e+000,-7.86156736024574e-002

5.50216727255895e+004,-1.72342960910561e+000,-7.97129233846472e-002

5.57897466540159e+004,-1.72343041825801e+000,-8.08254823968592e-002

5.65685424949235e+004,-1.72343125010091e+000,-8.19535640155362e-002

5.73582099206328e+004,-1.72343210526828e+000,-8.30973845876858e-002

5.81589006928121e+004,-1.72343298441293e+000,-8.42571634578286e-002

5.89707686916437e+004,-1.72343388820493e+000,-8.54331230236005e-002

5.97939699453972e+004,-1.72343481733333e+000,-8.66254887686400e-002

6.06286626604156e+004,-1.72343577250650e+000,-8.78344893071634e-002

6.14750072515201e+004,-1.72343675445205e+000,-8.90603564296200e-002

6.23331663728396e+004,-1.72343776391825e+000,-9.03033251418672e-002

6.32033049490698e+004,-1.72343880167395e+000,-9.15636337130647e-002

6.40855902071694e+004,-1.72343986850909e+000,-9.28415237201568e-002

6.49801917084985e+004,-1.72344096523602e+000,-9.41372400891227e-002

6.58872813814055e+004,-1.72344209268915e+000,-9.54510311473017e-002

6.68070335542691e+004,-1.72344325172643e+000,-9.67831486630450e-002

6.77396249890018e+004,-1.72344444322923e+000,-9.81338478997686e-002

6.86852349150199e+004,-1.72344566810352e+000,-9.95033876578878e-002

6.96440450636895e+004,-1.72344692728043e+000,-1.00892030326649e-001

7.06162397032520e+004,-1.72344822171650e+000,-1.02300041933171e-001

7.16020056742374e+004,-1.72344955239527e+000,-1.03727692188448e-001

7.26015324253724e+004,-1.72345092032716e+000,-1.05175254542029e-001

7.36150120499896e+004,-1.72345232655050e+000,-1.06643006231960e-001

7.46426393229441e+004,-1.72345377213229e+000,-1.08131228335088e-001

7.56846117380472e+004,-1.72345525816904e+000,-1.09640205820688e-001

7.67411295460207e+004,-1.72345678578765e+000,-1.11170227601546e-001

7.78123957929823e+004,-1.72345835614577e+000,-1.12721586591348e-001

7.88986163594682e+004,-1.72345997043350e+000,-1.14294579752798e-001

7.99999999999995e+004,-1.72346162987327e+000,-1.15889508160261e-001

8.11167583832018e+004,-1.72346333572115e+000,-1.17506677051235e-001

8.22491061324848e+004,-1.72346508926827e+000,-1.19146395880857e-001

8.33972608672892e+004,-1.72346689184066e+000,-1.20808978385180e-001

8.45614432449099e+004,-1.72346874480111e+000,-1.22494742633982e-001

8.57418770029029e+004,-1.72347064954996e+000,-1.24204011090423e-001

8.69387890020841e+004,-1.72347260752566e+000,-1.25937110672698e-001

8.81524092701283e+004,-1.72347462020636e+000,-1.27694372811818e-001

8.93829710457770e+004,-1.72347668911079e+000,-1.29476133512562e-001

9.06307108236633e+004,-1.72347881579906e+000,-1.31282733417506e-001

9.18958683997622e+004,-1.72348100187391e+000,-1.33114517868185e-001

9.31786869174758e+004,-1.72348324898241e+000,-1.34971836965662e-001

9.44794129143618e+004,-1.72348555881606e+000,-1.36855045639850e-001

9.57982963695136e+004,-1.72348793311293e+000,-1.38764503709878e-001

9.71355907516031e+004,-1.72349037365826e+000,-1.40700575952158e-001

9.84915530675926e+004,-1.72349288228621e+000,-1.42663632165145e-001

9.98664439121282e+004,-1.72349546088073e+000,-1.44654047237898e-001

1.01260527517622e+005,-1.72349811137718e+000,-1.46672201217290e-001

1.02674071805032e+005,-1.72350083576336e+000,-1.48718479377628e-001

1.04107348435354e+005,-1.72350363608101e+000,-1.50793272291547e-001

1.05560632861831e+005,-1.72350651442747e+000,-1.52896975896739e-001

1.07034204382888e+005,-1.72350947295693e+000,-1.55029991570134e-001

1.08528346195813e+005,-1.72351251388191e+000,-1.57192726200166e-001

1.10043345451179e+005,-1.72351563947431e+000,-1.59385592261694e-001

1.11579493308032e+005,-1.72351885206815e+000,-1.61609007883678e-001

1.13137084989847e+005,-1.72352215405996e+000,-1.63863396931253e-001

1.14716419841265e+005,-1.72352554791101e+000,-1.66149189077338e-001

1.16317801385624e+005,-1.72352903614872e+000,-1.68466819881091e-001

1.17941537383287e+005,-1.72353262136873e+000,-1.70816730863612e-001

1.19587939890794e+005,-1.72353630623595e+000,-1.73199369589479e-001

1.21257325320831e+005,-1.72354009348725e+000,-1.75615189741445e-001

1.22950014503040e+005,-1.72354398593236e+000,-1.78064651206147e-001

1.24666332745679e+005,-1.72354798645645e+000,-1.80548220150858e-001

1.26406609898139e+005,-1.72355209802179e+000,-1.83066369106228e-001

1.28171180414339e+005,-1.72355632366914e+000,-1.85619577053775e-001

1.29960383416997e+005,-1.72356066652075e+000,-1.88208329503096e-001

1.31774562762811e+005,-1.72356512978164e+000,-1.90833118580961e-001

1.33614067108538e+005,-1.72356971674201e+000,-1.93494443115261e-001

1.35479249978003e+005,-1.72357443077876e+000,-1.96192808725816e-001

1.37370469830040e+005,-1.72357927535887e+000,-1.98928727903879e-001

1.39288090127379e+005,-1.72358425404017e+000,-2.01702720109403e-001

1.41232479406504e+005,-1.72358937047464e+000,-2.04515311855046e-001

1.43204011348474e+005,-1.72359462841003e+000,-2.07367036799881e-001

1.45203064850745e+005,-1.72360003169261e+000,-2.10258435838433e-001

1.47230024099979e+005,-1.72360558426958e+000,-2.13190057193442e-001

1.49285278645888e+005,-1.72361129019081e+000,-2.16162456512871e-001

1.51369223476094e+005,-1.72361715361249e+000,-2.19176196957589e-001

1.53482259092041e+005,-1.72362317879837e+000,-2.22231849304084e-001

1.55624791585964e+005,-1.72362937012311e+000,-2.25329992035112e-001

1.57797232718936e+005,-1.72363573207499e+000,-2.28471211438485e-001

1.59999999999999e+005,-1.72364226925802e+000,-2.31656101706452e-001

1.62233516766403e+005,-1.72364898639474e+000,-2.34885265035473e-001

1.64498212264969e+005,-1.72365588832952e+000,-2.38159311722024e-001

1.66794521734578e+005,-1.72366298003056e+000,-2.41478860269559e-001

1.69122886489819e+005,-1.72367026659331e+000,-2.44844537485598e-001

1.71483754005805e+005,-1.72367775324325e+000,-2.48256978587089e-001

1.73877578004168e+005,-1.72368544533847e+000,-2.51716827304807e-001

1.76304818540256e+005,-1.72369334837310e+000,-2.55224735986487e-001

1.78765942091554e+005,-1.72370146797992e+000,-2.58781365704422e-001

1.81261421647326e+005,-1.72370980993362e+000,-2.62387386360984e-001

1.83791736799524e+005,-1.72371838015412e+000,-2.66043476795774e-001

1.86357373834951e+005,-1.72372718470906e+000,-2.69750324897058e-001

1.88958825828723e+005,-1.72373622981762e+000,-2.73508627707874e-001

1.91596592739027e+005,-1.72374552185327e+000,-2.77319091539963e-001

1.94271181503206e+005,-1.72375506734716e+000,-2.81182432083059e-001

1.96983106135185e+005,-1.72376487299164e+000,-2.85099374516341e-001

1.99732887824256e+005,-1.72377494564326e+000,-2.89070653623662e-001

2.02521055035243e+005,-1.72378529232586e+000,-2.93097013908875e-001

2.05348143610063e+005,-1.72379592023460e+000,-2.97179209706540e-001

2.08214696870707e+005,-1.72380683673881e+000,-3.01318005301856e-001

2.11121265723661e+005,-1.72381804938565e+000,-3.05514175045225e-001

2.14068408765776e+005,-1.72382956590321e+000,-3.09768503471807e-001

2.17056692391625e+005,-1.72384139420435e+000,-3.14081785418448e-001

2.20086690902357e+005,-1.72385354239000e+000,-3.18454826142522e-001

2.23158986616063e+005,-1.72386601875225e+000,-3.22888441445624e-001

2.26274169979693e+005,-1.72387883177832e+000,-3.27383457790829e-001

2.29432839682530e+005,-1.72389199015378e+000,-3.31940712426040e-001

2.32635602771247e+005,-1.72390550276590e+000,-3.36561053507192e-001

2.35883074766574e+005,-1.72391937870720e+000,-3.41245340221564e-001

2.39175879781588e+005,-1.72393362727892e+000,-3.45994442910729e-001

2.42514650641661e+005,-1.72394825799407e+000,-3.50809243198840e-001

2.45900029006080e+005,-1.72396328058137e+000,-3.55690634113902e-001

2.49332665491357e+005,-1.72397870498788e+000,-3.60639520219705e-001

2.52813219796278e+005,-1.72399454138285e+000,-3.65656817738348e-001

2.56342360828676e+005,-1.72401080016053e+000,-3.70743454682191e-001

2.59920766833993e+005,-1.72402749194376e+000,-3.75900370979988e-001

2.63549125525621e+005,-1.72404462758662e+000,-3.81128518608580e-001

2.67228134217075e+005,-1.72406221817787e+000,-3.86428861721264e-001

2.70958499956006e+005,-1.72408027504344e+000,-3.91802376781343e-001

2.74740939660078e+005,-1.72409880974963e+000,-3.97250052692134e-001

2.78576180254757e+005,-1.72411783410571e+000,-4.02772890929910e-001

2.82464958813007e+005,-1.72413736016660e+000,-4.08371905677216e-001

2.86408022696948e+005,-1.72415740023529e+000,-4.14048123956443e-001

2.90406129701488e+005,-1.72417796686517e+000,-4.19802585765372e-001

2.94460048199957e+005,-1.72419907286224e+000,-4.25636344212552e-001

2.98570557291775e+005,-1.72422073128734e+000,-4.31550465651495e-001

3.02738446952187e+005,-1.72424295545758e+000,-4.37546029820670e-001

3.06964518184081e+005,-1.72426575894851e+000,-4.43624129977208e-001

3.11249583171928e+005,-1.72428915559492e+000,-4.49785873040137e-001

3.15594465437872e+005,-1.72431315949281e+000,-4.56032379723917e-001

3.19999999999997e+005,-1.72433778499973e+000,-4.62364784682881e-001

3.24467033532806e+005,-1.72436304673587e+000,-4.68784236648963e-001

3.28996424529938e+005,-1.72438895958414e+000,-4.75291898575623e-001

3.33589043469155e+005,-1.72441553869084e+000,-4.81888947777163e-001

3.38245772979638e+005,-1.72444279946481e+000,-4.88576576075447e-001

3.42967508011610e+005,-1.72447075757747e+000,-4.95355989941260e-001

3.47755156008335e+005,-1.72449942896165e+000,-5.02228410640969e-001

3.52609637080511e+005,-1.72452882981031e+000,-5.09195074382575e-001

3.57531884183106e+005,-1.72455897657507e+000,-5.16257232462540e-001

3.62522843294651e+005,-1.72458988596392e+000,-5.23416151414127e-001

3.67583473599047e+005,-1.72462157493883e+000,-5.30673113158170e-001

3.72714747669902e+005,-1.72465406071245e+000,-5.38029415153198e-001

3.77917651657445e+005,-1.72468736074500e+000,-5.45486370547352e-001

3.83193185478053e+005,-1.72472149273989e+000,-5.53045308333247e-001

3.88542363006410e+005,-1.72475647463936e+000,-5.60707573502405e-001

3.93966212270369e+005,-1.72479232461892e+000,-5.68474527203814e-001

3.99465775648511e+005,-1.72482906108213e+000,-5.76347546900613e-001

4.05042110070485e+005,-1.72486670265357e+000,-5.84328026533354e-001

4.10696287220124e+005,-1.72490526817210e+000,-5.92417376681912e-001

4.16429393741414e+005,-1.72494477668317e+000,-6.00617024729240e-001

4.22242531447321e+005,-1.72498524742985e+000,-6.08928415032044e-001

4.28136817531551e+005,-1.72502669984404e+000,-6.17353009088680e-001

4.34113384783250e+005,-1.72506915353591e+000,-6.25892285713793e-001

4.40173381804713e+005,-1.72511262828367e+000,-6.34547741212068e-001

4.46317973232124e+005,-1.72515714402121e+000,-6.43320889560448e-001

4.52548339959385e+005,-1.72520272082597e+000,-6.52213262587775e-001

4.58865679365059e+005,-1.72524937890512e+000,-6.61226410164046e-001

4.65271205542494e+005,-1.72529713858126e+000,-6.70361900388887e-001

4.71766149533147e+005,-1.72534602027692e+000,-6.79621319787808e-001

4.78351759563174e+005,-1.72539604449841e+000,-6.89006273508544e-001

4.85029301283321e+005,-1.72544723181795e+000,-6.98518385529455e-001

4.91800058012158e+005,-1.72549960285561e+000,-7.08159298864873e-001

4.98665330982714e+005,-1.72555317825938e+000,-7.17930675782816e-001

5.05626439592555e+005,-1.72560797868482e+000,-7.27834198024282e-001

5.12684721657352e+005,-1.72566402477301e+000,-7.37871567031241e-001

5.19841533667984e+005,-1.72572133712769e+000,-7.48044504180679e-001

5.27098251051240e+005,-1.72577993629118e+000,-7.58354751025405e-001

5.34456268434150e+005,-1.72583984271894e+000,-7.68804069543258e-001

5.41916999912011e+005,-1.72590107675319e+000,-7.79394242393570e-001

