Freq.,VOut,OutRef

1.00000000000000e+004,-1.68293585774316e+001,-1.36870420967157e-001

1.01395947979003e+004,-1.68293588474766e+001,-1.38781053782460e-001

1.02811382665607e+004,-1.68293591251132e+001,-1.40718357738369e-001

1.04246576084112e+004,-1.68293594105549e+001,-1.42682705136533e-001

1.05701804056138e+004,-1.68293597040212e+001,-1.44674473476278e-001

1.07177346253629e+004,-1.68293600057373e+001,-1.46694045527267e-001

1.08673486252606e+004,-1.68293603159356e+001,-1.48741809398226e-001

1.10190511587661e+004,-1.68293606348540e+001,-1.50818158620072e-001

1.11728713807222e+004,-1.68293609627381e+001,-1.52923492211189e-001

1.13288388529580e+004,-1.68293612998398e+001,-1.55058214762354e-001

1.14869835499703e+004,-1.68293616464180e+001,-1.57222736512449e-001

1.16473358646846e+004,-1.68293620027394e+001,-1.59417473423517e-001

1.18099266142953e+004,-1.68293623690775e+001,-1.61642847267153e-001

1.19747870461893e+004,-1.68293627457143e+001,-1.63899285696618e-001

1.21419488439505e+004,-1.68293631329390e+001,-1.66187222339847e-001

1.23114441334492e+004,-1.68293635310494e+001,-1.68507096873426e-001

1.24833054890161e+004,-1.68293639403514e+001,-1.70859355111953e-001

1.26575659397028e+004,-1.68293643611595e+001,-1.73244449092827e-001

1.28342589756290e+004,-1.68293647937973e+001,-1.75662837161835e-001

1.30134185544193e+004,-1.68293652385973e+001,-1.78114984061700e-001

1.31950791077289e+004,-1.68293656959014e+001,-1.80601361022912e-001

1.33792755478611e+004,-1.68293661660610e+001,-1.83122445852734e-001

1.35660432744767e+004,-1.68293666494374e+001,-1.85678723026687e-001

1.37554181813974e+004,-1.68293671464023e+001,-1.88270683782010e-001

1.39474366635040e+004,-1.68293676573376e+001,-1.90898826212196e-001

1.41421356237309e+004,-1.68293681826360e+001,-1.93563655363406e-001

1.43395524801583e+004,-1.68293687227009e+001,-1.96265683331115e-001

1.45397251732031e+004,-1.68293692779479e+001,-1.99005429354545e-001

1.47426921729110e+004,-1.68293698488034e+001,-2.01783419923654e-001

1.49484924863494e+004,-1.68293704357063e+001,-2.04600188874046e-001

1.51571656651040e+004,-1.68293710391074e+001,-2.07456277494339e-001

1.53687518128801e+004,-1.68293716594707e+001,-2.10352234624315e-001

1.55832915932100e+004,-1.68293722972729e+001,-2.13288616764927e-001

1.58008262372675e+004,-1.68293729530042e+001,-2.16265988184341e-001

1.60213975517924e+004,-1.68293736271683e+001,-2.19284921026706e-001

1.62450479271247e+004,-1.68293743202836e+001,-2.22345995418166e-001

1.64718203453514e+004,-1.68293750328827e+001,-2.25449799582465e-001

1.67017583885674e+004,-1.68293757655131e+001,-2.28596929953510e-001

1.69349062472505e+004,-1.68293765187378e+001,-2.31787991288276e-001

1.71713087287550e+004,-1.68293772931359e+001,-2.35023596781849e-001

1.74110112659224e+004,-1.68293780893021e+001,-2.38304368190137e-001

1.76540599258131e+004,-1.68293789078486e+001,-2.41630935942182e-001

1.79005014185594e+004,-1.68293797494042e+001,-2.45003939267827e-001

1.81503831063432e+004,-1.68293806146157e+001,-2.48424026316036e-001

1.84037530124975e+004,-1.68293815041478e+001,-2.51891854280989e-001

1.86606598307361e+004,-1.68293824186842e+001,-2.55408089528556e-001

1.89211529345119e+004,-1.68293833589275e+001,-2.58973407722628e-001

1.91852823865052e+004,-1.68293843256003e+001,-2.62588493956005e-001

1.94530989482457e+004,-1.68293853194452e+001,-2.66254042883079e-001

1.97246540898671e+004,-1.68293863412262e+001,-2.69970758849255e-001

1.99999999999999e+004,-1.68293873917280e+001,-2.73739356031133e-001

2.02791895958005e+004,-1.68293884717581e+001,-2.77560558568989e-001

2.05622765331213e+004,-1.68293895821462e+001,-2.81435100708484e-001

2.08493152168224e+004,-1.68293907237453e+001,-2.85363726942152e-001

2.11403608112276e+004,-1.68293918974328e+001,-2.89347192148019e-001

2.14354692507258e+004,-1.68293931041102e+001,-2.93386261740551e-001

2.17346972505211e+004,-1.68293943447048e+001,-2.97481711811541e-001

2.20381023175322e+004,-1.68293956201696e+001,-3.01634329283956e-001

2.23457427614443e+004,-1.68293969314845e+001,-3.05844912059072e-001

2.26576777059159e+004,-1.68293982796569e+001,-3.10114269171889e-001

2.29739670999406e+004,-1.68293996657227e+001,-3.14443220945451e-001

2.32946717293690e+004,-1.68294010907465e+001,-3.18832599148535e-001

2.36198532285905e+004,-1.68294025558231e+001,-3.23283247153814e-001

2.39495740923785e+004,-1.68294040620780e+001,-3.27796020102773e-001

2.42838976879009e+004,-1.68294056106682e+001,-3.32371785066381e-001

2.46228882668982e+004,-1.68294072027833e+001,-3.37011421211630e-001

2.49666109780322e+004,-1.68294088396464e+001,-3.41715819973654e-001

2.53151318794055e+004,-1.68294105225146e+001,-3.46485885222104e-001

2.56685179512580e+004,-1.68294122526805e+001,-3.51322533437865e-001

2.60268371088386e+004,-1.68294140314733e+001,-3.56226693885444e-001

2.63901582154578e+004,-1.68294158602591e+001,-3.61199308794535e-001

2.67585510957221e+004,-1.68294177404424e+001,-3.66241333539350e-001

2.71320865489533e+004,-1.68294196734673e+001,-3.71353736820760e-001

2.75108363627948e+004,-1.68294216608184e+001,-3.76537500852293e-001

2.78948733270080e+004,-1.68294237040220e+001,-3.81793621549948e-001

2.82842712474618e+004,-1.68294258046471e+001,-3.87123108721096e-001

2.86791049603164e+004,-1.68294279643070e+001,-3.92526986258156e-001

2.90794503464061e+004,-1.68294301846600e+001,-3.98006292337247e-001

2.94853843458219e+004,-1.68294324674112e+001,-4.03562079612454e-001

2.98969849726987e+004,-1.68294348143135e+001,-4.09195415422756e-001

3.03143313302078e+004,-1.68294372271689e+001,-4.14907381992025e-001

3.07375036257601e+004,-1.68294397078299e+001,-4.20699076640007e-001

3.11665831864199e+004,-1.68294422582014e+001,-4.26571611988678e-001

3.16016524745350e+004,-1.68294448802412e+001,-4.32526116178695e-001

3.20427951035848e+004,-1.68294475759626e+001,-4.38563733083111e-001

3.24900958542493e+004,-1.68294503474349e+001,-4.44685622527549e-001

3.29436406907028e+004,-1.68294531967860e+001,-4.50892960510947e-001

3.34035167771346e+004,-1.68294561262028e+001,-4.57186939434576e-001

3.38698124945009e+004,-1.68294591379342e+001,-4.63568768323263e-001

3.43426174575100e+004,-1.68294622342920e+001,-4.70039673062979e-001

3.48220225318448e+004,-1.68294654176527e+001,-4.76600896633202e-001

3.53081198516260e+004,-1.68294686904595e+001,-4.83253699344740e-001

3.58010028371187e+004,-1.68294720552244e+001,-4.89999359079149e-001

3.63007662126863e+004,-1.68294755145296e+001,-4.96839171536097e-001

3.68075060249948e+004,-1.68294790710296e+001,-5.03774450480705e-001

3.73213196614721e+004,-1.68294827274539e+001,-5.10806527991610e-001

3.78423058690237e+004,-1.68294864866080e+001,-5.17936754719127e-001

3.83705647730104e+004,-1.68294903513761e+001,-5.25166500142639e-001

3.89061978964912e+004,-1.68294943247236e+001,-5.32497152831487e-001

3.94493081797342e+004,-1.68294984096989e+001,-5.39930120710348e-001

3.99999999999998e+004,-1.68295026094356e+001,-5.47466831328927e-001

4.05583791916010e+004,-1.68295069271557e+001,-5.55108732134183e-001

4.11245530662425e+004,-1.68295113661710e+001,-5.62857290747386e-001

4.16986304336447e+004,-1.68295159298861e+001,-5.70713995244548e-001

4.22807216224550e+004,-1.68295206218016e+001,-5.78680354438614e-001

4.28709385014515e+004,-1.68295254455157e+001,-5.86757898169422e-001

4.34693945010421e+004,-1.68295304047274e+001,-5.94948177596234e-001

4.40762046350642e+004,-1.68295355032396e+001,-6.03252765491691e-001

4.46914855228886e+004,-1.68295407449617e+001,-6.11673256542724e-001

4.53153554118317e+004,-1.68295461339123e+001,-6.20211267656105e-001

4.59479341998812e+004,-1.68295516742230e+001,-6.28868438264590e-001

4.65893434587380e+004,-1.68295573701410e+001,-6.37646430640302e-001

4.72397064571810e+004,-1.68295632260321e+001,-6.46546930213248e-001

4.78991481847569e+004,-1.68295692463847e+001,-6.55571645890443e-001

4.85677953758016e+004,-1.68295754358128e+001,-6.64722310382193e-001

4.92457765337964e+004,-1.68295817990595e+001,-6.74000680532354e-001

4.99332219560642e+004,-1.68295883410008e+001,-6.83408537652891e-001

5.06302637588109e+004,-1.68295950666489e+001,-6.92947687863122e-001

5.13370359025159e+004,-1.68296019811565e+001,-7.02619962433377e-001

5.20536742176771e+004,-1.68296090898203e+001,-7.12427218133514e-001

5.27803164309155e+004,-1.68296163980855e+001,-7.22371337586218e-001

5.35171021914442e+004,-1.68296239115492e+001,-7.32454229625248e-001

5.42641730979066e+004,-1.68296316359654e+001,-7.42677829657219e-001

5.50216727255895e+004,-1.68296395772486e+001,-7.53044100032825e-001

5.57897466540159e+004,-1.68296477414792e+001,-7.63555030414575e-001

5.65685424949235e+004,-1.68296561349073e+001,-7.74212638159407e-001

5.73582099206328e+004,-1.68296647639575e+001,-7.85018968699637e-001

5.81589006928121e+004,-1.68296736352345e+001,-7.95976095931183e-001

5.89707686916437e+004,-1.68296827555269e+001,-8.07086122608679e-001

5.97939699453972e+004,-1.68296921318134e+001,-8.18351180741820e-001

6.06286626604156e+004,-1.68297017712676e+001,-8.29773432002869e-001

6.14750072515201e+004,-1.68297116812633e+001,-8.41355068133351e-001

6.23331663728396e+004,-1.68297218693803e+001,-8.53098311362146e-001

6.32033049490698e+004,-1.68297323434099e+001,-8.65005414823573e-001

6.40855902071694e+004,-1.68297431113610e+001,-8.77078662987665e-001

6.49801917084985e+004,-1.68297541814659e+001,-8.89320372088458e-001

6.58872813814055e+004,-1.68297655621867e+001,-9.01732890565792e-001

6.68070335542691e+004,-1.68297772622214e+001,-9.14318599506851e-001

6.77396249890018e+004,-1.68297892905107e+001,-9.27079913098267e-001

6.86852349150199e+004,-1.68298016562444e+001,-9.40019279080698e-001

6.96440450636895e+004,-1.68298143688689e+001,-9.53139179211469e-001

7.06162397032520e+004,-1.68298274380932e+001,-9.66442129734316e-001

7.16020056742374e+004,-1.68298408738973e+001,-9.79930681852195e-001

7.26015324253724e+004,-1.68298546865392e+001,-9.93607422209223e-001

7.36150120499896e+004,-1.68298688865624e+001,-1.00747497337873e+000

7.46426393229441e+004,-1.68298834848038e+001,-1.02153599435663e+000

7.56846117380472e+004,-1.68298984924022e+001,-1.03579318106156e+000

7.67411295460207e+004,-1.68299139208062e+001,-1.05024926684382e+000

7.78123957929823e+004,-1.68299297817828e+001,-1.06490702299739e+000

7.88986163594682e+004,-1.68299460874266e+001,-1.07976925928140e+000

7.99999999999995e+004,-1.68299628501677e+001,-1.09483882444921e+000

8.11167583832018e+004,-1.68299800827825e+001,-1.11011860678081e+000

8.22491061324848e+004,-1.68299977984016e+001,-1.12561153462698e+000

8.33972608672892e+004,-1.68300160105207e+001,-1.14132057695613e+000

8.45614432449099e+004,-1.68300347330101e+001,-1.15724874391158e+000

8.57418770029029e+004,-1.68300539801251e+001,-1.17339908737472e+000

8.69387890020841e+004,-1.68300737665163e+001,-1.18977470153609e+000

8.81524092701283e+004,-1.68300941072408e+001,-1.20637872347374e+000

8.93829710457770e+004,-1.68301150177731e+001,-1.22321433373860e+000

9.06307108236633e+004,-1.68301365140164e+001,-1.24028475694858e+000

9.18958683997622e+004,-1.68301586123145e+001,-1.25759326238986e+000

9.31786869174758e+004,-1.68301813294637e+001,-1.27514316462580e+000

9.44794129143618e+004,-1.68302046827254e+001,-1.29293782411374e+000

9.57982963695136e+004,-1.68302286898379e+001,-1.31098064783172e+000

9.71355907516031e+004,-1.68302533690309e+001,-1.32927508990818e+000

9.84915530675926e+004,-1.68302787390372e+001,-1.34782465226726e+000

9.98664439121282e+004,-1.68303048191075e+001,-1.36663288527482e+000

1.01260527517622e+005,-1.68303316290238e+001,-1.38570338839961e+000

1.02674071805032e+005,-1.68303591891144e+001,-1.40503981087666e+000

1.04107348435354e+005,-1.68303875202680e+001,-1.42464585238378e+000

1.05560632861831e+005,-1.68304166439494e+001,-1.44452526372513e+000

1.07034204382888e+005,-1.68304465822147e+001,-1.46468184752197e+000

1.08528346195813e+005,-1.68304773577276e+001,-1.48511945891550e+000

1.10043345451179e+005,-1.68305089937752e+001,-1.50584200627533e+000

1.11579493308032e+005,-1.68305415142855e+001,-1.52685345191896e+000

1.13137084989847e+005,-1.68305749438441e+001,-1.54815781283891e+000

1.14716419841265e+005,-1.68306093077120e+001,-1.56975916144062e+000

1.16317801385624e+005,-1.68306446318438e+001,-1.59166162628743e+000

1.17941537383287e+005,-1.68306809429060e+001,-1.61386939285813e+000

1.19587939890794e+005,-1.68307182682964e+001,-1.63638670430928e+000

1.21257325320831e+005,-1.68307566361633e+001,-1.65921786225183e+000

1.22950014503040e+005,-1.68307960754258e+001,-1.68236722753376e+000

1.24666332745679e+005,-1.68308366157939e+001,-1.70583922103421e+000

1.26406609898139e+005,-1.68308782877899e+001,-1.72963832446705e+000

1.28171180414339e+005,-1.68309211227698e+001,-1.75376908119396e+000

1.29960383416997e+005,-1.68309651529452e+001,-1.77823609704735e+000

1.31774562762811e+005,-1.68310104114065e+001,-1.80304404116323e+000

1.33614067108538e+005,-1.68310569321453e+001,-1.82819764682585e+000

1.35479249978003e+005,-1.68311047500787e+001,-1.85370171231911e+000

1.37370469830040e+005,-1.68311539010733e+001,-1.87956110179183e+000

1.39288090127379e+005,-1.68312044219704e+001,-1.90578074613082e+000

1.41232479406504e+005,-1.68312563506115e+001,-1.93236564384566e+000

1.43204011348474e+005,-1.68313097258641e+001,-1.95932086196306e+000

1.45203064850745e+005,-1.68313645876488e+001,-1.98665153693291e+000

1.47230024099979e+005,-1.68314209769667e+001,-2.01436287554383e+000

1.49285278645888e+005,-1.68314789359271e+001,-2.04246015585086e+000

1.51369223476094e+005,-1.68315385077767e+001,-2.07094872811137e+000

1.53482259092041e+005,-1.68315997369286e+001,-2.09983401573524e+000

1.55624791585964e+005,-1.68316626689926e+001,-2.12912151624298e+000

1.57797232718936e+005,-1.68317273508059e+001,-2.15881680223670e+000

1.59999999999999e+005,-1.68317938304644e+001,-2.18892552238198e+000

1.62233516766403e+005,-1.68318621573553e+001,-2.21945340239893e+000

1.64498212264969e+005,-1.68319323821895e+001,-2.25040624606791e+000

1.66794521734578e+005,-1.68320045570361e+001,-2.28178993624284e+000

1.69122886489819e+005,-1.68320787353556e+001,-2.31361043587928e+000

1.71483754005805e+005,-1.68321549720365e+001,-2.34587378907071e+000

1.73877578004168e+005,-1.68322333234302e+001,-2.37858612209811e+000

1.76304818540256e+005,-1.68323138473881e+001,-2.41175364449205e+000

1.78765942091554e+005,-1.68323966032995e+001,-2.44538265010267e+000

1.81261421647326e+005,-1.68324816521296e+001,-2.47947951818543e+000

1.83791736799524e+005,-1.68325690564585e+001,-2.51405071449652e+000

1.86357373834951e+005,-1.68326588805218e+001,-2.54910279239858e+000

1.88958825828723e+005,-1.68327511902513e+001,-2.58464239398150e+000

1.91596592739027e+005,-1.68328460533163e+001,-2.62067625119254e+000

1.94271181503206e+005,-1.68329435391666e+001,-2.65721118697888e+000

1.96983106135185e+005,-1.68330437190756e+001,-2.69425411644258e+000

1.99732887824256e+005,-1.68331466661853e+001,-2.73181204800621e+000

2.02521055035243e+005,-1.68332524555503e+001,-2.76989208459252e+000

2.05348143610063e+005,-1.68333611641851e+001,-2.80850142481420e+000

2.08214696870707e+005,-1.68334728711103e+001,-2.84764736417609e+000

2.11121265723661e+005,-1.68335876574006e+001,-2.88733729629034e+000

2.14068408765776e+005,-1.68337056062337e+001,-2.92757871410204e+000

2.17056692391625e+005,-1.68338268029399e+001,-2.96837921112914e+000

2.20086690902357e+005,-1.68339513350528e+001,-3.00974648271263e+000

2.23158986616063e+005,-1.68340792923603e+001,-3.05168832727891e+000

2.26274169979693e+005,-1.68342107669577e+001,-3.09421264761679e+000

2.29432839682530e+005,-1.68343458533002e+001,-3.13732745216287e+000

2.32635602771247e+005,-1.68344846482580e+001,-3.18104085630234e+000

2.35883074766574e+005,-1.68346272511706e+001,-3.22536108368086e+000

2.39175879781588e+005,-1.68347737639031e+001,-3.27029646752800e+000

2.42514650641661e+005,-1.68349242909033e+001,-3.31585545199422e+000

2.45900029006080e+005,-1.68350789392593e+001,-3.36204659349972e+000

2.49332665491357e+005,-1.68352378187581e+001,-3.40887856209542e+000

2.52813219796278e+005,-1.68354010419452e+001,-3.45636014283573e+000

2.56342360828676e+005,-1.68355687241850e+001,-3.50450023716560e+000

2.59920766833993e+005,-1.68357409837223e+001,-3.55330786431746e+000

2.63549125525621e+005,-1.68359179417439e+001,-3.60279216272333e+000

2.67228134217075e+005,-1.68360997224417e+001,-3.65296239143650e+000

2.70958499956006e+005,-1.68362864530766e+001,-3.70382793156822e+000

2.74740939660078e+005,-1.68364782640427e+001,-3.75539828773550e+000

2.78576180254757e+005,-1.68366752889324e+001,-3.80768308952189e+000

2.82464958813007e+005,-1.68368776646027e+001,-3.86069209295112e+000

2.86408022696948e+005,-1.68370855312417e+001,-3.91443518197295e+000

2.90406129701488e+005,-1.68372990324357e+001,-3.96892236996230e+000

2.94460048199957e+005,-1.68375183152376e+001,-4.02416380123097e+000

2.98570557291775e+005,-1.68377435302350e+001,-4.08016975255238e+000

3.02738446952187e+005,-1.68379748316196e+001,-4.13695063469902e+000

3.06964518184081e+005,-1.68382123772568e+001,-4.19451699399358e+000

3.11249583171928e+005,-1.68384563287557e+001,-4.25287951387321e+000

3.15594465437872e+005,-1.68387068515401e+001,-4.31204901646675e+000

3.19999999999997e+005,-1.68389641149191e+001,-4.37203646418513e+000

3.24467033532806e+005,-1.68392282921585e+001,-4.43285296132787e+000

3.28996424529938e+005,-1.68394995605528e+001,-4.49450975569945e+000

3.33589043469155e+005,-1.68397781014966e+001,-4.55701824024435e+000

3.38245772979638e+005,-1.68400641005569e+001,-4.62038995469228e+000

3.42967508011610e+005,-1.68403577475453e+001,-4.68463658722065e+000

3.47755156008335e+005,-1.68406592365902e+001,-4.74976997613117e+000

3.52609637080511e+005,-1.68409687662091e+001,-4.81580211154147e+000

3.57531884183106e+005,-1.68412865393806e+001,-4.88274513709238e+000

3.62522843294651e+005,-1.68416127636167e+001,-4.95061135167055e+000

3.67583473599047e+005,-1.68419476510343e+001,-5.01941321114863e+000

3.72714747669902e+005,-1.68422914184268e+001,-5.08916333014121e+000

3.77917651657445e+005,-1.68426442873355e+001,-5.15987448377781e+000

3.83193185478053e+005,-1.68430064841196e+001,-5.23155960949416e+000

3.88542363006410e+005,-1.68433782400273e+001,-5.30423180884180e+000

3.93966212270369e+005,-1.68437597912642e+001,-5.37790434931695e+000

3.99465775648511e+005,-1.68441513790630e+001,-5.45259066620683e+000

4.05042110070485e+005,-1.68445532497510e+001,-5.52830436445958e+000

4.10696287220124e+005,-1.68449656548176e+001,-5.60505922057260e+000

4.16429393741414e+005,-1.68453888509800e+001,-5.68286918450385e+000

4.22242531447321e+005,-1.68458231002486e+001,-5.76174838160646e+000

4.28136817531551e+005,-1.68462686699909e+001,-5.84171111458545e+000

4.34113384783250e+005,-1.68467258329941e+001,-5.92277186548104e+000

4.40173381804713e+005,-1.68471948675266e+001,-6.00494529767609e+000

4.46317973232124e+005,-1.68476760573979e+001,-6.08824625793233e+000

4.52548339959385e+005,-1.68481696920173e+001,-6.17268977845303e+000

4.58865679365059e+005,-1.68486760664504e+001,-6.25829107897649e+000

4.65271205542494e+005,-1.68491954814747e+001,-6.34506556889994e+000

4.71766149533147e+005,-1.68497282436332e+001,-6.43302884943535e+000

4.78351759563174e+005,-1.68502746652860e+001,-6.52219671579985e+000

4.85029301283321e+005,-1.68508350646602e+001,-6.61258515944202e+000

4.91800058012158e+005,-1.68514097658981e+001,-6.70421037030423e+000

4.98665330982714e+005,-1.68519990991035e+001,-6.79708873912466e+000

5.05626439592555e+005,-1.68526034003852e+001,-6.89123685978089e+000

5.12684721657352e+005,-1.68532230118996e+001,-6.98667153167551e+000

5.19841533667984e+005,-1.68538582818910e+001,-7.08340976216710e+000

5.27098251051240e+005,-1.68545095647289e+001,-7.18146876904867e+000

5.34456268434150e+005,-1.68551772209449e+001,-7.28086598307530e+000

5.41916999912011e+005,-1.68558616172662e+001,-7.38161905054341e+000

