Freq.,VOut,OutRef

1.00000000000000e+004,-2.45356655270040e+001,-2.82479810671491e-001

1.01395947979003e+004,-2.45356666465112e+001,-2.86423065226868e-001

1.02811382665607e+004,-2.45356677974914e+001,-2.90421364858584e-001

1.04246576084112e+004,-2.45356689808298e+001,-2.94475477934660e-001

1.05701804056138e+004,-2.45356701974356e+001,-2.98586183553164e-001

1.07177346253629e+004,-2.45356714482444e+001,-3.02754271681909e-001

1.08673486252606e+004,-2.45356727342177e+001,-3.06980543317470e-001

1.10190511587661e+004,-2.45356740563439e+001,-3.11265810636118e-001

1.11728713807222e+004,-2.45356754156396e+001,-3.15610897149288e-001

1.13288388529580e+004,-2.45356768131496e+001,-3.20016637863728e-001

1.14869835499703e+004,-2.45356782499482e+001,-3.24483879441015e-001

1.16473358646846e+004,-2.45356797271399e+001,-3.29013480358592e-001

1.18099266142953e+004,-2.45356812458603e+001,-3.33606311076668e-001

1.19747870461893e+004,-2.45356828072770e+001,-3.38263254204981e-001

1.21419488439505e+004,-2.45356844125902e+001,-3.42985204671553e-001

1.23114441334492e+004,-2.45356860630338e+001,-3.47773069896501e-001

1.24833054890161e+004,-2.45356877598768e+001,-3.52627769963539e-001

1.26575659397028e+004,-2.45356895044234e+001,-3.57550237798500e-001

1.28342589756290e+004,-2.45356912980148e+001,-3.62541419347869e-001

1.30134185544193e+004,-2.45356931420297e+001,-3.67602273761812e-001

1.31950791077289e+004,-2.45356950378857e+001,-3.72733773575120e-001

1.33792755478611e+004,-2.45356969870401e+001,-3.77936904898562e-001

1.35660432744767e+004,-2.45356989909913e+001,-3.83212667603610e-001

1.37554181813974e+004,-2.45357010512797e+001,-3.88562075518650e-001

1.39474366635040e+004,-2.45357031694892e+001,-3.93986156619336e-001

1.41421356237309e+004,-2.45357053472480e+001,-3.99485953230366e-001

1.43395524801583e+004,-2.45357075862301e+001,-4.05062522222249e-001

1.45397251732031e+004,-2.45357098881568e+001,-4.10716935216518e-001

1.47426921729110e+004,-2.45357122547974e+001,-4.16450278789955e-001

1.49484924863494e+004,-2.45357146879714e+001,-4.22263654683476e-001

1.51571656651040e+004,-2.45357171895489e+001,-4.28158180014772e-001

1.53687518128801e+004,-2.45357197614531e+001,-4.34134987490781e-001

1.55832915932100e+004,-2.45357224056608e+001,-4.40195225628467e-001

1.58008262372675e+004,-2.45357251242048e+001,-4.46340058970959e-001

1.60213975517924e+004,-2.45357279191748e+001,-4.52570668313936e-001

1.62450479271247e+004,-2.45357307927191e+001,-4.58888250933572e-001

1.64718203453514e+004,-2.45357337470466e+001,-4.65294020811836e-001

1.67017583885674e+004,-2.45357367844285e+001,-4.71789208873600e-001

1.69349062472505e+004,-2.45357399071994e+001,-4.78375063221883e-001

1.71713087287550e+004,-2.45357431177597e+001,-4.85052849376816e-001

1.74110112659224e+004,-2.45357464185773e+001,-4.91823850518717e-001

1.76540599258131e+004,-2.45357498121894e+001,-4.98689367734319e-001

1.79005014185594e+004,-2.45357533012048e+001,-5.05650720266327e-001

1.81503831063432e+004,-2.45357568883052e+001,-5.12709245768035e-001

1.84037530124975e+004,-2.45357605762479e+001,-5.19866300558797e-001

1.86606598307361e+004,-2.45357643678679e+001,-5.27123259882723e-001

1.89211529345119e+004,-2.45357682660794e+001,-5.34481518176801e-001

1.91852823865052e+004,-2.45357722738790e+001,-5.41942489334049e-001

1.94530989482457e+004,-2.45357763943472e+001,-5.49507606978128e-001

1.97246540898671e+004,-2.45357806306513e+001,-5.57178324735848e-001

1.99999999999999e+004,-2.45357849860474e+001,-5.64956116518366e-001

2.02791895958005e+004,-2.45357894638834e+001,-5.72842476802344e-001

2.05622765331213e+004,-2.45357940676011e+001,-5.80838920916814e-001

2.08493152168224e+004,-2.45357988007389e+001,-5.88946985335029e-001

2.11403608112276e+004,-2.45358036669352e+001,-5.97168227967595e-001

2.14354692507258e+004,-2.45358086699301e+001,-6.05504228462894e-001

2.17346972505211e+004,-2.45358138135691e+001,-6.13956588508154e-001

2.20381023175322e+004,-2.45358191018056e+001,-6.22526932139918e-001

2.23457427614443e+004,-2.45358245387044e+001,-6.31216906050743e-001

2.26576777059159e+004,-2.45358301284443e+001,-6.40028179909209e-001

2.29739670999406e+004,-2.45358358753215e+001,-6.48962446678780e-001

2.32946717293690e+004,-2.45358417837533e+001,-6.58021422940899e-001

2.36198532285905e+004,-2.45358478582808e+001,-6.67206849225846e-001

2.39495740923785e+004,-2.45358541035729e+001,-6.76520490346814e-001

2.42838976879009e+004,-2.45358605244296e+001,-6.85964135736714e-001

2.46228882668982e+004,-2.45358671257858e+001,-6.95539599791629e-001

2.49666109780322e+004,-2.45358739127154e+001,-7.05248722219235e-001

2.53151318794055e+004,-2.45358808904345e+001,-7.15093368391069e-001

2.56685179512580e+004,-2.45358880643058e+001,-7.25075429700510e-001

2.60268371088386e+004,-2.45358954398432e+001,-7.35196823923421e-001

2.63901582154578e+004,-2.45359030227151e+001,-7.45459495588147e-001

2.67585510957221e+004,-2.45359108187491e+001,-7.55865416347319e-001

2.71320865489533e+004,-2.45359188339371e+001,-7.66416585353974e-001

2.75108363627948e+004,-2.45359270744389e+001,-7.77115029645885e-001

2.78948733270080e+004,-2.45359355465876e+001,-7.87962804535703e-001

2.82842712474618e+004,-2.45359442568943e+001,-7.98961994000455e-001

2.86791049603164e+004,-2.45359532120529e+001,-8.10114711084586e-001

2.90794503464061e+004,-2.45359624189458e+001,-8.21423098301452e-001

2.94853843458219e+004,-2.45359718846482e+001,-8.32889328046859e-001

2.98969849726987e+004,-2.45359816164345e+001,-8.44515603012686e-001

3.03143313302078e+004,-2.45359916217837e+001,-8.56304156607772e-001

3.07375036257601e+004,-2.45360019083843e+001,-8.68257253389635e-001

3.11665831864199e+004,-2.45360124841416e+001,-8.80377189492400e-001

3.16016524745350e+004,-2.45360233571825e+001,-8.92666293070923e-001

3.20427951035848e+004,-2.45360345358626e+001,-9.05126924743036e-001

3.24900958542493e+004,-2.45360460287718e+001,-9.17761478044204e-001

3.29436406907028e+004,-2.45360578447418e+001,-9.30572379882056e-001

3.34035167771346e+004,-2.45360699928523e+001,-9.43562091003813e-001

3.38698124945009e+004,-2.45360824824381e+001,-9.56733106464830e-001

3.43426174575100e+004,-2.45360953230963e+001,-9.70087956106127e-001

3.48220225318448e+004,-2.45361085246934e+001,-9.83629205039681e-001

3.53081198516260e+004,-2.45361220973736e+001,-9.97359454135967e-001

3.58010028371187e+004,-2.45361360515656e+001,-1.01128134052499e+000

3.63007662126863e+004,-2.45361503979913e+001,-1.02539753809573e+000

3.68075060249948e+004,-2.45361651476739e+001,-1.03971075801091e+000

3.73213196614721e+004,-2.45361803119459e+001,-1.05422374922399e+000

3.78423058690237e+004,-2.45361959024586e+001,-1.06893929900243e+000

3.83705647730104e+004,-2.45362119311904e+001,-1.08386023346345e+000

3.89061978964912e+004,-2.45362284104562e+001,-1.09898941811002e+000

3.94493081797342e+004,-2.45362453529167e+001,-1.11432975838181e+000

3.99999999999998e+004,-2.45362627715886e+001,-1.12988420020604e+000

4.05583791916010e+004,-2.45362806798537e+001,-1.14565573056315e+000

4.11245530662425e+004,-2.45362990914701e+001,-1.16164737805469e+000

4.16986304336447e+004,-2.45363180205821e+001,-1.17786221348167e+000

4.22807216224550e+004,-2.45363374817314e+001,-1.19430335043086e+000

4.28709385014515e+004,-2.45363574898680e+001,-1.21097394586758e+000

4.34693945010421e+004,-2.45363780603618e+001,-1.22787720073890e+000

4.40762046350642e+004,-2.45363992090145e+001,-1.24501636058263e+000

4.46914855228886e+004,-2.45364209520714e+001,-1.26239471614702e+000

4.53153554118317e+004,-2.45364433062340e+001,-1.28001560401654e+000

4.59479341998812e+004,-2.45364662886728e+001,-1.29788240724879e+000

4.65893434587380e+004,-2.45364899170407e+001,-1.31599855601783e+000

4.72397064571810e+004,-2.45365142094860e+001,-1.33436752826776e+000

4.78991481847569e+004,-2.45365391846667e+001,-1.35299285037474e+000

4.85677953758016e+004,-2.45365648617647e+001,-1.37187809781737e+000

4.92457765337964e+004,-2.45365912605004e+001,-1.39102689585840e+000

4.99332219560642e+004,-2.45366184011480e+001,-1.41044292023239e+000

5.06302637588109e+004,-2.45366463045507e+001,-1.43012989784640e+000

5.13370359025159e+004,-2.45366749921371e+001,-1.45009160748655e+000

5.20536742176771e+004,-2.45367044859370e+001,-1.47033188053808e+000

5.27803164309155e+004,-2.45367348085990e+001,-1.49085460171156e+000

5.35171021914442e+004,-2.45367659834071e+001,-1.51166370978121e+000

5.42641730979066e+004,-2.45367980342991e+001,-1.53276319833254e+000

5.50216727255895e+004,-2.45368309858847e+001,-1.55415711652029e+000

5.57897466540159e+004,-2.45368648634642e+001,-1.57584956983643e+000

5.65685424949235e+004,-2.45368996930478e+001,-1.59784472088873e+000

5.73582099206328e+004,-2.45369355013760e+001,-1.62014679018980e+000

5.81589006928121e+004,-2.45369723159395e+001,-1.64276005695721e+000

5.89707686916437e+004,-2.45370101650004e+001,-1.66568885992310e+000

5.97939699453972e+004,-2.45370490776138e+001,-1.68893759815671e+000

6.06286626604156e+004,-2.45370890836502e+001,-1.71251073189586e+000

6.14750072515201e+004,-2.45371302138179e+001,-1.73641278339183e+000

6.23331663728396e+004,-2.45371724996870e+001,-1.76064833776325e+000

6.32033049490698e+004,-2.45372159737130e+001,-1.78522204386395e+000

6.40855902071694e+004,-2.45372606692619e+001,-1.81013861515991e+000

6.49801917084985e+004,-2.45373066206358e+001,-1.83540283062025e+000

6.58872813814055e+004,-2.45373538630985e+001,-1.86101953561849e+000

6.68070335542691e+004,-2.45374024329032e+001,-1.88699364284718e+000

6.77396249890018e+004,-2.45374523673196e+001,-1.91333013324297e+000

6.86852349150199e+004,-2.45375037046625e+001,-1.94003405692695e+000

6.96440450636895e+004,-2.45375564843211e+001,-1.96711053415387e+000

7.06162397032520e+004,-2.45376107467891e+001,-1.99456475627634e+000

7.16020056742374e+004,-2.45376665336952e+001,-2.02240198672267e+000

7.26015324253724e+004,-2.45377238878355e+001,-2.05062756198379e+000

7.36150120499896e+004,-2.45377828532054e+001,-2.07924689261873e+000

7.46426393229441e+004,-2.45378434750337e+001,-2.10826546426784e+000

7.56846117380472e+004,-2.45379057998166e+001,-2.13768883868410e+000

7.67411295460207e+004,-2.45379698753535e+001,-2.16752265477447e+000

7.78123957929823e+004,-2.45380357507833e+001,-2.19777262965727e+000

7.88986163594682e+004,-2.45381034766215e+001,-2.22844455973247e+000

7.99999999999995e+004,-2.45381731047991e+001,-2.25954432176615e+000

8.11167583832018e+004,-2.45382446887018e+001,-2.29107787398893e+000

8.22491061324848e+004,-2.45383182832106e+001,-2.32305125720932e+000

8.33972608672892e+004,-2.45383939447440e+001,-2.35547059594136e+000

8.45614432449099e+004,-2.45384717313000e+001,-2.38834209954683e+000

8.57418770029029e+004,-2.45385517025011e+001,-2.42167206339203e+000

8.69387890020841e+004,-2.45386339196391e+001,-2.45546687001971e+000

8.81524092701283e+004,-2.45387184457216e+001,-2.48973299033770e+000

8.93829710457770e+004,-2.45388053455201e+001,-2.52447698481963e+000

9.06307108236633e+004,-2.45388946856190e+001,-2.55970550472495e+000

9.18958683997622e+004,-2.45389865344660e+001,-2.59542529333069e+000

9.31786869174758e+004,-2.45390809624243e+001,-2.63164318718231e+000

9.44794129143618e+004,-2.45391780418257e+001,-2.66836611735871e+000

9.57982963695136e+004,-2.45392778470256e+001,-2.70560111075430e+000

9.71355907516031e+004,-2.45393804544591e+001,-2.74335529137675e+000

9.84915530675926e+004,-2.45394859426989e+001,-2.78163588166104e+000

9.98664439121282e+004,-2.45395943925150e+001,-2.82045020380083e+000

1.01260527517622e+005,-2.45397058869355e+001,-2.85980568109697e+000

1.02674071805032e+005,-2.45398205113096e+001,-2.89970983932019e+000

1.04107348435354e+005,-2.45399383533721e+001,-2.94017030809569e+000

1.05560632861831e+005,-2.45400595033094e+001,-2.98119482230014e+000

1.07034204382888e+005,-2.45401840538279e+001,-3.02279122347867e+000

1.08528346195813e+005,-2.45403121002240e+001,-3.06496746128009e+000

1.10043345451179e+005,-2.45404437404556e+001,-3.10773159490719e+000

1.11579493308032e+005,-2.45405790752163e+001,-3.15109179458731e+000

1.13137084989847e+005,-2.45407182080112e+001,-3.19505634305988e+000

1.14716419841265e+005,-2.45408612452347e+001,-3.23963363708189e+000

1.16317801385624e+005,-2.45410082962506e+001,-3.28483218895300e+000

1.17941537383287e+005,-2.45411594734748e+001,-3.33066062805722e+000

1.19587939890794e+005,-2.45413148924590e+001,-3.37712770242512e+000

1.21257325320831e+005,-2.45414746719782e+001,-3.42424228031310e+000

1.22950014503040e+005,-2.45416389341195e+001,-3.47201335180291e+000

1.24666332745679e+005,-2.45418078043738e+001,-3.52045003041884e+000

1.26406609898139e+005,-2.45419814117301e+001,-3.56956155476589e+000

1.28171180414339e+005,-2.45421598887716e+001,-3.61935729018474e+000

1.29960383416997e+005,-2.45423433717756e+001,-3.66984673042909e+000

1.31774562762811e+005,-2.45425320008150e+001,-3.72103949935953e+000

1.33614067108538e+005,-2.45427259198632e+001,-3.77294535265940e+000

1.35479249978003e+005,-2.45429252769017e+001,-3.82557417956829e+000

1.37370469830040e+005,-2.45431302240303e+001,-3.87893600463857e+000

1.39288090127379e+005,-2.45433409175807e+001,-3.93304098950735e+000

1.41232479406504e+005,-2.45435575182332e+001,-3.98789943469263e+000

1.43204011348474e+005,-2.45437801911359e+001,-4.04352178140689e+000

1.45203064850745e+005,-2.45440091060280e+001,-4.09991861339294e+000

1.47230024099979e+005,-2.45442444373654e+001,-4.15710065877768e+000

1.49285278645888e+005,-2.45444863644508e+001,-4.21507879194876e+000

1.51369223476094e+005,-2.45447350715663e+001,-4.27386403544952e+000

1.53482259092041e+005,-2.45449907481101e+001,-4.33346756189530e+000

1.55624791585964e+005,-2.45452535887365e+001,-4.39390069591077e+000

1.57797232718936e+005,-2.45455237935006e+001,-4.45517491608638e+000

1.59999999999999e+005,-2.45458015680047e+001,-4.51730185695728e+000

1.62233516766403e+005,-2.45460871235516e+001,-4.58029331100072e+000

1.64498212264969e+005,-2.45463806772989e+001,-4.64416123065540e+000

1.66794521734578e+005,-2.45466824524200e+001,-4.70891773036152e+000

1.69122886489819e+005,-2.45469926782675e+001,-4.77457508862014e+000

1.71483754005805e+005,-2.45473115905417e+001,-4.84114575007431e+000

1.73877578004168e+005,-2.45476394314641e+001,-4.90864232761013e+000

1.76304818540256e+005,-2.45479764499537e+001,-4.97707760447865e+000

1.78765942091554e+005,-2.45483229018103e+001,-5.04646453643673e+000

1.81261421647326e+005,-2.45486790499006e+001,-5.11681625391078e+000

1.83791736799524e+005,-2.45490451643501e+001,-5.18814606417816e+000

1.86357373834951e+005,-2.45494215227401e+001,-5.26046745357003e+000

1.88958825828723e+005,-2.45498084103094e+001,-5.33379408969366e+000

1.91596592739027e+005,-2.45502061201615e+001,-5.40813982367493e+000

1.94271181503206e+005,-2.45506149534771e+001,-5.48351869241994e+000

1.96983106135185e+005,-2.45510352197324e+001,-5.55994492089665e+000

1.99732887824256e+005,-2.45514672369223e+001,-5.63743292443527e+000

2.02521055035243e+005,-2.45519113317903e+001,-5.71599731104789e+000

2.05348143610063e+005,-2.45523678400638e+001,-5.79565288376728e+000

2.08214696870707e+005,-2.45528371066951e+001,-5.87641464300339e+000

2.11121265723661e+005,-2.45533194861093e+001,-5.95829778891914e+000

2.14068408765776e+005,-2.45538153424584e+001,-6.04131772382287e+000

2.17056692391625e+005,-2.45543250498810e+001,-6.12549005457989e+000

2.20086690902357e+005,-2.45548489927700e+001,-6.21083059504000e+000

2.23158986616063e+005,-2.45553875660457e+001,-6.29735536848229e+000

2.26274169979693e+005,-2.45559411754370e+001,-6.38508061007692e+000

2.29432839682530e+005,-2.45565102377686e+001,-6.47402276936211e+000

2.32635602771247e+005,-2.45570951812561e+001,-6.56419851273721e+000

2.35883074766574e+005,-2.45576964458084e+001,-6.65562472597011e+000

2.39175879781588e+005,-2.45583144833376e+001,-6.74831851672050e+000

2.42514650641661e+005,-2.45589497580760e+001,-6.84229721707523e+000

2.45900029006080e+005,-2.45596027469023e+001,-6.93757838609863e+000

2.49332665491357e+005,-2.45602739396740e+001,-7.03417981239463e+000

2.52813219796278e+005,-2.45609638395701e+001,-7.13211951668113e+000

2.56342360828676e+005,-2.45616729634401e+001,-7.23141575437565e+000

2.59920766833993e+005,-2.45624018421633e+001,-7.33208701819187e+000

2.63549125525621e+005,-2.45631510210154e+001,-7.43415204074518e+000

2.67228134217075e+005,-2.45639210600450e+001,-7.53762979716804e+000

2.70958499956006e+005,-2.45647125344584e+001,-7.64253950773305e+000

2.74740939660078e+005,-2.45655260350144e+001,-7.74890064048278e+000

2.78576180254757e+005,-2.45663621684279e+001,-7.85673291386686e+000

2.82464958813007e+005,-2.45672215577834e+001,-7.96605629938291e+000

2.86408022696948e+005,-2.45681048429580e+001,-8.07689102422263e+000

2.90406129701488e+005,-2.45690126810548e+001,-8.18925757392060e+000

2.94460048199957e+005,-2.45699457468463e+001,-8.30317669500465e+000

2.98570557291775e+005,-2.45709047332276e+001,-8.41866939764729e+000

3.02738446952187e+005,-2.45718903516811e+001,-8.53575695831656e+000

3.06964518184081e+005,-2.45729033327509e+001,-8.65446092242432e+000

3.11249583171928e+005,-2.45739444265292e+001,-8.77480310697199e+000

3.15594465437872e+005,-2.45750144031524e+001,-8.89680560319121e+000

3.19999999999997e+005,-2.45761140533097e+001,-9.02049077917802e+000

3.24467033532806e+005,-2.45772441887626e+001,-9.14588128251952e+000

3.28996424529938e+005,-2.45784056428758e+001,-9.27300004291151e+000

3.33589043469155e+005,-2.45795992711607e+001,-9.40187027476358e+000

3.38245772979638e+005,-2.45808259518300e+001,-9.53251547979331e+000

3.42967508011610e+005,-2.45820865863650e+001,-9.66495944960404e+000

3.47755156008335e+005,-2.45833821000954e+001,-9.79922626824699e+000

3.52609637080511e+005,-2.45847134427911e+001,-9.93534031476449e+000

3.57531884183106e+005,-2.45860815892672e+001,-1.00733262657129e+001

3.62522843294651e+005,-2.45874875400018e+001,-1.02132090976623e+001

3.67583473599047e+005,-2.45889323217664e+001,-1.03550140896717e+001

3.72714747669902e+005,-2.45904169882707e+001,-1.04987668257373e+001

3.77917651657445e+005,-2.45919426208192e+001,-1.06444931972104e+001

3.83193185478053e+005,-2.45935103289826e+001,-1.07922194051844e+001

3.88542363006410e+005,-2.45951212512829e+001,-1.09419719628462e+001

3.93966212270369e+005,-2.45967765558912e+001,-1.10937776977918e+001

3.99465775648511e+005,-2.45984774413411e+001,-1.12476637543011e+001

4.05042110070485e+005,-2.46002251372548e+001,-1.14036575955709e+001

4.10696287220124e+005,-2.46020209050851e+001,-1.15617870059023e+001

4.16429393741414e+005,-2.46038660388702e+001,-1.17220800928394e+001

4.22242531447321e+005,-2.46057618660041e+001,-1.18845652892576e+001

4.28136817531551e+005,-2.46077097480215e+001,-1.20492713553963e+001

4.34113384783250e+005,-2.46097110813973e+001,-1.22162273808346e+001

4.40173381804713e+005,-2.46117672983614e+001,-1.23854627864062e+001

4.46317973232124e+005,-2.46138798677276e+001,-1.25570073260482e+001

4.52548339959385e+005,-2.46160502957391e+001,-1.27308910885843e+001

4.58865679365059e+005,-2.46182801269275e+001,-1.29071444994343e+001

4.65271205542494e+005,-2.46205709449883e+001,-1.30857983222497e+001

4.71766149533147e+005,-2.46229243736709e+001,-1.32668836604683e+001

4.78351759563174e+005,-2.46253420776845e+001,-1.34504319587878e+001

4.85029301283321e+005,-2.46278257636190e+001,-1.36364750045504e+001

4.91800058012158e+005,-2.46303771808812e+001,-1.38250449290367e+001

4.98665330982714e+005,-2.46329981226471e+001,-1.40161742086639e+001

5.05626439592555e+005,-2.46356904268285e+001,-1.42098956660841e+001

5.12684721657352e+005,-2.46384559770561e+001,-1.44062424711771e+001

5.19841533667984e+005,-2.46412967036770e+001,-1.46052481419350e+001

5.27098251051240e+005,-2.46442145847682e+001,-1.48069465452321e+001

5.34456268434150e+005,-2.46472116471650e+001,-1.50113718974760e+001

5.41916999912011e+005,-2.46502899675044e+001,-1.52185587651355e+001

