Freq.,VOut,OutRef

1.00000000000000e+004,-2.98051695484164e+001,-1.09203259781500e-001

1.01395947979003e+004,-2.98051697456262e+001,-1.10727678425210e-001

1.02811382665607e+004,-2.98051699483805e+001,-1.12273377072333e-001

1.04246576084112e+004,-2.98051701568348e+001,-1.13840652777951e-001

1.05701804056138e+004,-2.98051703711493e+001,-1.15429806743141e-001

1.07177346253629e+004,-2.98051705914890e+001,-1.17041144371740e-001

1.08673486252606e+004,-2.98051708180232e+001,-1.18674975332050e-001

1.10190511587661e+004,-2.98051710509262e+001,-1.20331613615056e-001

1.11728713807222e+004,-2.98051712903767e+001,-1.22011377595149e-001

1.13288388529580e+004,-2.98051715365590e+001,-1.23714590089961e-001

1.14869835499703e+004,-2.98051717896624e+001,-1.25441578423071e-001

1.16473358646846e+004,-2.98051720498814e+001,-1.27192674487764e-001

1.18099266142953e+004,-2.98051723174158e+001,-1.28968214811709e-001

1.19747870461893e+004,-2.98051725924716e+001,-1.30768540616229e-001

1.21419488439505e+004,-2.98051728752602e+001,-1.32593997888446e-001

1.23114441334492e+004,-2.98051731659989e+001,-1.34444937445157e-001

1.24833054890161e+004,-2.98051734649112e+001,-1.36321714998606e-001

1.26575659397028e+004,-2.98051737722268e+001,-1.38224691228390e-001

1.28342589756290e+004,-2.98051740881822e+001,-1.40154231846051e-001

1.30134185544193e+004,-2.98051744130200e+001,-1.42110707670254e-001

1.31950791077289e+004,-2.98051747469900e+001,-1.44094494695331e-001

1.33792755478611e+004,-2.98051750903491e+001,-1.46105974162581e-001

1.35660432744767e+004,-2.98051754433609e+001,-1.48145532637005e-001

1.37554181813974e+004,-2.98051758062973e+001,-1.50213562076287e-001

1.39474366635040e+004,-2.98051761794367e+001,-1.52310459914321e-001

1.41421356237309e+004,-2.98051765630662e+001,-1.54436629128373e-001

1.43395524801583e+004,-2.98051769574808e+001,-1.56592478321474e-001

1.45397251732031e+004,-2.98051773629837e+001,-1.58778421801076e-001

1.47426921729110e+004,-2.98051777798864e+001,-1.60994879656970e-001

1.49484924863494e+004,-2.98051782085095e+001,-1.63242277844420e-001

1.51571656651040e+004,-2.98051786491826e+001,-1.65521048260810e-001

1.53687518128801e+004,-2.98051791022442e+001,-1.67831628835746e-001

1.55832915932100e+004,-2.98051795680427e+001,-1.70174463610746e-001

1.58008262372675e+004,-2.98051800469361e+001,-1.72550002823121e-001

1.60213975517924e+004,-2.98051805392927e+001,-1.74958702997055e-001

1.62450479271247e+004,-2.98051810454908e+001,-1.77401027028278e-001

1.64718203453514e+004,-2.98051815659198e+001,-1.79877444273127e-001

1.67017583885674e+004,-2.98051821009792e+001,-1.82388430641986e-001

1.69349062472505e+004,-2.98051826510808e+001,-1.84934468683323e-001

1.71713087287550e+004,-2.98051832166472e+001,-1.87516047685095e-001

1.74110112659224e+004,-2.98051837981133e+001,-1.90133663763483e-001

1.76540599258131e+004,-2.98051843959259e+001,-1.92787819959118e-001

1.79005014185594e+004,-2.98051850105447e+001,-1.95479026333442e-001

1.81503831063432e+004,-2.98051856424419e+001,-1.98207800069866e-001

1.84037530124975e+004,-2.98051862921036e+001,-2.00974665567213e-001

1.86606598307361e+004,-2.98051869600288e+001,-2.03780154545995e-001

1.89211529345119e+004,-2.98051876467311e+001,-2.06624806148428e-001

1.91852823865052e+004,-2.98051883527383e+001,-2.09509167040473e-001

1.94530989482457e+004,-2.98051890785931e+001,-2.12433791519401e-001

1.97246540898671e+004,-2.98051898248536e+001,-2.15399241617833e-001

1.99999999999999e+004,-2.98051905920931e+001,-2.18406087216049e-001

2.02791895958005e+004,-2.98051913809016e+001,-2.21454906144733e-001

2.05622765331213e+004,-2.98051921918852e+001,-2.24546284302628e-001

2.08493152168224e+004,-2.98051930256675e+001,-2.27680815763923e-001

2.11403608112276e+004,-2.98051938828892e+001,-2.30859102895270e-001

2.14354692507258e+004,-2.98051947642093e+001,-2.34081756471663e-001

2.17346972505211e+004,-2.98051956703052e+001,-2.37349395791351e-001

2.20381023175322e+004,-2.98051966018734e+001,-2.40662648796656e-001

2.23457427614443e+004,-2.98051975596297e+001,-2.44022152195902e-001

2.26576777059159e+004,-2.98051985443106e+001,-2.47428551580878e-001

2.29739670999406e+004,-2.98051995566727e+001,-2.50882501556328e-001

2.32946717293690e+004,-2.98052005974941e+001,-2.54384665862915e-001

2.36198532285905e+004,-2.98052016675751e+001,-2.57935717503091e-001

2.39495740923785e+004,-2.98052027677378e+001,-2.61536338875373e-001

2.42838976879009e+004,-2.98052038988280e+001,-2.65187221899802e-001

2.46228882668982e+004,-2.98052050617150e+001,-2.68889068153833e-001

2.49666109780322e+004,-2.98052062572927e+001,-2.72642589006821e-001

2.53151318794055e+004,-2.98052074864798e+001,-2.76448505757130e-001

2.56685179512580e+004,-2.98052087502211e+001,-2.80307549768672e-001

2.60268371088386e+004,-2.98052100494880e+001,-2.84220462612149e-001

2.63901582154578e+004,-2.98052113852791e+001,-2.88187996208440e-001

2.67585510957221e+004,-2.98052127586208e+001,-2.92210912973383e-001

2.71320865489533e+004,-2.98052141705687e+001,-2.96289985961053e-001

2.75108363627948e+004,-2.98052156222082e+001,-3.00425999014613e-001

2.78948733270080e+004,-2.98052171146547e+001,-3.04619746917841e-001

2.82842712474618e+004,-2.98052186490553e+001,-3.08872035544590e-001

2.86791049603164e+004,-2.98052202265893e+001,-3.13183682015911e-001

2.90794503464061e+004,-2.98052218484690e+001,-3.17555514856820e-001

2.94853843458219e+004,-2.98052235159408e+001,-3.21988374153495e-001

2.98969849726987e+004,-2.98052252302862e+001,-3.26483111716332e-001

3.03143313302078e+004,-2.98052269928229e+001,-3.31040591242339e-001

3.07375036257601e+004,-2.98052288049051e+001,-3.35661688482464e-001

3.11665831864199e+004,-2.98052306679258e+001,-3.40347291406891e-001

3.16016524745350e+004,-2.98052325833163e+001,-3.45098300379577e-001

3.20427951035848e+004,-2.98052345525486e+001,-3.49915628327422e-001

3.24900958542493e+004,-2.98052365771362e+001,-3.54800200916119e-001

3.29436406907028e+004,-2.98052386586348e+001,-3.59752956729998e-001

3.34035167771346e+004,-2.98052407986439e+001,-3.64774847448609e-001

3.38698124945009e+004,-2.98052429988080e+001,-3.69866838033448e-001

3.43426174575100e+004,-2.98052452608179e+001,-3.75029906908697e-001

3.48220225318448e+004,-2.98052475864117e+001,-3.80265046153666e-001

3.53081198516260e+004,-2.98052499773763e+001,-3.85573261688942e-001

3.58010028371187e+004,-2.98052524355490e+001,-3.90955573472499e-001

3.63007662126863e+004,-2.98052549628190e+001,-3.96413015691573e-001

3.68075060249948e+004,-2.98052575611277e+001,-4.01946636966692e-001

3.73213196614721e+004,-2.98052602324719e+001,-4.07557500547454e-001

3.78423058690237e+004,-2.98052629789040e+001,-4.13246684519477e-001

3.83705647730104e+004,-2.98052658025344e+001,-4.19015282010282e-001

3.89061978964912e+004,-2.98052687055323e+001,-4.24864401399982e-001

3.94493081797342e+004,-2.98052716901285e+001,-4.30795166530647e-001

3.99999999999998e+004,-2.98052747586159e+001,-4.36808716925837e-001

4.05583791916010e+004,-2.98052779133522e+001,-4.42906208007589e-001

4.11245530662425e+004,-2.98052811567609e+001,-4.49088811317069e-001

4.16986304336447e+004,-2.98052844913340e+001,-4.55357714740295e-001

4.22807216224550e+004,-2.98052879196334e+001,-4.61714122734528e-001

4.28709385014515e+004,-2.98052914442927e+001,-4.68159256561998e-001

4.34693945010421e+004,-2.98052950680198e+001,-4.74694354520802e-001

4.40762046350642e+004,-2.98052987935984e+001,-4.81320672184339e-001

4.46914855228886e+004,-2.98053026238906e+001,-4.88039482640911e-001

4.53153554118317e+004,-2.98053065618388e+001,-4.94852076737934e-001

4.59479341998812e+004,-2.98053106104678e+001,-5.01759763330564e-001

4.65893434587380e+004,-2.98053147728878e+001,-5.08763869530459e-001

4.72397064571810e+004,-2.98053190522959e+001,-5.15865740961598e-001

4.78991481847569e+004,-2.98053234519794e+001,-5.23066742017229e-001

4.85677953758016e+004,-2.98053279753175e+001,-5.30368256122179e-001

4.92457765337964e+004,-2.98053326257847e+001,-5.37771685996224e-001

4.99332219560642e+004,-2.98053374069526e+001,-5.45278453925600e-001

5.06302637588109e+004,-2.98053423224935e+001,-5.52890002032255e-001

5.13370359025159e+004,-2.98053473761825e+001,-5.60607792552608e-001

5.20536742176771e+004,-2.98053525719010e+001,-5.68433308115025e-001

5.27803164309155e+004,-2.98053579136390e+001,-5.76368052026616e-001

5.35171021914442e+004,-2.98053634054989e+001,-5.84413548558572e-001

5.42641730979066e+004,-2.98053690516979e+001,-5.92571343239809e-001

5.50216727255895e+004,-2.98053748565719e+001,-6.00843003150987e-001

5.57897466540159e+004,-2.98053808245784e+001,-6.09230117225730e-001

5.65685424949235e+004,-2.98053869602997e+001,-6.17734296555754e-001

5.73582099206328e+004,-2.98053932684474e+001,-6.26357174695269e-001

5.81589006928121e+004,-2.98053997538646e+001,-6.35100407978415e-001

5.89707686916437e+004,-2.98054064215308e+001,-6.43965675832639e-001

5.97939699453972e+004,-2.98054132765654e+001,-6.52954681100385e-001

6.06286626604156e+004,-2.98054203242307e+001,-6.62069150367509e-001

6.14750072515201e+004,-2.98054275699374e+001,-6.71310834289225e-001

6.23331663728396e+004,-2.98054350192478e+001,-6.80681507928208e-001

6.32033049490698e+004,-2.98054426778800e+001,-6.90182971092894e-001

6.40855902071694e+004,-2.98054505517131e+001,-6.99817048680249e-001

6.49801917084985e+004,-2.98054586467906e+001,-7.09585591026283e-001

6.58872813814055e+004,-2.98054669693258e+001,-7.19490474259510e-001

6.68070335542691e+004,-2.98054755257063e+001,-7.29533600658268e-001

6.77396249890018e+004,-2.98054843224987e+001,-7.39716899014663e-001

6.86852349150199e+004,-2.98054933664540e+001,-7.50042325003039e-001

6.96440450636895e+004,-2.98055026645124e+001,-7.60511861553489e-001

7.06162397032520e+004,-2.98055122238087e+001,-7.71127519230580e-001

7.16020056742374e+004,-2.98055220516780e+001,-7.81891336616952e-001

7.26015324253724e+004,-2.98055321556609e+001,-7.92805380701604e-001

7.36150120499896e+004,-2.98055425435095e+001,-8.03871747275816e-001

7.46426393229441e+004,-2.98055532231930e+001,-8.15092561332866e-001

7.56846117380472e+004,-2.98055642029045e+001,-8.26469977471162e-001

7.67411295460207e+004,-2.98055754910664e+001,-8.38006180308131e-001

7.78123957929823e+004,-2.98055870963371e+001,-8.49703384894760e-001

7.88986163594682e+004,-2.98055990276181e+001,-8.61563837138185e-001

7.99999999999995e+004,-2.98056112940600e+001,-8.73589814230921e-001

8.11167583832018e+004,-2.98056239050699e+001,-8.85783625082973e-001

8.22491061324848e+004,-2.98056368703186e+001,-8.98147610762668e-001

8.33972608672892e+004,-2.98056501997479e+001,-9.10684144942014e-001

8.45614432449099e+004,-2.98056639035777e+001,-9.23395634349669e-001

8.57418770029029e+004,-2.98056779923148e+001,-9.36284519227554e-001

8.69387890020841e+004,-2.98056924767597e+001,-9.49353273796585e-001

8.81524092701283e+004,-2.98057073680159e+001,-9.62604406726227e-001

8.93829710457770e+004,-2.98057226774975e+001,-9.76040461612167e-001

9.06307108236633e+004,-2.98057384169383e+001,-9.89664017460554e-001

9.18958683997622e+004,-2.98057545984007e+001,-1.00347768917674e+000

9.31786869174758e+004,-2.98057712342845e+001,-1.01748412806367e+000

9.44794129143618e+004,-2.98057883373369e+001,-1.03168602232500e+000

9.57982963695136e+004,-2.98058059206618e+001,-1.04608609757423e+000

9.71355907516031e+004,-2.98058239977297e+001,-1.06068711735476e+000

9.84915530675926e+004,-2.98058425823879e+001,-1.07549188366238e+000

9.98664439121282e+004,-2.98058616888715e+001,-1.09050323747697e+000

1.01260527517622e+005,-2.98058813318134e+001,-1.10572405930244e+000

1.02674071805032e+005,-2.98059015262560e+001,-1.12115726971190e+000

1.04107348435354e+005,-2.98059222876622e+001,-1.13680582990112e+000

1.05560632861831e+005,-2.98059436319274e+001,-1.15267274224879e+000

1.07034204382888e+005,-2.98059655753914e+001,-1.16876105088732e+000

1.08528346195813e+005,-2.98059881348504e+001,-1.18507384227718e+000

1.10043345451179e+005,-2.98060113275706e+001,-1.20161424578975e+000

1.11579493308032e+005,-2.98060351713001e+001,-1.21838543430309e+000

1.13137084989847e+005,-2.98060596842833e+001,-1.23539062479723e+000

1.14716419841265e+005,-2.98060848852741e+001,-1.25263307896439e+000

1.16317801385624e+005,-2.98061107935500e+001,-1.27011610382561e+000

1.17941537383287e+005,-2.98061374289269e+001,-1.28784305235315e+000

1.19587939890794e+005,-2.98061648117743e+001,-1.30581732410371e+000

1.21257325320831e+005,-2.98061929630296e+001,-1.32404236586142e+000

1.22950014503040e+005,-2.98062219042152e+001,-1.34252167228384e+000

1.24666332745679e+005,-2.98062516574534e+001,-1.36125878656450e+000

1.26406609898139e+005,-2.98062822454843e+001,-1.38025730109616e+000

1.28171180414339e+005,-2.98063136916816e+001,-1.39952085815004e+000

1.29960383416997e+005,-2.98063460200713e+001,-1.41905315055853e+000

1.31774562762811e+005,-2.98063792553489e+001,-1.43885792241099e+000

1.33614067108538e+005,-2.98064134228981e+001,-1.45893896975611e+000

1.35479249978003e+005,-2.98064485488103e+001,-1.47930014131443e+000

1.37370469830040e+005,-2.98064846599036e+001,-1.49994533920126e+000

1.39288090127379e+005,-2.98065217837430e+001,-1.52087851965780e+000

1.41232479406504e+005,-2.98065599486610e+001,-1.54210369379292e+000

1.43204011348474e+005,-2.98065991837788e+001,-1.56362492833414e+000

1.45203064850745e+005,-2.98066395190284e+001,-1.58544634638683e+000

1.47230024099979e+005,-2.98066809851739e+001,-1.60757212820873e+000

1.49285278645888e+005,-2.98067236138357e+001,-1.63000651198787e+000

1.51369223476094e+005,-2.98067674375131e+001,-1.65275379463538e+000

1.53482259092041e+005,-2.98068124896090e+001,-1.67581833258665e+000

1.55624791585964e+005,-2.98068588044545e+001,-1.69920454261411e+000

1.57797232718936e+005,-2.98069064173343e+001,-1.72291690264925e+000

1.59999999999999e+005,-2.98069553645135e+001,-1.74695995261550e+000

1.62233516766403e+005,-2.98070056832633e+001,-1.77133829527487e+000

1.64498212264969e+005,-2.98070574118899e+001,-1.79605659708006e+000

1.66794521734578e+005,-2.98071105897620e+001,-1.82111958904309e+000

1.69122886489819e+005,-2.98071652573403e+001,-1.84653206761167e+000

1.71483754005805e+005,-2.98072214562070e+001,-1.87229889555761e+000

1.73877578004168e+005,-2.98072792290970e+001,-1.89842500287808e+000

1.76304818540256e+005,-2.98073386199289e+001,-1.92491538770645e+000

1.78765942091554e+005,-2.98073996738373e+001,-1.95177511723669e+000

1.81261421647326e+005,-2.98074624372066e+001,-1.97900932865671e+000

1.83791736799524e+005,-2.98075269577045e+001,-2.00662323009763e+000

1.86357373834951e+005,-2.98075932843168e+001,-2.03462210159196e+000

1.88958825828723e+005,-2.98076614673839e+001,-2.06301129604495e+000

1.91596592739027e+005,-2.98077315586371e+001,-2.09179624021819e+000

1.94271181503206e+005,-2.98078036112368e+001,-2.12098243572590e+000

1.96983106135185e+005,-2.98078776798107e+001,-2.15057546004413e+000

1.99732887824256e+005,-2.98079538204944e+001,-2.18058096753071e+000

2.02521055035243e+005,-2.98080320909713e+001,-2.21100469046075e+000

2.05348143610063e+005,-2.98081125505155e+001,-2.24185244007301e+000

2.08214696870707e+005,-2.98081952600340e+001,-2.27313010763024e+000

2.11121265723661e+005,-2.98082802821113e+001,-2.30484366549236e+000

2.14068408765776e+005,-2.98083676810543e+001,-2.33699916820360e+000

2.17056692391625e+005,-2.98084575229393e+001,-2.36960275359190e+000

2.20086690902357e+005,-2.98085498756590e+001,-2.40266064388252e+000

2.23158986616063e+005,-2.98086448089715e+001,-2.43617914682705e+000

2.26274169979693e+005,-2.98087423945511e+001,-2.47016465684209e+000

2.29432839682530e+005,-2.98088427060389e+001,-2.50462365616627e+000

2.32635602771247e+005,-2.98089458190959e+001,-2.53956271602890e+000

2.35883074766574e+005,-2.98090518114570e+001,-2.57498849783357e+000

2.39175879781588e+005,-2.98091607629866e+001,-2.61090775435568e+000

2.42514650641661e+005,-2.98092727557353e+001,-2.64732733095500e+000

2.45900029006080e+005,-2.98093878739987e+001,-2.68425416680269e+000

2.49332665491357e+005,-2.98095062043765e+001,-2.72169529612225e+000

2.52813219796278e+005,-2.98096278358343e+001,-2.75965784944709e+000

2.56342360828676e+005,-2.98097528597666e+001,-2.79814905489138e+000

2.59920766833993e+005,-2.98098813700608e+001,-2.83717623943601e+000

2.63549125525621e+005,-2.98100134631638e+001,-2.87674683023203e+000

2.67228134217075e+005,-2.98101492381493e+001,-2.91686835591639e+000

2.70958499956006e+005,-2.98102887967876e+001,-2.95754844794551e+000

2.74740939660078e+005,-2.98104322436165e+001,-2.99879484194310e+000

2.78576180254757e+005,-2.98105796860146e+001,-3.04061537906514e+000

2.82464958813007e+005,-2.98107312342757e+001,-3.08301800737873e+000

2.86408022696948e+005,-2.98108870016855e+001,-3.12601078325917e+000

2.90406129701488e+005,-2.98110471046004e+001,-3.16960187280143e+000

2.94460048199957e+005,-2.98112116625277e+001,-3.21379955324913e+000

2.98570557291775e+005,-2.98113807982077e+001,-3.25861221443940e+000

3.02738446952187e+005,-2.98115546376991e+001,-3.30404836026387e+000

3.06964518184081e+005,-2.98117333104644e+001,-3.35011661014696e+000

3.11249583171928e+005,-2.98119169494594e+001,-3.39682570054168e+000

3.15594465437872e+005,-2.98121056912234e+001,-3.44418448643999e+000

3.19999999999997e+005,-2.98122996759726e+001,-3.49220194290266e+000

3.24467033532806e+005,-2.98124990476949e+001,-3.54088716660570e+000

3.28996424529938e+005,-2.98127039542482e+001,-3.59024937740287e+000

3.33589043469155e+005,-2.98129145474593e+001,-3.64029791990731e+000

3.38245772979638e+005,-2.98131309832268e+001,-3.69104226509051e+000

3.42967508011610e+005,-2.98133534216261e+001,-3.74249201189756e+000

3.47755156008335e+005,-2.98135820270158e+001,-3.79465688888224e+000

3.52609637080511e+005,-2.98138169681483e+001,-3.84754675585921e+000

3.57531884183106e+005,-2.98140584182821e+001,-3.90117160557389e+000

3.62522843294651e+005,-2.98143065552963e+001,-3.95554156539233e+000

3.67583473599047e+005,-2.98145615618093e+001,-4.01066689900744e+000

3.72714747669902e+005,-2.98148236252988e+001,-4.06655800816502e+000

3.77917651657445e+005,-2.98150929382257e+001,-4.12322543440910e+000

3.83193185478053e+005,-2.98153696981600e+001,-4.18067986084487e+000

3.88542363006410e+005,-2.98156541079108e+001,-4.23893211392155e+000

3.93966212270369e+005,-2.98159463756579e+001,-4.29799316523456e+000

3.99465775648511e+005,-2.98162467150883e+001,-4.35787413334603e+000

4.05042110070485e+005,-2.98165553455340e+001,-4.41858628562675e+000

4.10696287220124e+005,-2.98168724921143e+001,-4.48014104011642e+000

4.16429393741414e+005,-2.98171983858813e+001,-4.54254996740369e+000

4.22242531447321e+005,-2.98175332639680e+001,-4.60582479252726e+000

4.28136817531551e+005,-2.98178773697410e+001,-4.66997739689694e+000

4.34113384783250e+005,-2.98182309529559e+001,-4.73501982023468e+000

4.40173381804713e+005,-2.98185942699163e+001,-4.80096426253657e+000

4.46317973232124e+005,-2.98189675836377e+001,-4.86782308605587e+000

4.52548339959385e+005,-2.98193511640133e+001,-4.93560881730670e+000

4.58865679365059e+005,-2.98197452879856e+001,-5.00433414908868e+000

4.65271205542494e+005,-2.98201502397204e+001,-5.07401194253464e+000

4.71766149533147e+005,-2.98205663107864e+001,-5.14465522917711e+000

4.78351759563174e+005,-2.98209938003374e+001,-5.21627721303936e+000

4.85029301283321e+005,-2.98214330153003e+001,-5.28889127274638e+000

4.91800058012158e+005,-2.98218842705661e+001,-5.36251096366057e+000

4.98665330982714e+005,-2.98223478891866e+001,-5.43715002003653e+000

5.05626439592555e+005,-2.98228242025754e+001,-5.51282235720167e+000

5.12684721657352e+005,-2.98233135507126e+001,-5.58954207375796e+000

5.19841533667984e+005,-2.98238162823565e+001,-5.66732345380735e+000

5.27098251051240e+005,-2.98243327552580e+001,-5.74618096920044e+000

5.34456268434150e+005,-2.98248633363819e+001,-5.82612928180823e+000

5.41916999912011e+005,-2.98254084021324e+001,-5.90718324581909e+000

