Freq.,VOut,OutRef

1.00000000000000e+004,-1.36844476865918e+001,-1.59986103891948e-001

1.01395947979003e+004,-1.36844477783565e+001,-1.62219424328422e-001

1.02811382665607e+004,-1.36844478727010e+001,-1.64483920655938e-001

1.04246576084112e+004,-1.36844479696975e+001,-1.66780028071481e-001

1.05701804056138e+004,-1.36844480694210e+001,-1.69108187842703e-001

1.07177346253629e+004,-1.36844481719479e+001,-1.71468847400405e-001

1.08673486252606e+004,-1.36844482773572e+001,-1.73862460419678e-001

1.10190511587661e+004,-1.36844483857298e+001,-1.76289486908121e-001

1.11728713807222e+004,-1.36844484971489e+001,-1.78750393296576e-001

1.13288388529580e+004,-1.36844486117002e+001,-1.81245652524607e-001

1.14869835499703e+004,-1.36844487294719e+001,-1.83775744133985e-001

1.16473358646846e+004,-1.36844488505542e+001,-1.86341154361432e-001

1.18099266142953e+004,-1.36844489750404e+001,-1.88942376230610e-001

1.19747870461893e+004,-1.36844491030264e+001,-1.91579909644945e-001

1.21419488439505e+004,-1.36844492346100e+001,-1.94254261491064e-001

1.23114441334492e+004,-1.36844493698928e+001,-1.96965945725605e-001

1.24833054890161e+004,-1.36844495089787e+001,-1.99715483483247e-001

1.26575659397028e+004,-1.36844496519746e+001,-2.02503403170834e-001

1.28342589756290e+004,-1.36844497989901e+001,-2.05330240574232e-001

1.30134185544193e+004,-1.36844499501386e+001,-2.08196538954320e-001

1.31950791077289e+004,-1.36844501055362e+001,-2.11102849157518e-001

1.33792755478611e+004,-1.36844502653022e+001,-2.14049729720153e-001

1.35660432744767e+004,-1.36844504295594e+001,-2.17037746973556e-001

1.37554181813974e+004,-1.36844505984340e+001,-2.20067475154849e-001

1.39474366635040e+004,-1.36844507720560e+001,-2.23139496516249e-001

1.41421356237309e+004,-1.36844509505588e+001,-2.26254401438117e-001

1.43395524801583e+004,-1.36844511340794e+001,-2.29412788541725e-001

1.45397251732031e+004,-1.36844513227589e+001,-2.32615264805179e-001

1.47426921729110e+004,-1.36844515167425e+001,-2.35862445676207e-001

1.49484924863494e+004,-1.36844517161791e+001,-2.39154955197472e-001

1.51571656651040e+004,-1.36844519212221e+001,-2.42493426118635e-001

1.53687518128801e+004,-1.36844521320290e+001,-2.45878500024431e-001

1.55832915932100e+004,-1.36844523487617e+001,-2.49310827454222e-001

1.58008262372675e+004,-1.36844525715869e+001,-2.52791068027634e-001

1.60213975517924e+004,-1.36844528006759e+001,-2.56319890571685e-001

1.62450479271247e+004,-1.36844530362047e+001,-2.59897973249027e-001

1.64718203453514e+004,-1.36844532783542e+001,-2.63526003689225e-001

1.67017583885674e+004,-1.36844535273105e+001,-2.67204679120387e-001

1.69349062472505e+004,-1.36844537832651e+001,-2.70934706501328e-001

1.71713087287550e+004,-1.36844540464146e+001,-2.74716802659132e-001

1.74110112659224e+004,-1.36844543169611e+001,-2.78551694428099e-001

1.76540599258131e+004,-1.36844545951125e+001,-2.82440118786802e-001

1.79005014185594e+004,-1.36844548810828e+001,-2.86382823000324e-001

1.81503831063432e+004,-1.36844551750916e+001,-2.90380564765119e-001

1.84037530124975e+004,-1.36844554773648e+001,-2.94434112353170e-001

1.86606598307361e+004,-1.36844557881345e+001,-2.98544244762057e-001

1.89211529345119e+004,-1.36844561076399e+001,-3.02711751858815e-001

1.91852823865052e+004,-1.36844564361262e+001,-3.06937434539573e-001

1.94530989482457e+004,-1.36844567738459e+001,-3.11222104876967e-001

1.97246540898671e+004,-1.36844571210583e+001,-3.15566586280282e-001

1.99999999999999e+004,-1.36844574780306e+001,-3.19971713649197e-001

2.02791895958005e+004,-1.36844578450367e+001,-3.24438333540614e-001

2.05622765331213e+004,-1.36844582223587e+001,-3.28967304324174e-001

2.08493152168224e+004,-1.36844586102866e+001,-3.33559496352721e-001

2.11403608112276e+004,-1.36844590091183e+001,-3.38215792127229e-001

2.14354692507258e+004,-1.36844594191603e+001,-3.42937086465067e-001

2.17346972505211e+004,-1.36844598407276e+001,-3.47724286674577e-001

2.20381023175322e+004,-1.36844602741441e+001,-3.52578312726934e-001

2.23457427614443e+004,-1.36844607197429e+001,-3.57500097434303e-001

2.26576777059159e+004,-1.36844611778660e+001,-3.62490586629835e-001

2.29739670999406e+004,-1.36844616488657e+001,-3.67550739345676e-001

2.32946717293690e+004,-1.36844621331034e+001,-3.72681528003213e-001

2.36198532285905e+004,-1.36844626309515e+001,-3.77883938592305e-001

2.39495740923785e+004,-1.36844631427923e+001,-3.83158970867729e-001

2.42838976879009e+004,-1.36844636690189e+001,-3.88507638536182e-001

2.46228882668982e+004,-1.36844642100357e+001,-3.93930969454195e-001

2.49666109780322e+004,-1.36844647662580e+001,-3.99430005823857e-001

2.53151318794055e+004,-1.36844653381133e+001,-4.05005804392811e-001

2.56685179512580e+004,-1.36844659260405e+001,-4.10659436659009e-001

2.60268371088386e+004,-1.36844665304916e+001,-4.16391989074291e-001

2.63901582154578e+004,-1.36844671519304e+001,-4.22204563254508e-001

2.67585510957221e+004,-1.36844677908346e+001,-4.28098276189456e-001

2.71320865489533e+004,-1.36844684476945e+001,-4.34074260461036e-001

2.75108363627948e+004,-1.36844691230149e+001,-4.40133664454491e-001

2.78948733270080e+004,-1.36844698173142e+001,-4.46277652586553e-001

2.82842712474618e+004,-1.36844705311256e+001,-4.52507405522681e-001

2.86791049603164e+004,-1.36844712649974e+001,-4.58824120406443e-001

2.90794503464061e+004,-1.36844720194929e+001,-4.65229011090564e-001

2.94853843458219e+004,-1.36844727951916e+001,-4.71723308367139e-001

2.98969849726987e+004,-1.36844735926892e+001,-4.78308260205922e-001

3.03143313302078e+004,-1.36844744125978e+001,-4.84985131993707e-001

3.07375036257601e+004,-1.36844752555471e+001,-4.91755206776855e-001

3.11665831864199e+004,-1.36844761221842e+001,-4.98619785507852e-001

3.16016524745350e+004,-1.36844770131744e+001,-5.05580187294290e-001

3.20427951035848e+004,-1.36844779292018e+001,-5.12637749654835e-001

3.24900958542493e+004,-1.36844788709696e+001,-5.19793828771097e-001

3.29436406907028e+004,-1.36844798392008e+001,-5.27049799753163e-001

3.34035167771346e+004,-1.36844808346384e+001,-5.34407056900937e-001

3.38698124945009e+004,-1.36844818580467e+001,-5.41867013970751e-001

3.43426174575100e+004,-1.36844829102112e+001,-5.49431104449733e-001

3.48220225318448e+004,-1.36844839919393e+001,-5.57100781828420e-001

3.53081198516260e+004,-1.36844851040613e+001,-5.64877519881124e-001

3.58010028371187e+004,-1.36844862474307e+001,-5.72762812947690e-001

3.63007662126863e+004,-1.36844874229247e+001,-5.80758176222181e-001

3.68075060249948e+004,-1.36844886314457e+001,-5.88865146040366e-001

3.73213196614721e+004,-1.36844898739208e+001,-5.97085280178623e-001

3.78423058690237e+004,-1.36844911513033e+001,-6.05420158150086e-001

3.83705647730104e+004,-1.36844924645733e+001,-6.13871381507958e-001

3.89061978964912e+004,-1.36844938147383e+001,-6.22440574154633e-001

3.94493081797342e+004,-1.36844952028342e+001,-6.31129382650460e-001

3.99999999999998e+004,-1.36844966299259e+001,-6.39939476531868e-001

4.05583791916010e+004,-1.36844980971077e+001,-6.48872548632506e-001

4.11245530662425e+004,-1.36844996055051e+001,-6.57930315404432e-001

4.16986304336447e+004,-1.36845011562751e+001,-6.67114517250507e-001

4.22807216224550e+004,-1.36845027506070e+001,-6.76426918856597e-001

4.28709385014515e+004,-1.36845043897233e+001,-6.85869309532119e-001

4.34693945010421e+004,-1.36845060748809e+001,-6.95443503550800e-001

4.40762046350642e+004,-1.36845078073720e+001,-7.05151340499541e-001

4.46914855228886e+004,-1.36845095885248e+001,-7.14994685632322e-001

4.53153554118317e+004,-1.36845114197047e+001,-7.24975430226831e-001

4.59479341998812e+004,-1.36845133023156e+001,-7.35095491946410e-001

4.65893434587380e+004,-1.36845152378005e+001,-7.45356815209931e-001

4.72397064571810e+004,-1.36845172276428e+001,-7.55761371562277e-001

4.78991481847569e+004,-1.36845192733674e+001,-7.66311160054541e-001

4.85677953758016e+004,-1.36845213765422e+001,-7.77008207625524e-001

4.92457765337964e+004,-1.36845235387786e+001,-7.87854569491304e-001

4.99332219560642e+004,-1.36845257617333e+001,-7.98852329538619e-001

5.06302637588109e+004,-1.36845280471093e+001,-8.10003600724899e-001

5.13370359025159e+004,-1.36845303966572e+001,-8.21310525483198e-001

5.20536742176771e+004,-1.36845328121766e+001,-8.32775276132110e-001

5.27803164309155e+004,-1.36845352955177e+001,-8.44400055291857e-001

5.35171021914442e+004,-1.36845378485821e+001,-8.56187096308276e-001

5.42641730979066e+004,-1.36845404733246e+001,-8.68138663679008e-001

5.50216727255895e+004,-1.36845431717549e+001,-8.80257053487490e-001

5.57897466540159e+004,-1.36845459459386e+001,-8.92544593843288e-001

5.65685424949235e+004,-1.36845487979993e+001,-9.05003645328122e-001

5.73582099206328e+004,-1.36845517301197e+001,-9.17636601447526e-001

5.81589006928121e+004,-1.36845547445438e+001,-9.30445889089234e-001

5.89707686916437e+004,-1.36845578435779e+001,-9.43433968989257e-001

5.97939699453972e+004,-1.36845610295930e+001,-9.56603336200819e-001

6.06286626604156e+004,-1.36845643050263e+001,-9.69956520573850e-001

6.14750072515201e+004,-1.36845676723829e+001,-9.83496087239176e-001

6.23331663728396e+004,-1.36845711342379e+001,-9.97224637098556e-001

6.32033049490698e+004,-1.36845746932383e+001,-1.01114480732333e+000

6.40855902071694e+004,-1.36845783521051e+001,-1.02525927185816e+000

6.49801917084985e+004,-1.36845821136350e+001,-1.03957074193452e+000

6.58872813814055e+004,-1.36845859807027e+001,-1.05408196658740e+000

6.68070335542691e+004,-1.36845899562632e+001,-1.06879573318297e+000

6.77396249890018e+004,-1.36845940433538e+001,-1.08371486795066e+000

6.86852349150199e+004,-1.36845982450966e+001,-1.09884223652404e+000

6.96440450636895e+004,-1.36846025647006e+001,-1.11418074448826e+000

7.06162397032520e+004,-1.36846070054641e+001,-1.12973333793748e+000

7.16020056742374e+004,-1.36846115707774e+001,-1.14550300403598e+000

7.26015324253724e+004,-1.36846162641253e+001,-1.16149277158986e+000

7.36150120499896e+004,-1.36846210890894e+001,-1.17770571162741e+000

7.46426393229441e+004,-1.36846260493512e+001,-1.19414493798279e+000

7.56846117380472e+004,-1.36846311486944e+001,-1.21081360789529e+000

7.67411295460207e+004,-1.36846363910080e+001,-1.22771492260823e+000

7.78123957929823e+004,-1.36846417802893e+001,-1.24485212798345e+000

7.88986163594682e+004,-1.36846473206467e+001,-1.26222851511954e+000

7.99999999999995e+004,-1.36846530163026e+001,-1.27984742098099e+000

8.11167583832018e+004,-1.36846588715967e+001,-1.29771222903548e+000

8.22491061324848e+004,-1.36846648909895e+001,-1.31582636989904e+000

8.33972608672892e+004,-1.36846710790649e+001,-1.33419332199125e+000

8.45614432449099e+004,-1.36846774405344e+001,-1.35281661219888e+000

8.57418770029029e+004,-1.36846839802400e+001,-1.37169981654784e+000

8.69387890020841e+004,-1.36846907031581e+001,-1.39084656088707e+000

8.81524092701283e+004,-1.36846976144029e+001,-1.41026052157815e+000

8.93829710457770e+004,-1.36847047192303e+001,-1.42994542619739e+000

9.06307108236633e+004,-1.36847120230420e+001,-1.44990505424631e+000

9.18958683997622e+004,-1.36847195313890e+001,-1.47014323787040e+000

9.31786869174758e+004,-1.36847272499762e+001,-1.49066386259110e+000

9.44794129143618e+004,-1.36847351846659e+001,-1.51147086804524e+000

9.57982963695136e+004,-1.36847433414829e+001,-1.53256824873495e+000

9.71355907516031e+004,-1.36847517266183e+001,-1.55396005478848e+000

9.84915530675926e+004,-1.36847603464343e+001,-1.57565039273098e+000

9.98664439121282e+004,-1.36847692074687e+001,-1.59764342626668e+000

1.01260527517622e+005,-1.36847783164397e+001,-1.61994337706900e+000

1.02674071805032e+005,-1.36847876802508e+001,-1.64255452558602e+000

1.04107348435354e+005,-1.36847973059960e+001,-1.66548121185244e+000

1.05560632861831e+005,-1.36848072009643e+001,-1.68872783631612e+000

1.07034204382888e+005,-1.36848173726460e+001,-1.71229886067183e+000

1.08528346195813e+005,-1.36848278287369e+001,-1.73619880871187e+000

1.10043345451179e+005,-1.36848385771450e+001,-1.76043226718279e+000

1.11579493308032e+005,-1.36848496259954e+001,-1.78500388665749e+000

1.13137084989847e+005,-1.36848609836364e+001,-1.80991838241730e+000

1.14716419841265e+005,-1.36848726586453e+001,-1.83518053534691e+000

1.16317801385624e+005,-1.36848846598351e+001,-1.86079519284058e+000

1.17941537383287e+005,-1.36848969962600e+001,-1.88676726972211e+000

1.19587939890794e+005,-1.36849096772225e+001,-1.91310174917512e+000

1.21257325320831e+005,-1.36849227122796e+001,-1.93980368368796e+000

1.22950014503040e+005,-1.36849361112496e+001,-1.96687819601107e+000

1.24666332745679e+005,-1.36849498842195e+001,-1.99433048012554e+000

1.26406609898139e+005,-1.36849640415514e+001,-2.02216580222648e+000

1.28171180414339e+005,-1.36849785938903e+001,-2.05038950172033e+000

1.29960383416997e+005,-1.36849935521716e+001,-2.07900699223198e+000

1.31774562762811e+005,-1.36850089276284e+001,-2.10802376263122e+000

1.33614067108538e+005,-1.36850247317995e+001,-2.13744537806685e+000

1.35479249978003e+005,-1.36850409765376e+001,-2.16727748101908e+000

1.37370469830040e+005,-1.36850576740174e+001,-2.19752579236494e+000

1.39288090127379e+005,-1.36850748367439e+001,-2.22819611245595e+000

1.41232479406504e+005,-1.36850924775613e+001,-2.25929432221390e+000

1.43204011348474e+005,-1.36851106096616e+001,-2.29082638423847e+000

1.45203064850745e+005,-1.36851292465938e+001,-2.32279834393010e+000

1.47230024099979e+005,-1.36851484022730e+001,-2.35521633062946e+000

1.49285278645888e+005,-1.36851680909903e+001,-2.38808655876991e+000

1.51369223476094e+005,-1.36851883274217e+001,-2.42141532904787e+000

1.53482259092041e+005,-1.36852091266390e+001,-2.45520902960567e+000

1.55624791585964e+005,-1.36852305041191e+001,-2.48947413723358e+000

1.57797232718936e+005,-1.36852524757551e+001,-2.52421721858517e+000

1.59999999999999e+005,-1.36852750578663e+001,-2.55944493141013e+000

1.62233516766403e+005,-1.36852982672097e+001,-2.59516402580263e+000

1.64498212264969e+005,-1.36853221209905e+001,-2.63138134546817e+000

1.66794521734578e+005,-1.36853466368740e+001,-2.66810382900384e+000

1.69122886489819e+005,-1.36853718329967e+001,-2.70533851119959e+000

1.71483754005805e+005,-1.36853977279787e+001,-2.74309252435308e+000

1.73877578004168e+005,-1.36854243409356e+001,-2.78137309960383e+000

1.76304818540256e+005,-1.36854516914907e+001,-2.82018756828493e+000

1.78765942091554e+005,-1.36854797997881e+001,-2.85954336329212e+000

1.81261421647326e+005,-1.36855086865051e+001,-2.89944802047078e+000

1.83791736799524e+005,-1.36855383728659e+001,-2.93990918002150e+000

1.86357373834951e+005,-1.36855688806547e+001,-2.98093458792422e+000

1.88958825828723e+005,-1.36856002322300e+001,-3.02253209738036e+000

1.91596592739027e+005,-1.36856324505378e+001,-3.06470967027455e+000

1.94271181503206e+005,-1.36856655591269e+001,-3.10747537865504e+000

1.96983106135185e+005,-1.36856995821627e+001,-3.15083740623445e+000

1.99732887824256e+005,-1.36857345444425e+001,-3.19480404990830e+000

2.02521055035243e+005,-1.36857704714108e+001,-3.23938372129499e+000

2.05348143610063e+005,-1.36858073891743e+001,-3.28458494829530e+000

2.08214696870707e+005,-1.36858453245184e+001,-3.33041637667173e+000

2.11121265723661e+005,-1.36858843049226e+001,-3.37688677164916e+000

2.14068408765776e+005,-1.36859243585772e+001,-3.42400501953553e+000

2.17056692391625e+005,-1.36859655143999e+001,-3.47178012936479e+000

2.20086690902357e+005,-1.36860078020530e+001,-3.52022123455865e+000

2.23158986616063e+005,-1.36860512519603e+001,-3.56933759461344e+000

2.26274169979693e+005,-1.36860958953248e+001,-3.61913859680535e+000

2.29432839682530e+005,-1.36861417641467e+001,-3.66963375791985e+000

2.32635602771247e+005,-1.36861888912414e+001,-3.72083272600246e+000

2.35883074766574e+005,-1.36862373102581e+001,-3.77274528213239e+000

2.39175879781588e+005,-1.36862870556981e+001,-3.82538134221984e+000

2.42514650641661e+005,-1.36863381629347e+001,-3.87875095882385e+000

2.45900029006080e+005,-1.36863906682315e+001,-3.93286432299745e+000

2.49332665491357e+005,-1.36864446087630e+001,-3.98773176615264e+000

2.52813219796278e+005,-1.36865000226336e+001,-4.04336376195239e+000

2.56342360828676e+005,-1.36865569488984e+001,-4.09977092822457e+000

2.59920766833993e+005,-1.36866154275831e+001,-4.15696402890287e+000

2.63549125525621e+005,-1.36866754997053e+001,-4.21495397598945e+000

2.67228134217075e+005,-1.36867372072951e+001,-4.27375183154628e+000

2.70958499956006e+005,-1.36868005934160e+001,-4.33336880970926e+000

2.74740939660078e+005,-1.36868657021871e+001,-4.39381627873012e+000

2.78576180254757e+005,-1.36869325788041e+001,-4.45510576304250e+000

2.82464958813007e+005,-1.36870012695616e+001,-4.51724894535665e+000

2.86408022696948e+005,-1.36870718218750e+001,-4.58025766877925e+000

2.90406129701488e+005,-1.36871442843030e+001,-4.64414393896158e+000

2.94460048199957e+005,-1.36872187065699e+001,-4.70891992627484e+000

2.98570557291775e+005,-1.36872951395887e+001,-4.77459796801310e+000

3.02738446952187e+005,-1.36873736354836e+001,-4.84119057062491e+000

3.06964518184081e+005,-1.36874542476130e+001,-4.90871041197404e+000

3.11249583171928e+005,-1.36875370305928e+001,-4.97717034362834e+000

3.15594465437872e+005,-1.36876220403200e+001,-5.04658339317854e+000

3.19999999999997e+005,-1.36877093339954e+001,-5.11696276658790e+000

3.24467033532806e+005,-1.36877989701476e+001,-5.18832185057073e+000

3.28996424529938e+005,-1.36878910086564e+001,-5.26067421500240e+000

3.33589043469155e+005,-1.36879855107764e+001,-5.33403361536123e+000

3.38245772979638e+005,-1.36880825391604e+001,-5.40841399520132e+000

3.42967508011610e+005,-1.36881821578836e+001,-5.48382948865808e+000

3.47755156008335e+005,-1.36882844324667e+001,-5.56029442298559e+000

3.52609637080511e+005,-1.36883894298994e+001,-5.63782332112974e+000

3.57531884183106e+005,-1.36884972186645e+001,-5.71643090433177e+000

3.62522843294651e+005,-1.36886078687608e+001,-5.79613209476904e+000

3.67583473599047e+005,-1.36887214517268e+001,-5.87694201822959e+000

3.72714747669902e+005,-1.36888380406635e+001,-5.95887600682181e+000

3.77917651657445e+005,-1.36889577102575e+001,-6.04194960172204e+000

3.83193185478053e+005,-1.36890805368044e+001,-6.12617855595671e+000

3.88542363006410e+005,-1.36892065982304e+001,-6.21157883722427e+000

3.93966212270369e+005,-1.36893359741155e+001,-6.29816663075358e+000

3.99465775648511e+005,-1.36894687457151e+001,-6.38595834220256e+000

4.05042110070485e+005,-1.36896049959821e+001,-6.47497060059586e+000

4.10696287220124e+005,-1.36897448095880e+001,-6.56522026130259e+000

4.16429393741414e+005,-1.36898882729442e+001,-6.65672440905665e+000

4.22242531447321e+005,-1.36900354742225e+001,-6.74950036101817e+000

4.28136817531551e+005,-1.36901865033754e+001,-6.84356566987784e+000

4.34113384783250e+005,-1.36903414521561e+001,-6.93893812700611e+000

4.40173381804713e+005,-1.36905004141373e+001,-7.03563576564649e+000

4.46317973232124e+005,-1.36906634847307e+001,-7.13367686415430e+000

4.52548339959385e+005,-1.36908307612047e+001,-7.23307994928339e+000

4.58865679365059e+005,-1.36910023427023e+001,-7.33386379951988e+000

4.65271205542494e+005,-1.36911783302582e+001,-7.43604744846523e+000

4.71766149533147e+005,-1.36913588268156e+001,-7.53965018826884e+000

4.78351759563174e+005,-1.36915439372417e+001,-7.64469157311293e+000

4.85029301283321e+005,-1.36917337683434e+001,-7.75119142274896e+000

4.91800058012158e+005,-1.36919284288816e+001,-7.85916982608787e+000

4.98665330982714e+005,-1.36921280295853e+001,-7.96864714484628e+000

5.05626439592555e+005,-1.36923326831650e+001,-8.07964401724781e+000

5.12684721657352e+005,-1.36925425043256e+001,-8.19218136178280e+000

5.19841533667984e+005,-1.36927576097779e+001,-8.30628038102702e+000

5.27098251051240e+005,-1.36929781182502e+001,-8.42196256552143e+000

5.34456268434150e+005,-1.36932041504993e+001,-8.53924969771340e+000

5.41916999912011e+005,-1.36934358293201e+001,-8.65816385596243e+000

