Freq.,VOut,OutRef

1.00000000000000e+004,-2.74826489918396e+001,-3.49704093192880e-001

1.01395947979003e+004,-2.74826508059826e+001,-3.54585748059853e-001

1.02811382665607e+004,-2.74826526711271e+001,-3.59535546915330e-001

1.04246576084112e+004,-2.74826545887068e+001,-3.64554440956095e-001

1.05701804056138e+004,-2.74826565601960e+001,-3.69643394653189e-001

1.07177346253629e+004,-2.74826585871099e+001,-3.74803385940989e-001

1.08673486252606e+004,-2.74826606710071e+001,-3.80035406399340e-001

1.10190511587661e+004,-2.74826628134892e+001,-3.85340461450470e-001

1.11728713807222e+004,-2.74826650162033e+001,-3.90719570546835e-001

1.13288388529580e+004,-2.74826672808426e+001,-3.96173767370428e-001

1.14869835499703e+004,-2.74826696091481e+001,-4.01704100027219e-001

1.16473358646846e+004,-2.74826720029094e+001,-4.07311631254271e-001

1.18099266142953e+004,-2.74826744639669e+001,-4.12997438616672e-001

1.19747870461893e+004,-2.74826769942122e+001,-4.18762614721866e-001

1.21419488439505e+004,-2.74826795955905e+001,-4.24608267423188e-001

1.23114441334492e+004,-2.74826822701014e+001,-4.30535520036446e-001

1.24833054890161e+004,-2.74826850198009e+001,-4.36545511552860e-001

1.26575659397028e+004,-2.74826878468026e+001,-4.42639396861355e-001

1.28342589756290e+004,-2.74826907532798e+001,-4.48818346965256e-001

1.30134185544193e+004,-2.74826937414666e+001,-4.55083549212360e-001

1.31950791077289e+004,-2.74826968136600e+001,-4.61436207519504e-001

1.33792755478611e+004,-2.74826999722216e+001,-4.67877542604075e-001

1.35660432744767e+004,-2.74827032195795e+001,-4.74408792219329e-001

1.37554181813974e+004,-2.74827065582299e+001,-4.81031211390918e-001

1.39474366635040e+004,-2.74827099907390e+001,-4.87746072659423e-001

1.41421356237309e+004,-2.74827135197456e+001,-4.94554666322230e-001

1.43395524801583e+004,-2.74827171479623e+001,-5.01458300683203e-001

1.45397251732031e+004,-2.74827208781781e+001,-5.08458302302233e-001

1.47426921729110e+004,-2.74827247132602e+001,-5.15556016251959e-001

1.49484924863494e+004,-2.74827286561567e+001,-5.22752806373158e-001

1.51571656651040e+004,-2.74827327098983e+001,-5.30050055538991e-001

1.53687518128801e+004,-2.74827368776013e+001,-5.37449165917241e-001

1.55832915932100e+004,-2.74827411624689e+001,-5.44951559243832e-001

1.58008262372675e+004,-2.74827455677951e+001,-5.52558677091354e-001

1.60213975517924e+004,-2.74827500969658e+001,-5.60271981147875e-001

1.62450479271247e+004,-2.74827547534627e+001,-5.68092953496750e-001

1.64718203453514e+004,-2.74827595408651e+001,-5.76023096901158e-001

1.67017583885674e+004,-2.74827644628525e+001,-5.84063935093080e-001

1.69349062472505e+004,-2.74827695232085e+001,-5.92217013063127e-001

1.71713087287550e+004,-2.74827747258227e+001,-6.00483897360262e-001

1.74110112659224e+004,-2.74827800746941e+001,-6.08866176389398e-001

1.76540599258131e+004,-2.74827855739340e+001,-6.17365460717538e-001

1.79005014185594e+004,-2.74827912277694e+001,-6.25983383382987e-001

1.81503831063432e+004,-2.74827970405460e+001,-6.34721600207264e-001

1.84037530124975e+004,-2.74828030167317e+001,-6.43581790112664e-001

1.86606598307361e+004,-2.74828091609201e+001,-6.52565655445764e-001

1.89211529345119e+004,-2.74828154778337e+001,-6.61674922302493e-001

1.91852823865052e+004,-2.74828219723277e+001,-6.70911340859203e-001

1.94530989482457e+004,-2.74828286493940e+001,-6.80276685708503e-001

1.97246540898671e+004,-2.74828355141645e+001,-6.89772756199509e-001

1.99999999999999e+004,-2.74828425719158e+001,-6.99401376781602e-001

2.02791895958005e+004,-2.74828498280723e+001,-7.09164397356486e-001

2.05622765331213e+004,-2.74828572882111e+001,-7.19063693630012e-001

2.08493152168224e+004,-2.74828649580661e+001,-7.29101167473597e-001

2.11403608112276e+004,-2.74828728435321e+001,-7.39278747288068e-001

2.14354692507258e+004,-2.74828809506699e+001,-7.49598388372047e-001

2.17346972505211e+004,-2.74828892857104e+001,-7.60062073298992e-001

2.20381023175322e+004,-2.74828978550596e+001,-7.70671812295001e-001

2.23457427614443e+004,-2.74829066653037e+001,-7.81429643624269e-001

2.26576777059159e+004,-2.74829157232139e+001,-7.92337633980067e-001

2.29739670999406e+004,-2.74829250357517e+001,-8.03397878879851e-001

2.32946717293690e+004,-2.74829346100742e+001,-8.14612503067035e-001

2.36198532285905e+004,-2.74829444535397e+001,-8.25983660917819e-001

2.39495740923785e+004,-2.74829545737132e+001,-8.37513536853858e-001

2.42838976879009e+004,-2.74829649783724e+001,-8.49204345759510e-001

2.46228882668982e+004,-2.74829756755135e+001,-8.61058333406941e-001

2.49666109780322e+004,-2.74829866733573e+001,-8.73077776885672e-001

2.53151318794055e+004,-2.74829979803558e+001,-8.85264985037504e-001

2.56685179512580e+004,-2.74830096051986e+001,-8.97622298899128e-001

2.60268371088386e+004,-2.74830215568190e+001,-9.10152092151432e-001

2.63901582154578e+004,-2.74830338444018e+001,-9.22856771569806e-001

2.67585510957221e+004,-2.74830464773898e+001,-9.35738777488161e-001

2.71320865489533e+004,-2.74830594654908e+001,-9.48800584264345e-001

2.75108363627948e+004,-2.74830728186858e+001,-9.62044700753119e-001

2.78948733270080e+004,-2.74830865472361e+001,-9.75473670785610e-001

2.82842712474618e+004,-2.74831006616911e+001,-9.89090073656858e-001

2.86791049603164e+004,-2.74831151728970e+001,-1.00289652461782e+000

2.90794503464061e+004,-2.74831300920043e+001,-1.01689567537544e+000

2.94853843458219e+004,-2.74831454304772e+001,-1.03109021459876e+000

2.98969849726987e+004,-2.74831612001018e+001,-1.04548286843428e+000

3.03143313302078e+004,-2.74831774129953e+001,-1.06007640102495e+000

3.07375036257601e+004,-2.74831940816154e+001,-1.07487361503924e+000

3.11665831864199e+004,-2.74832112187697e+001,-1.08987735220617e+000

3.16016524745350e+004,-2.74832288376258e+001,-1.10509049385719e+000

3.20427951035848e+004,-2.74832469517210e+001,-1.12051596147680e+000

3.24900958542493e+004,-2.74832655749730e+001,-1.13615671726050e+000

3.29436406907028e+004,-2.74832847216906e+001,-1.15201576467903e+000

3.34035167771346e+004,-2.74833044065842e+001,-1.16809614905243e+000

3.38698124945009e+004,-2.74833246447778e+001,-1.18440095812993e+000

3.43426174575100e+004,-2.74833454518199e+001,-1.20093332267974e+000

3.48220225318448e+004,-2.74833668436961e+001,-1.21769641708526e+000

3.53081198516260e+004,-2.74833888368407e+001,-1.23469345995064e+000

3.58010028371187e+004,-2.74834114481498e+001,-1.25192771471337e+000

3.63007662126863e+004,-2.74834346949940e+001,-1.26940249026785e+000

3.68075060249948e+004,-2.74834585952317e+001,-1.28712114159343e+000

3.73213196614721e+004,-2.74834831672230e+001,-1.30508707039455e+000

3.78423058690237e+004,-2.74835084298434e+001,-1.32330372574844e+000

3.83705647730104e+004,-2.74835344024989e+001,-1.34177460476147e+000

3.89061978964912e+004,-2.74835611051403e+001,-1.36050325323359e+000

3.94493081797342e+004,-2.74835885582783e+001,-1.37949326633526e+000

3.99999999999998e+004,-2.74836167830002e+001,-1.39874828928842e+000

4.05583791916010e+004,-2.74836458009849e+001,-1.41827201806114e+000

4.11245530662425e+004,-2.74836756345203e+001,-1.43806820007013e+000

4.16986304336447e+004,-2.74837063065202e+001,-1.45814063489133e+000

4.22807216224550e+004,-2.74837378405416e+001,-1.47849317498339e+000

4.28709385014515e+004,-2.74837702608028e+001,-1.49912972641826e+000

4.34693945010421e+004,-2.74838035922024e+001,-1.52005424962235e+000

4.40762046350642e+004,-2.74838378603376e+001,-1.54127076012908e+000

4.46914855228886e+004,-2.74838730915244e+001,-1.56278332933915e+000

4.53153554118317e+004,-2.74839093128176e+001,-1.58459608529337e+000

4.59479341998812e+004,-2.74839465520314e+001,-1.60671321345523e+000

4.65893434587380e+004,-2.74839848377607e+001,-1.62913895750327e+000

4.72397064571810e+004,-2.74840241994030e+001,-1.65187762013520e+000

4.78991481847569e+004,-2.74840646671812e+001,-1.67493356388177e+000

4.85677953758016e+004,-2.74841062721660e+001,-1.69831121193384e+000

4.92457765337964e+004,-2.74841490463002e+001,-1.72201504897746e+000

4.99332219560642e+004,-2.74841930224233e+001,-1.74604962204166e+000

5.06302637588109e+004,-2.74842382342960e+001,-1.77041954135918e+000

5.13370359025159e+004,-2.74842847166266e+001,-1.79512948123562e+000

5.20536742176771e+004,-2.74843325050971e+001,-1.82018418093296e+000

5.27803164309155e+004,-2.74843816363907e+001,-1.84558844556381e+000

5.35171021914442e+004,-2.74844321482198e+001,-1.87134714699653e+000

5.42641730979066e+004,-2.74844840793548e+001,-1.89746522477499e+000

5.50216727255895e+004,-2.74845374696537e+001,-1.92394768704818e+000

5.57897466540159e+004,-2.74845923600924e+001,-1.95079961151334e+000

5.65685424949235e+004,-2.74846487927963e+001,-1.97802614637203e+000

5.73582099206328e+004,-2.74847068110723e+001,-2.00563251129745e+000

5.81589006928121e+004,-2.74847664594419e+001,-2.03362399841564e+000

5.89707686916437e+004,-2.74848277836749e+001,-2.06200597330046e+000

5.97939699453972e+004,-2.74848908308248e+001,-2.09078387597922e+000

6.06286626604156e+004,-2.74849556492642e+001,-2.11996322195470e+000

6.14750072515201e+004,-2.74850222887223e+001,-2.14954960323746e+000

6.23331663728396e+004,-2.74850908003221e+001,-2.17954868939496e+000

6.32033049490698e+004,-2.74851612366200e+001,-2.20996622861125e+000

6.40855902071694e+004,-2.74852336516453e+001,-2.24080804876342e+000

6.49801917084985e+004,-2.74853081009420e+001,-2.27208005851025e+000

6.58872813814055e+004,-2.74853846416106e+001,-2.30378824839514e+000

6.68070335542691e+004,-2.74854633323516e+001,-2.33593869196534e+000

6.77396249890018e+004,-2.74855442335106e+001,-2.36853754690304e+000

6.86852349150199e+004,-2.74856274071240e+001,-2.40159105617265e+000

6.96440450636895e+004,-2.74857129169658e+001,-2.43510554918435e+000

7.06162397032520e+004,-2.74858008285971e+001,-2.46908744296785e+000

7.16020056742374e+004,-2.74858912094148e+001,-2.50354324336776e+000

7.26015324253724e+004,-2.74859841287038e+001,-2.53847954624909e+000

7.36150120499896e+004,-2.74860796576892e+001,-2.57390303872078e+000

7.46426393229441e+004,-2.74861778695901e+001,-2.60982050037493e+000

7.56846117380472e+004,-2.74862788396762e+001,-2.64623880453972e+000

7.67411295460207e+004,-2.74863826453239e+001,-2.68316491955137e+000

7.78123957929823e+004,-2.74864893660756e+001,-2.72060591003951e+000

7.88986163594682e+004,-2.74865990837001e+001,-2.75856893823080e+000

7.99999999999995e+004,-2.74867118822543e+001,-2.79706126526785e+000

8.11167583832018e+004,-2.74868278481470e+001,-2.83609025254472e+000

8.22491061324848e+004,-2.74869470702046e+001,-2.87566336306046e+000

8.33972608672892e+004,-2.74870696397384e+001,-2.91578816278767e+000

8.45614432449099e+004,-2.74871956506132e+001,-2.95647232205951e+000

8.57418770029029e+004,-2.74873251993193e+001,-2.99772361697360e+000

8.69387890020841e+004,-2.74874583850446e+001,-3.03954993081303e+000

8.81524092701283e+004,-2.74875953097500e+001,-3.08195925548529e+000

8.93829710457770e+004,-2.74877360782467e+001,-3.12495969297856e+000

9.06307108236633e+004,-2.74878807982751e+001,-3.16855945683508e+000

9.18958683997622e+004,-2.74880295805860e+001,-3.21276687364499e+000

9.31786869174758e+004,-2.74881825390247e+001,-3.25759038455531e+000

9.44794129143618e+004,-2.74883397906165e+001,-3.30303854679857e+000

9.57982963695136e+004,-2.74885014556551e+001,-3.34912003523987e+000

9.71355907516031e+004,-2.74886676577932e+001,-3.39584364394236e+000

9.84915530675926e+004,-2.74888385241357e+001,-3.44321828775120e+000

9.98664439121282e+004,-2.74890141853353e+001,-3.49125300389573e+000

1.01260527517622e+005,-2.74891947756909e+001,-3.53995695361272e+000

1.02674071805032e+005,-2.74893804332486e+001,-3.58933942378471e+000

1.04107348435354e+005,-2.74895712999051e+001,-3.63940982860214e+000

1.05560632861831e+005,-2.74897675215148e+001,-3.69017771124083e+000

1.07034204382888e+005,-2.74899692479989e+001,-3.74165274556090e+000

1.08528346195813e+005,-2.74901766334577e+001,-3.79384473782523e+000

1.10043345451179e+005,-2.74903898362865e+001,-3.84676362843542e+000

1.11579493308032e+005,-2.74906090192941e+001,-3.90041949369001e+000

1.13137084989847e+005,-2.74908343498243e+001,-3.95482254756073e+000

1.14716419841265e+005,-2.74910659998814e+001,-4.00998314348869e+000

1.16317801385624e+005,-2.74913041462586e+001,-4.06591177620180e+000

1.17941537383287e+005,-2.74915489706700e+001,-4.12261908354991e+000

1.19587939890794e+005,-2.74918006598862e+001,-4.18011584836145e+000

1.21257325320831e+005,-2.74920594058735e+001,-4.23841300032009e+000

1.22950014503040e+005,-2.74923254059364e+001,-4.29752161786091e+000

1.24666332745679e+005,-2.74925988628655e+001,-4.35745293008642e+000

1.26406609898139e+005,-2.74928799850871e+001,-4.41821831870386e+000

1.28171180414339e+005,-2.74931689868184e+001,-4.47982931998143e+000

1.29960383416997e+005,-2.74934660882269e+001,-4.54229762672534e+000

1.31774562762811e+005,-2.74937715155927e+001,-4.60563509027646e+000

1.33614067108538e+005,-2.74940855014770e+001,-4.66985372252782e+000

1.35479249978003e+005,-2.74944082848932e+001,-4.73496569796141e+000

1.37370469830040e+005,-2.74947401114843e+001,-4.80098335570510e+000

1.39288090127379e+005,-2.74950812337035e+001,-4.86791920161021e+000

1.41232479406504e+005,-2.74954319110007e+001,-4.93578591034802e+000

1.43204011348474e+005,-2.74957924100137e+001,-5.00459632752642e+000

1.45203064850745e+005,-2.74961630047639e+001,-5.07436347182670e+000

1.47230024099979e+005,-2.74965439768577e+001,-5.14510053715891e+000

1.49285278645888e+005,-2.74969356156931e+001,-5.21682089483778e+000

1.51369223476094e+005,-2.74973382186718e+001,-5.28953809577670e+000

1.53482259092041e+005,-2.74977520914167e+001,-5.36326587270174e+000

1.55624791585964e+005,-2.74981775479951e+001,-5.43801814238404e+000

1.57797232718936e+005,-2.74986149111481e+001,-5.51380900789142e+000

1.59999999999999e+005,-2.74990645125255e+001,-5.59065276085708e+000

1.62233516766403e+005,-2.74995266929270e+001,-5.66856388376818e+000

1.64498212264969e+005,-2.75000018025498e+001,-5.74755705227146e+000

1.66794521734578e+005,-2.75004902012427e+001,-5.82764713749587e+000

1.69122886489819e+005,-2.75009922587662e+001,-5.90884920839344e+000

1.71483754005805e+005,-2.75015083550601e+001,-5.99117853409713e+000

1.73877578004168e+005,-2.75020388805175e+001,-6.07465058629363e+000

1.76304818540256e+005,-2.75025842362658e+001,-6.15928104161410e+000

1.78765942091554e+005,-2.75031448344551e+001,-6.24508578403941e+000

1.81261421647326e+005,-2.75037210985543e+001,-6.33208090732094e+000

1.83791736799524e+005,-2.75043134636536e+001,-6.42028271741607e+000

1.86357373834951e+005,-2.75049223767761e+001,-6.50970773493746e+000

1.88958825828723e+005,-2.75055482971966e+001,-6.60037269761607e+000

1.91596592739027e+005,-2.75061916967678e+001,-6.69229456277750e+000

1.94271181503206e+005,-2.75068530602564e+001,-6.78549050982988e+000

1.96983106135185e+005,-2.75075328856857e+001,-6.87997794276380e+000

1.99732887824256e+005,-2.75082316846884e+001,-6.97577449266269e+000

2.02521055035243e+005,-2.75089499828669e+001,-7.07289802022443e+000

2.05348143610063e+005,-2.75096883201638e+001,-7.17136661829044e+000

2.08214696870707e+005,-2.75104472512401e+001,-7.27119861438477e+000

2.11121265723661e+005,-2.75112273458641e+001,-7.37241257325993e+000

2.14068408765776e+005,-2.75120291893093e+001,-7.47502729944932e+000

2.17056692391625e+005,-2.75128533827614e+001,-7.57906183982569e+000

2.20086690902357e+005,-2.75137005437364e+001,-7.68453548616318e+000

2.23158986616063e+005,-2.75145713065078e+001,-7.79146777770450e+000

2.26274169979693e+005,-2.75154663225452e+001,-7.89987850372761e+000

2.29432839682530e+005,-2.75163862609618e+001,-8.00978770611659e+000

2.32635602771247e+005,-2.75173318089745e+001,-8.12121568192975e+000

2.35883074766574e+005,-2.75183036723736e+001,-8.23418298596738e+000

2.39175879781588e+005,-2.75193025760038e+001,-8.34871043333657e+000

2.42514650641661e+005,-2.75203292642574e+001,-8.46481910201072e+000

2.45900029006080e+005,-2.75213845015783e+001,-8.58253033538387e+000

2.49332665491357e+005,-2.75224690729772e+001,-8.70186574481761e+000

2.52813219796278e+005,-2.75235837845604e+001,-8.82284721217762e+000

2.56342360828676e+005,-2.75247294640690e+001,-8.94549689236040e+000

2.59920766833993e+005,-2.75259069614318e+001,-9.06983721580714e+000

2.63549125525621e+005,-2.75271171493297e+001,-9.19589089100166e+000

2.67228134217075e+005,-2.75283609237738e+001,-9.32368090695333e+000

2.70958499956006e+005,-2.75296392046958e+001,-9.45323053566062e+000

2.74740939660078e+005,-2.75309529365518e+001,-9.58456333455304e+000

2.78576180254757e+005,-2.75323030889397e+001,-9.71770314891180e+000

2.82464958813007e+005,-2.75336906572293e+001,-9.85267411426338e+000

2.86408022696948e+005,-2.75351166632076e+001,-9.98950065874654e+000

2.90406129701488e+005,-2.75365821557363e+001,-1.01282075054485e+001

2.94460048199957e+005,-2.75380882114250e+001,-1.02688196747089e+001

2.98570557291775e+005,-2.75396359353177e+001,-1.04113624863878e+001

3.02738446952187e+005,-2.75412264615936e+001,-1.05558615620957e+001

3.06964518184081e+005,-2.75428609542840e+001,-1.07023428273829e+001

3.11249583171928e+005,-2.75445406080020e+001,-1.08508325138836e+001

3.15594465437872e+005,-2.75462666486886e+001,-1.10013571614153e+001

3.19999999999997e+005,-2.75480403343733e+001,-1.11539436200252e+001

3.24467033532806e+005,-2.75498629559502e+001,-1.13086190519848e+001

3.28996424529938e+005,-2.75517358379690e+001,-1.14654109337276e+001

3.33589043469155e+005,-2.75536603394424e+001,-1.16243470577256e+001

3.38245772979638e+005,-2.75556378546679e+001,-1.17854555343030e+001

3.42967508011610e+005,-2.75576698140662e+001,-1.19487647933808e+001

3.47755156008335e+005,-2.75597576850356e+001,-1.21143035861515e+001

3.52609637080511e+005,-2.75619029728211e+001,-1.22821009866769e+001

3.57531884183106e+005,-2.75641072214006e+001,-1.24521863934086e+001

3.62522843294651e+005,-2.75663720143867e+001,-1.26245895306216e+001

3.67583473599047e+005,-2.75686989759444e+001,-1.27993404497637e+001

3.72714747669902e+005,-2.75710897717249e+001,-1.29764695307104e+001

3.77917651657445e+005,-2.75735461098159e+001,-1.31560074829233e+001

3.83193185478053e+005,-2.75760697417073e+001,-1.33379853465074e+001

3.88542363006410e+005,-2.75786624632733e+001,-1.35224344931632e+001

3.93966212270369e+005,-2.75813261157705e+001,-1.37093866270259e+001

3.99465775648511e+005,-2.75840625868518e+001,-1.38988737853898e+001

4.05042110070485e+005,-2.75868738115961e+001,-1.40909283393126e+001

4.10696287220124e+005,-2.75897617735537e+001,-1.42855829940912e+001

4.16429393741414e+005,-2.75927285058075e+001,-1.44828707896077e+001

4.22242531447321e+005,-2.75957760920490e+001,-1.46828251005379e+001

4.28136817531551e+005,-2.75989066676705e+001,-1.48854796364171e+001

4.34113384783250e+005,-2.76021224208711e+001,-1.50908684415585e+001

4.40173381804713e+005,-2.76054255937787e+001,-1.52990258948161e+001

4.46317973232124e+005,-2.76088184835851e+001,-1.55099867091897e+001

4.52548339959385e+005,-2.76123034436969e+001,-1.57237859312628e+001

4.58865679365059e+005,-2.76158828848984e+001,-1.59404589404692e+001

4.65271205542494e+005,-2.76195592765298e+001,-1.61600414481818e+001

4.71766149533147e+005,-2.76233351476768e+001,-1.63825694966171e+001

4.78351759563174e+005,-2.76272130883742e+001,-1.66080794575487e+001

4.85029301283321e+005,-2.76311957508208e+001,-1.68366080308245e+001

4.91800058012158e+005,-2.76352858506060e+001,-1.70681922426802e+001

4.98665330982714e+005,-2.76394861679477e+001,-1.73028694438428e+001

5.05626439592555e+005,-2.76437995489405e+001,-1.75406773074176e+001

5.12684721657352e+005,-2.76482289068140e+001,-1.77816538265514e+001

5.19841533667984e+005,-2.76527772231997e+001,-1.80258373118665e+001

5.27098251051240e+005,-2.76574475494064e+001,-1.82732663886570e+001

5.34456268434150e+005,-2.76622430077040e+001,-1.85239799938418e+001

5.41916999912011e+005,-2.76671667926128e+001,-1.87780173726670e+001

