Freq.,VOut,OutRef

1.00000000000000e+004,-1.66934455108239e+001,-1.77060983695534e-001

1.01395947979003e+004,-1.66934458166310e+001,-1.79532657065256e-001

1.02811382665607e+004,-1.66934461310352e+001,-1.82038833461326e-001

1.04246576084112e+004,-1.66934464542782e+001,-1.84579994516659e-001

1.05701804056138e+004,-1.66934467866086e+001,-1.87156628588158e-001

1.07177346253629e+004,-1.66934471282817e+001,-1.89769230849636e-001

1.08673486252606e+004,-1.66934474795602e+001,-1.92418303385402e-001

1.10190511587661e+004,-1.66934478407141e+001,-1.95104355290837e-001

1.11728713807222e+004,-1.66934482120211e+001,-1.97827902763720e-001

1.13288388529580e+004,-1.66934485937666e+001,-2.00589469210249e-001

1.14869835499703e+004,-1.66934489862440e+001,-2.03389585340640e-001

1.16473358646846e+004,-1.66934493897550e+001,-2.06228789274499e-001

1.18099266142953e+004,-1.66934498046097e+001,-2.09107626642129e-001

1.19747870461893e+004,-1.66934502311272e+001,-2.12026650688175e-001

1.21419488439505e+004,-1.66934506696352e+001,-2.14986422382360e-001

1.23114441334492e+004,-1.66934511204708e+001,-2.17987510522970e-001

1.24833054890161e+004,-1.66934515839805e+001,-2.21030491847631e-001

1.26575659397028e+004,-1.66934520605207e+001,-2.24115951144878e-001

1.28342589756290e+004,-1.66934525504576e+001,-2.27244481365241e-001

1.30134185544193e+004,-1.66934530541679e+001,-2.30416683735744e-001

1.31950791077289e+004,-1.66934535720386e+001,-2.33633167876211e-001

1.33792755478611e+004,-1.66934541044679e+001,-2.36894551913837e-001

1.35660432744767e+004,-1.66934546518650e+001,-2.40201462605404e-001

1.37554181813974e+004,-1.66934552146507e+001,-2.43554535454465e-001

1.39474366635040e+004,-1.66934557932576e+001,-2.46954414835602e-001

1.41421356237309e+004,-1.66934563881303e+001,-2.50401754117991e-001

1.43395524801583e+004,-1.66934569997263e+001,-2.53897215788624e-001

1.45397251732031e+004,-1.66934576285155e+001,-2.57441471582702e-001

1.47426921729110e+004,-1.66934582749813e+001,-2.61035202610992e-001

1.49484924863494e+004,-1.66934589396205e+001,-2.64679099491512e-001

1.51571656651040e+004,-1.66934596229440e+001,-2.68373862480101e-001

1.53687518128801e+004,-1.66934603254771e+001,-2.72120201607606e-001

1.55832915932100e+004,-1.66934610477597e+001,-2.75918836815008e-001

1.58008262372675e+004,-1.66934617903469e+001,-2.79770498092344e-001

1.60213975517924e+004,-1.66934625538096e+001,-2.83675925615943e-001

1.62450479271247e+004,-1.66934633387345e+001,-2.87635869896150e-001

1.64718203453514e+004,-1.66934641457249e+001,-2.91651091916878e-001

1.67017583885674e+004,-1.66934649754010e+001,-2.95722363282658e-001

1.69349062472505e+004,-1.66934658284006e+001,-2.99850466368008e-001

1.71713087287550e+004,-1.66934667053793e+001,-3.04036194466716e-001

1.74110112659224e+004,-1.66934676070110e+001,-3.08280351945426e-001

1.76540599258131e+004,-1.66934685339887e+001,-3.12583754396568e-001

1.79005014185594e+004,-1.66934694870249e+001,-3.16947228795891e-001

1.81503831063432e+004,-1.66934704668521e+001,-3.21371613659981e-001

1.84037530124975e+004,-1.66934714742231e+001,-3.25857759210560e-001

1.86606598307361e+004,-1.66934725099125e+001,-3.30406527532904e-001

1.89211529345119e+004,-1.66934735747160e+001,-3.35018792745664e-001

1.91852823865052e+004,-1.66934746694522e+001,-3.39695441166008e-001

1.94530989482457e+004,-1.66934757949621e+001,-3.44437371483246e-001

1.97246540898671e+004,-1.66934769521108e+001,-3.49245494926101e-001

1.99999999999999e+004,-1.66934781417878e+001,-3.54120735440751e-001

2.02791895958005e+004,-1.66934793649070e+001,-3.59064029870800e-001

2.05622765331213e+004,-1.66934806224086e+001,-3.64076328131505e-001

2.08493152168224e+004,-1.66934819152591e+001,-3.69158593395397e-001

2.11403608112276e+004,-1.66934832444516e+001,-3.74311802279488e-001

2.14354692507258e+004,-1.66934846110080e+001,-3.79536945026239e-001

2.17346972505211e+004,-1.66934860159784e+001,-3.84835025699587e-001

2.20381023175322e+004,-1.66934874604423e+001,-3.90207062375933e-001

2.23457427614443e+004,-1.66934889455097e+001,-3.95654087339037e-001

2.26576777059159e+004,-1.66934904723218e+001,-4.01177147277612e-001

2.29739670999406e+004,-1.66934920420519e+001,-4.06777303487233e-001

2.32946717293690e+004,-1.66934936559062e+001,-4.12455632074233e-001

2.36198532285905e+004,-1.66934953151249e+001,-4.18213224161664e-001

2.39495740923785e+004,-1.66934970209827e+001,-4.24051186099083e-001

2.42838976879009e+004,-1.66934987747906e+001,-4.29970639674758e-001

2.46228882668982e+004,-1.66935005778962e+001,-4.35972722329542e-001

2.49666109780322e+004,-1.66935024316848e+001,-4.42058587377857e-001

2.53151318794055e+004,-1.66935043375808e+001,-4.48229404228360e-001

2.56685179512580e+004,-1.66935062970488e+001,-4.54486358605126e-001

2.60268371088386e+004,-1.66935083115940e+001,-4.60830652780261e-001

2.63901582154578e+004,-1.66935103827646e+001,-4.67263505799926e-001

2.67585510957221e+004,-1.66935125121514e+001,-4.73786153722394e-001

2.71320865489533e+004,-1.66935147013909e+001,-4.80399849850535e-001

2.75108363627948e+004,-1.66935169521648e+001,-4.87105864976859e-001

2.78948733270080e+004,-1.66935192662024e+001,-4.93905487624628e-001

2.82842712474618e+004,-1.66935216452813e+001,-5.00800024295239e-001

2.86791049603164e+004,-1.66935240912294e+001,-5.07790799720103e-001

2.90794503464061e+004,-1.66935266059257e+001,-5.14879157112477e-001

2.94853843458219e+004,-1.66935291913019e+001,-5.22066458428502e-001

2.98969849726987e+004,-1.66935318493443e+001,-5.29354084624112e-001

3.03143313302078e+004,-1.66935345820946e+001,-5.36743435923488e-001

3.07375036257601e+004,-1.66935373916519e+001,-5.44235932087011e-001

3.11665831864199e+004,-1.66935402801745e+001,-5.51833012680509e-001

3.16016524745350e+004,-1.66935432498812e+001,-5.59536137354370e-001

3.20427951035848e+004,-1.66935463030530e+001,-5.67346786123967e-001

3.24900958542493e+004,-1.66935494420349e+001,-5.75266459649695e-001

3.29436406907028e+004,-1.66935526692379e+001,-5.83296679528836e-001

3.34035167771346e+004,-1.66935559871408e+001,-5.91438988583269e-001

3.38698124945009e+004,-1.66935593982917e+001,-5.99694951159211e-001

3.43426174575100e+004,-1.66935629053105e+001,-6.08066153422885e-001

3.48220225318448e+004,-1.66935665108905e+001,-6.16554203668392e-001

3.53081198516260e+004,-1.66935702178007e+001,-6.25160732623212e-001

3.58010028371187e+004,-1.66935740288878e+001,-6.33887393761968e-001

3.63007662126863e+004,-1.66935779470783e+001,-6.42735863622883e-001

3.68075060249948e+004,-1.66935819753813e+001,-6.51707842127690e-001

3.73213196614721e+004,-1.66935861168896e+001,-6.60805052911220e-001

3.78423058690237e+004,-1.66935903747835e+001,-6.70029243645558e-001

3.83705647730104e+004,-1.66935947523322e+001,-6.79382186380594e-001

3.89061978964912e+004,-1.66935992528968e+001,-6.88865677879339e-001

3.94493081797342e+004,-1.66936038799327e+001,-6.98481539964425e-001

3.99999999999998e+004,-1.66936086369922e+001,-7.08231619865126e-001

4.05583791916010e+004,-1.66936135277274e+001,-7.18117790572867e-001

4.11245530662425e+004,-1.66936185558929e+001,-7.28141951197300e-001

4.16986304336447e+004,-1.66936237253483e+001,-7.38306027333583e-001

4.22807216224550e+004,-1.66936290400621e+001,-7.48611971425652e-001

4.28709385014515e+004,-1.66936345041135e+001,-7.59061763145665e-001

4.34693945010421e+004,-1.66936401216966e+001,-7.69657409767797e-001

4.40762046350642e+004,-1.66936458971230e+001,-7.80400946556136e-001

4.46914855228886e+004,-1.66936518348252e+001,-7.91294437150442e-001

4.53153554118317e+004,-1.66936579393601e+001,-8.02339973963794e-001

4.59479341998812e+004,-1.66936642154123e+001,-8.13539678582368e-001

4.65893434587380e+004,-1.66936706677979e+001,-8.24895702169041e-001

4.72397064571810e+004,-1.66936773014680e+001,-8.36410225876009e-001

4.78991481847569e+004,-1.66936841215126e+001,-8.48085461263381e-001

4.85677953758016e+004,-1.66936911331644e+001,-8.59923650718483e-001

4.92457765337964e+004,-1.66936983418027e+001,-8.71927067886837e-001

4.99332219560642e+004,-1.66937057529577e+001,-8.84098018106835e-001

5.06302637588109e+004,-1.66937133723148e+001,-8.96438838847233e-001

5.13370359025159e+004,-1.66937212057183e+001,-9.08951900158079e-001

5.20536742176771e+004,-1.66937292591768e+001,-9.21639605118808e-001

5.27803164309155e+004,-1.66937375388670e+001,-9.34504390300282e-001

5.35171021914442e+004,-1.66937460511389e+001,-9.47548726228797e-001

5.42641730979066e+004,-1.66937548025203e+001,-9.60775117857650e-001

5.50216727255895e+004,-1.66937637997218e+001,-9.74186105045291e-001

5.57897466540159e+004,-1.66937730496423e+001,-9.87784263040118e-001

5.65685424949235e+004,-1.66937825593736e+001,-1.00157220297087e+000

5.73582099206328e+004,-1.66937923362065e+001,-1.01555257234577e+000

5.81589006928121e+004,-1.66938023876357e+001,-1.02972805555717e+000

5.89707686916437e+004,-1.66938127213660e+001,-1.04410137439243e+000

5.97939699453972e+004,-1.66938233453179e+001,-1.05867528855390e+000

6.06286626604156e+004,-1.66938342676335e+001,-1.07345259618327e+000

6.14750072515201e+004,-1.66938454966829e+001,-1.08843613439691e+000

6.23331663728396e+004,-1.66938570410707e+001,-1.10362877982339e+000

6.32033049490698e+004,-1.66938689096422e+001,-1.11903344915374e+000

6.40855902071694e+004,-1.66938811114900e+001,-1.13465309969519e+000

6.49801917084985e+004,-1.66938936559615e+001,-1.15049072993491e+000

6.58872813814055e+004,-1.66939065526655e+001,-1.16654938010971e+000

6.68070335542691e+004,-1.66939198114793e+001,-1.18283213278473e+000

6.77396249890018e+004,-1.66939334425569e+001,-1.19934211343986e+000

6.86852349150199e+004,-1.66939474563360e+001,-1.21608249106323e+000

6.96440450636895e+004,-1.66939618635463e+001,-1.23305647875443e+000

7.06162397032520e+004,-1.66939766752173e+001,-1.25026733433348e+000

7.16020056742374e+004,-1.66939919026869e+001,-1.26771836096137e+000

7.26015324253724e+004,-1.66940075576099e+001,-1.28541290776582e+000

7.36150120499896e+004,-1.66940236519668e+001,-1.30335437047749e+000

7.46426393229441e+004,-1.66940401980727e+001,-1.32154619207445e+000

7.56846117380472e+004,-1.66940572085869e+001,-1.33999186343419e+000

7.67411295460207e+004,-1.66940746965220e+001,-1.35869492399737e+000

7.78123957929823e+004,-1.66940926752542e+001,-1.37765896243616e+000

7.88986163594682e+004,-1.66941111585331e+001,-1.39688761733622e+000

7.99999999999995e+004,-1.66941301604921e+001,-1.41638457788481e+000

8.11167583832018e+004,-1.66941496956589e+001,-1.43615358456937e+000

8.22491061324848e+004,-1.66941697789667e+001,-1.45619842988550e+000

8.33972608672892e+004,-1.66941904257652e+001,-1.47652295905309e+000

8.45614432449099e+004,-1.66942116518322e+001,-1.49713107074485e+000

8.57418770029029e+004,-1.66942334733854e+001,-1.51802671782278e+000

8.69387890020841e+004,-1.66942559070949e+001,-1.53921390808345e+000

8.81524092701283e+004,-1.66942789700950e+001,-1.56069670501601e+000

8.93829710457770e+004,-1.66943026799977e+001,-1.58247922856923e+000

9.06307108236633e+004,-1.66943270549055e+001,-1.60456565592653e+000

9.18958683997622e+004,-1.66943521134250e+001,-1.62696022229591e+000

9.31786869174758e+004,-1.66943778746811e+001,-1.64966722170596e+000

9.44794129143618e+004,-1.66944043583308e+001,-1.67269100781584e+000

9.57982963695136e+004,-1.66944315845781e+001,-1.69603599473333e+000

9.71355907516031e+004,-1.66944595741894e+001,-1.71970665784634e+000

9.84915530675926e+004,-1.66944883485081e+001,-1.74370753466335e+000

9.98664439121282e+004,-1.66945179294715e+001,-1.76804322566591e+000

1.01260527517622e+005,-1.66945483396263e+001,-1.79271839517332e+000

1.02674071805032e+005,-1.66945796021459e+001,-1.81773777221589e+000

1.04107348435354e+005,-1.66946117408472e+001,-1.84310615142425e+000

1.05560632861831e+005,-1.66946447802085e+001,-1.86882839392514e+000

1.07034204382888e+005,-1.66946787453874e+001,-1.89490942825365e+000

1.08528346195813e+005,-1.66947136622399e+001,-1.92135425127437e+000

1.10043345451179e+005,-1.66947495573388e+001,-1.94816792911587e+000

1.11579493308032e+005,-1.66947864579939e+001,-1.97535559811779e+000

1.13137084989847e+005,-1.66948243922719e+001,-2.00292246578943e+000

1.14716419841265e+005,-1.66948633890170e+001,-2.03087381178093e+000

1.16317801385624e+005,-1.66949034778723e+001,-2.05921498886779e+000

1.17941537383287e+005,-1.66949446893015e+001,-2.08795142394828e+000

1.19587939890794e+005,-1.66949870546110e+001,-2.11708861905232e+000

1.21257325320831e+005,-1.66950306059735e+001,-2.14663215236506e+000

1.22950014503040e+005,-1.66950753764509e+001,-2.17658767926301e+000

1.24666332745679e+005,-1.66951214000186e+001,-2.20696093336403e+000

1.26406609898139e+005,-1.66951687115905e+001,-2.23775772758953e+000

1.28171180414339e+005,-1.66952173470444e+001,-2.26898395524227e+000

1.29960383416997e+005,-1.66952673432478e+001,-2.30064559109614e+000

1.31774562762811e+005,-1.66953187380853e+001,-2.33274869250177e+000

1.33614067108538e+005,-1.66953715704853e+001,-2.36529940050389e+000

1.35479249978003e+005,-1.66954258804488e+001,-2.39830394097503e+000

1.37370469830040e+005,-1.66954817090782e+001,-2.43176862576314e+000

1.39288090127379e+005,-1.66955390986067e+001,-2.46569985385248e+000

1.41232479406504e+005,-1.66955980924291e+001,-2.50010411254057e+000

1.43204011348474e+005,-1.66956587351326e+001,-2.53498797863054e+000

1.45203064850745e+005,-1.66957210725293e+001,-2.57035811963578e+000

1.47230024099979e+005,-1.66957851516885e+001,-2.60622129500287e+000

1.49285278645888e+005,-1.66958510209710e+001,-2.64258435734746e+000

1.51369223476094e+005,-1.66959187300627e+001,-2.67945425370709e+000

1.53482259092041e+005,-1.66959883300110e+001,-2.71683802680860e+000

1.55624791585964e+005,-1.66960598732604e+001,-2.75474281635170e+000

1.57797232718936e+005,-1.66961334136900e+001,-2.79317586030786e+000

1.59999999999999e+005,-1.66962090066513e+001,-2.83214449623683e+000

1.62233516766403e+005,-1.66962867090079e+001,-2.87165616261724e+000

1.64498212264969e+005,-1.66963665791748e+001,-2.91171840019460e+000

1.66794521734578e+005,-1.66964486771599e+001,-2.95233885334507e+000

1.69122886489819e+005,-1.66965330646060e+001,-2.99352527145781e+000

1.71483754005805e+005,-1.66966198048338e+001,-3.03528551033069e+000

1.73877578004168e+005,-1.66967089628861e+001,-3.07762753358598e+000

1.76304818540256e+005,-1.66968006055730e+001,-3.12055941410115e+000

1.78765942091554e+005,-1.66968948015183e+001,-3.16408933545836e+000

1.81261421647326e+005,-1.66969916212070e+001,-3.20822559340905e+000

1.83791736799524e+005,-1.66970911370334e+001,-3.25297659735802e+000

1.86357373834951e+005,-1.66971934233518e+001,-3.29835087186488e+000

1.88958825828723e+005,-1.66972985565264e+001,-3.34435705816147e+000

1.91596592739027e+005,-1.66974066149843e+001,-3.39100391568916e+000

1.94271181503206e+005,-1.66975176792686e+001,-3.43830032365324e+000

1.96983106135185e+005,-1.66976318320927e+001,-3.48625528259466e+000

1.99732887824256e+005,-1.66977491583968e+001,-3.53487791598226e+000

2.02521055035243e+005,-1.66978697454051e+001,-3.58417747181998e+000

2.05348143610063e+005,-1.66979936826837e+001,-3.63416332427681e+000

2.08214696870707e+005,-1.66981210622015e+001,-3.68484497533137e+000

2.11121265723661e+005,-1.66982519783906e+001,-3.73623205643722e+000

2.14068408765776e+005,-1.66983865282097e+001,-3.78833433020769e+000

2.17056692391625e+005,-1.66985248112077e+001,-3.84116169211785e+000

2.20086690902357e+005,-1.66986669295896e+001,-3.89472417222715e+000

2.23158986616063e+005,-1.66988129882833e+001,-3.94903193692064e+000

2.26274169979693e+005,-1.66989630950082e+001,-4.00409529066968e+000

2.29432839682530e+005,-1.66991173603451e+001,-4.05992467781199e+000

2.32635602771247e+005,-1.66992758978082e+001,-4.11653068435178e+000

2.35883074766574e+005,-1.66994388239177e+001,-4.17392403977919e+000

2.39175879781588e+005,-1.66996062582744e+001,-4.23211561890979e+000

2.42514650641661e+005,-1.66997783236368e+001,-4.29111644374404e+000

2.45900029006080e+005,-1.66999551459981e+001,-4.35093768534638e+000

2.49332665491357e+005,-1.67001368546662e+001,-4.41159066574539e+000

2.52813219796278e+005,-1.67003235823449e+001,-4.47308685985356e+000

2.56342360828676e+005,-1.67005154652167e+001,-4.53543789740782e+000

2.59920766833993e+005,-1.67007126430274e+001,-4.59865556493072e+000

2.63549125525621e+005,-1.67009152591726e+001,-4.66275180771136e+000

2.67228134217075e+005,-1.67011234607856e+001,-4.72773873180839e+000

2.70958499956006e+005,-1.67013373988270e+001,-4.79362860607370e+000

2.74740939660078e+005,-1.67015572281768e+001,-4.86043386419596e+000

2.78576180254757e+005,-1.67017831077276e+001,-4.92816710676604e+000

2.82464958813007e+005,-1.67020152004793e+001,-4.99684110336505e+000

2.86408022696948e+005,-1.67022536736370e+001,-5.06646879467037e+000

2.90406129701488e+005,-1.67024986987090e+001,-5.13706329458732e+000

2.94460048199957e+005,-1.67027504516080e+001,-5.20863789239923e+000

2.98570557291775e+005,-1.67030091127537e+001,-5.28120605494045e+000

3.02738446952187e+005,-1.67032748671768e+001,-5.35478142879180e+000

3.06964518184081e+005,-1.67035479046259e+001,-5.42937784249726e+000

3.11249583171928e+005,-1.67038284196751e+001,-5.50500930880337e+000

3.15594465437872e+005,-1.67041166118347e+001,-5.58169002692060e+000

3.19999999999997e+005,-1.67044126856627e+001,-5.65943438480736e+000

3.24467033532806e+005,-1.67047168508794e+001,-5.73825696147711e+000

3.28996424529938e+005,-1.67050293224826e+001,-5.81817252932770e+000

3.33589043469155e+005,-1.67053503208658e+001,-5.89919605649426e+000

3.38245772979638e+005,-1.67056800719379e+001,-5.98134270922542e+000

3.42967508011610e+005,-1.67060188072447e+001,-6.06462785428215e+000

3.47755156008335e+005,-1.67063667640928e+001,-6.14906706136161e+000

3.52609637080511e+005,-1.67067241856750e+001,-6.23467610554410e+000

3.57531884183106e+005,-1.67070913211977e+001,-6.32147096976409e+000

3.62522843294651e+005,-1.67074684260106e+001,-6.40946784730619e+000

3.67583473599047e+005,-1.67078557617378e+001,-6.49868314432593e+000

3.72714747669902e+005,-1.67082535964114e+001,-6.58913348239492e+000

3.77917651657445e+005,-1.67086622046065e+001,-6.68083570107225e+000

3.83193185478053e+005,-1.67090818675787e+001,-6.77380686050075e+000

3.88542363006410e+005,-1.67095128734028e+001,-6.86806424403031e+000

3.93966212270369e+005,-1.67099555171142e+001,-6.96362536086667e+000

3.99465775648511e+005,-1.67104101008519e+001,-7.06050794874798e+000

4.05042110070485e+005,-1.67108769340031e+001,-7.15872997664791e+000

4.10696287220124e+005,-1.67113563333503e+001,-7.25830964750734e+000

4.16429393741414e+005,-1.67118486232199e+001,-7.35926540099395e+000

4.22242531447321e+005,-1.67123541356328e+001,-7.46161591629064e+000

4.28136817531551e+005,-1.67128732104573e+001,-7.56538011491332e+000

4.34113384783250e+005,-1.67134061955631e+001,-7.67057716355924e+000

4.40173381804713e+005,-1.67139534469784e+001,-7.77722647698505e+000

4.46317973232124e+005,-1.67145153290475e+001,-7.88534772091669e+000

4.52548339959385e+005,-1.67150922145918e+001,-7.99496081499160e+000

4.58865679365059e+005,-1.67156844850714e+001,-8.10608593573341e+000

4.65271205542494e+005,-1.67162925307500e+001,-8.21874351955909e+000

4.71766149533147e+005,-1.67169167508606e+001,-8.33295426582288e+000

4.78351759563174e+005,-1.67175575537739e+001,-8.44873913989278e+000

4.85029301283321e+005,-1.67182153571687e+001,-8.56611937626504e+000

4.91800058012158e+005,-1.67188905882042e+001,-8.68511648171512e+000

4.98665330982714e+005,-1.67195836836945e+001,-8.80575223848598e+000

5.05626439592555e+005,-1.67202950902849e+001,-8.92804870751722e+000

5.12684721657352e+005,-1.67210252646312e+001,-9.05202823171228e+000

5.19841533667984e+005,-1.67217746735811e+001,-9.17771343924866e+000

5.27098251051240e+005,-1.67225437943569e+001,-9.30512724692947e+000

5.34456268434150e+005,-1.67233331147423e+001,-9.43429286357929e+000

5.41916999912011e+005,-1.67241431332707e+001,-9.56523379348453e+000

