Freq.,VOut,OutRef

1.00000000000000e+004,-2.68322191009650e+001,-3.95889183304786e-001

1.01395947979003e+004,-2.68322213891494e+001,-4.01415545505776e-001

1.02811382665607e+004,-2.68322237416619e+001,-4.07019050943850e-001

1.04246576084112e+004,-2.68322261603111e+001,-4.12700776416787e-001

1.05701804056138e+004,-2.68322286469561e+001,-4.18461813752207e-001

1.07177346253629e+004,-2.68322312035084e+001,-4.24303270013814e-001

1.08673486252606e+004,-2.68322338319335e+001,-4.30226267716758e-001

1.10190511587661e+004,-2.68322365342516e+001,-4.36231945041829e-001

1.11728713807222e+004,-2.68322393125402e+001,-4.42321456053090e-001

1.13288388529580e+004,-2.68322421689351e+001,-4.48495970922187e-001

1.14869835499703e+004,-2.68322451056317e+001,-4.54756676150559e-001

1.16473358646846e+004,-2.68322481248878e+001,-4.61104774797939e-001

1.18099266142953e+004,-2.68322512290242e+001,-4.67541486712853e-001

1.19747870461893e+004,-2.68322544204269e+001,-4.74068048768792e-001

1.21419488439505e+004,-2.68322577015494e+001,-4.80685715098029e-001

1.23114441334492e+004,-2.68322610749139e+001,-4.87395757336282e-001

1.24833054890161e+004,-2.68322645431132e+001,-4.94199464864582e-001

1.26575659397028e+004,-2.68322681088137e+001,-5.01098145055981e-001

1.28342589756290e+004,-2.68322717747560e+001,-5.08093123529415e-001

1.30134185544193e+004,-2.68322755437582e+001,-5.15185744401268e-001

1.31950791077289e+004,-2.68322794187176e+001,-5.22377370544167e-001

1.33792755478611e+004,-2.68322834026127e+001,-5.29669383849159e-001

1.35660432744767e+004,-2.68322874985059e+001,-5.37063185491565e-001

1.37554181813974e+004,-2.68322917095455e+001,-5.44560196197443e-001

1.39474366635040e+004,-2.68322960389688e+001,-5.52161856516976e-001

1.41421356237309e+004,-2.68323004901033e+001,-5.59869627103894e-001

1.43395524801583e+004,-2.68323050663709e+001,-5.67684988990537e-001

1.45397251732031e+004,-2.68323097712889e+001,-5.75609443876809e-001

1.47426921729110e+004,-2.68323146084740e+001,-5.83644514415577e-001

1.49484924863494e+004,-2.68323195816443e+001,-5.91791744504745e-001

1.51571656651040e+004,-2.68323246946226e+001,-6.00052699585230e-001

1.53687518128801e+004,-2.68323299513389e+001,-6.08428966939356e-001

1.55832915932100e+004,-2.68323353558340e+001,-6.16922155996442e-001

1.58008262372675e+004,-2.68323409122619e+001,-6.25533898640950e-001

1.60213975517924e+004,-2.68323466248936e+001,-6.34265849525484e-001

1.62450479271247e+004,-2.68323524981201e+001,-6.43119686389622e-001

1.64718203453514e+004,-2.68323585364559e+001,-6.52097110378050e-001

1.67017583885674e+004,-2.68323647445422e+001,-6.61199846370345e-001

1.69349062472505e+004,-2.68323711271507e+001,-6.70429643310636e-001

1.71713087287550e+004,-2.68323776891875e+001,-6.79788274541991e-001

1.74110112659224e+004,-2.68323844356962e+001,-6.89277538147109e-001

1.76540599258131e+004,-2.68323913718622e+001,-6.98899257294292e-001

1.79005014185594e+004,-2.68323985030170e+001,-7.08655280583144e-001

1.81503831063432e+004,-2.68324058346417e+001,-7.18547482403634e-001

1.84037530124975e+004,-2.68324133723714e+001,-7.28577763291724e-001

1.86606598307361e+004,-2.68324211219996e+001,-7.38748050296333e-001

1.89211529345119e+004,-2.68324290894827e+001,-7.49060297346202e-001

1.91852823865052e+004,-2.68324372809444e+001,-7.59516485625750e-001

1.94530989482457e+004,-2.68324457026808e+001,-7.70118623953923e-001

1.97246540898671e+004,-2.68324543611645e+001,-7.80868749169915e-001

1.99999999999999e+004,-2.68324632630505e+001,-7.91768926522711e-001

2.02791895958005e+004,-2.68324724151804e+001,-8.02821250066499e-001

2.05622765331213e+004,-2.68324818245882e+001,-8.14027843063169e-001

2.08493152168224e+004,-2.68324914985056e+001,-8.25390858386962e-001

2.11403608112276e+004,-2.68325014443678e+001,-8.36912478937575e-001

2.14354692507258e+004,-2.68325116698186e+001,-8.48594918058424e-001

2.17346972505211e+004,-2.68325221827167e+001,-8.60440419960966e-001

2.20381023175322e+004,-2.68325329911417e+001,-8.72451260152258e-001

2.23457427614443e+004,-2.68325441034002e+001,-8.84629745872761e-001

2.26576777059159e+004,-2.68325555280323e+001,-8.96978216536408e-001

2.29739670999406e+004,-2.68325672738180e+001,-9.09499044179816e-001

2.32946717293690e+004,-2.68325793497841e+001,-9.22194633914575e-001

2.36198532285905e+004,-2.68325917652111e+001,-9.35067424387614e-001

2.39495740923785e+004,-2.68326045296401e+001,-9.48119888249100e-001

2.42838976879009e+004,-2.68326176528806e+001,-9.61354532623750e-001

2.46228882668982e+004,-2.68326311450174e+001,-9.74773899592114e-001

2.49666109780322e+004,-2.68326450164189e+001,-9.88380566674445e-001

2.53151318794055e+004,-2.68326592777447e+001,-1.00217714732578e+000

2.56685179512580e+004,-2.68326739399542e+001,-1.01616629143328e+000

2.60268371088386e+004,-2.68326890143144e+001,-1.03035068582462e+000

2.63901582154578e+004,-2.68327045124089e+001,-1.04473305478099e+000

2.67585510957221e+004,-2.68327204461471e+001,-1.05931616055726e+000

2.71320865489533e+004,-2.68327368277727e+001,-1.07410280390935e+000

2.75108363627948e+004,-2.68327536698733e+001,-1.08909582463118e+000

2.78948733270080e+004,-2.68327709853906e+001,-1.10429810209386e+000

2.82842712474618e+004,-2.68327887876295e+001,-1.11971255579860e+000

2.86791049603164e+004,-2.68328070902689e+001,-1.13534214593268e+000

2.90794503464061e+004,-2.68328259073718e+001,-1.15118987393351e+000

2.94853843458219e+004,-2.68328452533965e+001,-1.16725878306422e+000

2.98969849726987e+004,-2.68328651432074e+001,-1.18355195899121e+000

3.03143313302078e+004,-2.68328855920864e+001,-1.20007253037520e+000

3.07375036257601e+004,-2.68329066157447e+001,-1.21682366946656e+000

3.11665831864199e+004,-2.68329282303349e+001,-1.23380859271096e+000

3.16016524745350e+004,-2.68329504524633e+001,-1.25103056136201e+000

3.20427951035848e+004,-2.68329732992028e+001,-1.26849288210379e+000

3.24900958542493e+004,-2.68329967881056e+001,-1.28619890767951e+000

3.29436406907028e+004,-2.68330209372171e+001,-1.30415203753177e+000

3.34035167771346e+004,-2.68330457650895e+001,-1.32235571844902e+000

3.38698124945009e+004,-2.68330712907961e+001,-1.34081344522268e+000

3.43426174575100e+004,-2.68330975339458e+001,-1.35952876131151e+000

3.48220225318448e+004,-2.68331245146983e+001,-1.37850525951675e+000

3.53081198516260e+004,-2.68331522537796e+001,-1.39774658266567e+000

3.58010028371187e+004,-2.68331807724975e+001,-1.41725642430400e+000

3.63007662126863e+004,-2.68332100927583e+001,-1.43703852939878e+000

3.68075060249948e+004,-2.68332402370835e+001,-1.45709669504990e+000

3.73213196614721e+004,-2.68332712286270e+001,-1.47743477121226e+000

3.78423058690237e+004,-2.68333030911930e+001,-1.49805666142640e+000

3.83705647730104e+004,-2.68333358492537e+001,-1.51896632356044e+000

3.89061978964912e+004,-2.68333695279690e+001,-1.54016777056139e+000

3.94493081797342e+004,-2.68334041532047e+001,-1.56166507121689e+000

3.99999999999998e+004,-2.68334397515533e+001,-1.58346235092677e+000

4.05583791916010e+004,-2.68334763503533e+001,-1.60556379248588e+000

4.11245530662425e+004,-2.68335139777113e+001,-1.62797363687676e+000

4.16986304336447e+004,-2.68335526625226e+001,-1.65069618407373e+000

4.22807216224550e+004,-2.68335924344936e+001,-1.67373579385709e+000

4.28709385014515e+004,-2.68336333241649e+001,-1.69709688663872e+000

4.34693945010421e+004,-2.68336753629338e+001,-1.72078394429923e+000

4.40762046350642e+004,-2.68337185830795e+001,-1.74480151103543e+000

4.46914855228886e+004,-2.68337630177868e+001,-1.76915419421993e+000

4.53153554118317e+004,-2.68338087011719e+001,-1.79384666527148e+000

4.59479341998812e+004,-2.68338556683084e+001,-1.81888366053888e+000

4.65893434587380e+004,-2.68339039552543e+001,-1.84426998219446e+000

4.72397064571810e+004,-2.68339535990794e+001,-1.87001049914045e+000

4.78991481847569e+004,-2.68340046378936e+001,-1.89611014792827e+000

4.85677953758016e+004,-2.68340571108761e+001,-1.92257393368880e+000

4.92457765337964e+004,-2.68341110583055e+001,-1.94940693107519e+000

4.99332219560642e+004,-2.68341665215901e+001,-1.97661428522065e+000

5.06302637588109e+004,-2.68342235433003e+001,-2.00420121270407e+000

5.13370359025159e+004,-2.68342821672003e+001,-2.03217300253415e+000

5.20536742176771e+004,-2.68343424382819e+001,-2.06053501714268e+000

5.27803164309155e+004,-2.68344044027992e+001,-2.08929269339161e+000

5.35171021914442e+004,-2.68344681083032e+001,-2.11845154359535e+000

5.42641730979066e+004,-2.68345336036785e+001,-2.14801715655438e+000

5.50216727255895e+004,-2.68346009391808e+001,-2.17799519860333e+000

5.57897466540159e+004,-2.68346701664748e+001,-2.20839141467340e+000

5.65685424949235e+004,-2.68347413386738e+001,-2.23921162936759e+000

5.73582099206328e+004,-2.68348145103802e+001,-2.27046174805153e+000

5.81589006928121e+004,-2.68348897377273e+001,-2.30214775795708e+000

5.89707686916437e+004,-2.68349670784217e+001,-2.33427572930121e+000

5.97939699453972e+004,-2.68350465917878e+001,-2.36685181641922e+000

6.06286626604156e+004,-2.68351283388123e+001,-2.39988225891366e+000

6.14750072515201e+004,-2.68352123821915e+001,-2.43337338281539e+000

6.23331663728396e+004,-2.68352987863783e+001,-2.46733160176421e+000

6.32033049490698e+004,-2.68353876176316e+001,-2.50176341819974e+000

6.40855902071694e+004,-2.68354789440669e+001,-2.53667542457196e+000

6.49801917084985e+004,-2.68355728357077e+001,-2.57207430456466e+000

6.58872813814055e+004,-2.68356693645391e+001,-2.60796683433564e+000

6.68070335542691e+004,-2.68357686045625e+001,-2.64435988377235e+000

6.77396249890018e+004,-2.68358706318515e+001,-2.68126041776473e+000

6.86852349150199e+004,-2.68359755246103e+001,-2.71867549749249e+000

6.96440450636895e+004,-2.68360833632326e+001,-2.75661228173012e+000

7.06162397032520e+004,-2.68361942303631e+001,-2.79507802816794e+000

7.16020056742374e+004,-2.68363082109597e+001,-2.83408009475021e+000

7.26015324253724e+004,-2.68364253923585e+001,-2.87362594102932e+000

7.36150120499896e+004,-2.68365458643398e+001,-2.91372312953798e+000

7.46426393229441e+004,-2.68366697191962e+001,-2.95437932717811e+000

7.56846117380472e+004,-2.68367970518025e+001,-2.99560230662685e+000

7.67411295460207e+004,-2.68369279596878e+001,-3.03739994776022e+000

7.78123957929823e+004,-2.68370625431093e+001,-3.07978023909518e+000

7.88986163594682e+004,-2.68372009051279e+001,-3.12275127924835e+000

7.99999999999995e+004,-2.68373431516868e+001,-3.16632127841298e+000

8.11167583832018e+004,-2.68374893916910e+001,-3.21049855985504e+000

8.22491061324848e+004,-2.68376397370903e+001,-3.25529156142559e+000

8.33972608672892e+004,-2.68377943029633e+001,-3.30070883709386e+000

8.45614432449099e+004,-2.68379532076046e+001,-3.34675905849751e+000

8.57418770029029e+004,-2.68381165726142e+001,-3.39345101651115e+000

8.69387890020841e+004,-2.68382845229892e+001,-3.44079362283499e+000

8.81524092701283e+004,-2.68384571872181e+001,-3.48879591160154e+000

8.93829710457770e+004,-2.68386346973776e+001,-3.53746704100220e+000

9.06307108236633e+004,-2.68388171892319e+001,-3.58681629493174e+000

9.18958683997622e+004,-2.68390048023357e+001,-3.63685308465305e+000

9.31786869174758e+004,-2.68391976801383e+001,-3.68758695048208e+000

9.44794129143618e+004,-2.68393959700921e+001,-3.73902756349046e+000

9.57982963695136e+004,-2.68395998237631e+001,-3.79118472722955e+000

9.71355907516031e+004,-2.68398093969450e+001,-3.84406837947312e+000

9.84915530675926e+004,-2.68400248497762e+001,-3.89768859398055e+000

9.98664439121282e+004,-2.68402463468594e+001,-3.95205558228034e+000

1.01260527517622e+005,-2.68404740573859e+001,-4.00717969547229e+000

1.02674071805032e+005,-2.68407081552614e+001,-4.06307142605143e+000

1.04107348435354e+005,-2.68409488192369e+001,-4.11974140975118e+000

1.05560632861831e+005,-2.68411962330422e+001,-4.17720042740764e+000

1.07034204382888e+005,-2.68414505855230e+001,-4.23545940684278e+000

1.08528346195813e+005,-2.68417120707824e+001,-4.29452942477002e+000

1.10043345451179e+005,-2.68419808883252e+001,-4.35442170871855e+000

1.11579493308032e+005,-2.68422572432072e+001,-4.41514763897900e+000

1.13137084989847e+005,-2.68425413461876e+001,-4.47671875056953e+000

1.14716419841265e+005,-2.68428334138861e+001,-4.53914673522238e+000

1.16317801385624e+005,-2.68431336689440e+001,-4.60244344339041e+000

1.17941537383287e+005,-2.68434423401894e+001,-4.66662088627539e+000

1.19587939890794e+005,-2.68437596628072e+001,-4.73169123787538e+000

1.21257325320831e+005,-2.68440858785136e+001,-4.79766683705373e+000

1.22950014503040e+005,-2.68444212357348e+001,-4.86456018962791e+000

1.24666332745679e+005,-2.68447659897916e+001,-4.93238397047804e+000

1.26406609898139e+005,-2.68451204030871e+001,-5.00115102567794e+000

1.28171180414339e+005,-2.68454847453013e+001,-5.07087437464335e+000

1.29960383416997e+005,-2.68458592935896e+001,-5.14156721230275e+000

1.31774562762811e+005,-2.68462443327871e+001,-5.21324291128664e+000

1.33614067108538e+005,-2.68466401556183e+001,-5.28591502413763e+000

1.35479249978003e+005,-2.68470470629119e+001,-5.35959728553930e+000

1.37370469830040e+005,-2.68474653638220e+001,-5.43430361456516e+000

1.39288090127379e+005,-2.68478953760542e+001,-5.51004811694701e+000

1.41232479406504e+005,-2.68483374260989e+001,-5.58684508736152e+000

1.43204011348474e+005,-2.68487918494694e+001,-5.66470901173665e+000

1.45203064850745e+005,-2.68492589909468e+001,-5.74365456957616e+000

1.47230024099979e+005,-2.68497392048318e+001,-5.82369663630238e+000

1.49285278645888e+005,-2.68502328552020e+001,-5.90485028561730e+000

1.51369223476094e+005,-2.68507403161769e+001,-5.98713079188078e+000

1.53482259092041e+005,-2.68512619721893e+001,-6.07055363250606e+000

1.55624791585964e+005,-2.68517982182634e+001,-6.15513449037318e+000

1.57797232718936e+005,-2.68523494603007e+001,-6.24088925625733e+000

1.59999999999999e+005,-2.68529161153734e+001,-6.32783403127443e+000

1.62233516766403e+005,-2.68534986120241e+001,-6.41598512934157e+000

1.64498212264969e+005,-2.68540973905749e+001,-6.50535907965246e+000

1.66794521734578e+005,-2.68547129034429e+001,-6.59597262916781e+000

1.69122886489819e+005,-2.68553456154648e+001,-6.68784274511921e+000

1.71483754005805e+005,-2.68559960042291e+001,-6.78098661752650e+000

1.73877578004168e+005,-2.68566645604168e+001,-6.87542166172706e+000

1.76304818540256e+005,-2.68573517881512e+001,-6.97116552091757e+000

1.78765942091554e+005,-2.68580582053561e+001,-7.06823606870723e+000

1.81261421647326e+005,-2.68587843441228e+001,-7.16665141168028e+000

1.83791736799524e+005,-2.68595307510864e+001,-7.26642989196885e+000

1.86357373834951e+005,-2.68602979878120e+001,-7.36759008983412e+000

1.88958825828723e+005,-2.68610866311901e+001,-7.47015082625479e+000

1.91596592739027e+005,-2.68618972738411e+001,-7.57413116552327e+000

1.94271181503206e+005,-2.68627305245311e+001,-7.67955041784625e+000

1.96983106135185e+005,-2.68635870085970e+001,-7.78642814195098e+000

1.99732887824256e+005,-2.68644673683821e+001,-7.89478414769410e+000

2.02521055035243e+005,-2.68653722636826e+001,-8.00463849867293e+000

2.05348143610063e+005,-2.68663023722044e+001,-8.11601151483850e+000

2.08214696870707e+005,-2.68672583900317e+001,-8.22892377510679e+000

2.11121265723661e+005,-2.68682410321061e+001,-8.34339611996946e+000

2.14068408765776e+005,-2.68692510327175e+001,-8.45944965410052e+000

2.17056692391625e+005,-2.68702891460066e+001,-8.57710574895882e+000

2.20086690902357e+005,-2.68713561464791e+001,-8.69638604538405e+000

2.23158986616063e+005,-2.68724528295326e+001,-8.81731245618454e+000

2.26274169979693e+005,-2.68735800119952e+001,-8.93990716871574e+000

2.29432839682530e+005,-2.68747385326764e+001,-9.06419264744612e+000

2.32635602771247e+005,-2.68759292529319e+001,-9.19019163651168e+000

2.35883074766574e+005,-2.68771530572400e+001,-9.31792716225228e+000

2.39175879781588e+005,-2.68784108537921e+001,-9.44742253573315e+000

2.42514650641661e+005,-2.68797035750963e+001,-9.57870135524440e+000

2.45900029006080e+005,-2.68810321785942e+001,-9.71178750878030e+000

2.49332665491357e+005,-2.68823976472923e+001,-9.84670517649402e+000

2.52813219796278e+005,-2.68838009904066e+001,-9.98347883312471e+000

2.56342360828676e+005,-2.68852432440220e+001,-1.01221332503966e+001

2.59920766833993e+005,-2.68867254717658e+001,-1.02626934993858e+001

2.63549125525621e+005,-2.68882487654958e+001,-1.04051849528526e+001

2.67228134217075e+005,-2.68898142460032e+001,-1.05496332875365e+001

2.70958499956006e+005,-2.68914230637305e+001,-1.06960644864108e+001

2.74740939660078e+005,-2.68930763995051e+001,-1.08445048408941e+001

2.78576180254757e+005,-2.68947754652866e+001,-1.09949809530154e+001

2.82464958813007e+005,-2.68965215049318e+001,-1.11475197375290e+001

2.86408022696948e+005,-2.68983157949735e+001,-1.13021484239772e+001

2.90406129701488e+005,-2.69001596454159e+001,-1.14588945586953e+001

2.94460048199957e+005,-2.69020544005460e+001,-1.16177860067575e+001

2.98570557291775e+005,-2.69040014397609e+001,-1.17788509538580e+001

3.02738446952187e+005,-2.69060021784110e+001,-1.19421179081249e+001

3.06964518184081e+005,-2.69080580686601e+001,-1.21076157018624e+001

3.11249583171928e+005,-2.69101706003611e+001,-1.22753734932167e+001

3.15594465437872e+005,-2.69123413019490e+001,-1.24454207677620e+001

3.19999999999997e+005,-2.69145717413497e+001,-1.26177873400025e+001

3.24467033532806e+005,-2.69168635269059e+001,-1.27925033547849e+001

3.28996424529938e+005,-2.69192183083192e+001,-1.29695992886178e+001

3.33589043469155e+005,-2.69216377776092e+001,-1.31491059508928e+001

3.38245772979638e+005,-2.69241236700890e+001,-1.33310544850018e+001

3.42967508011610e+005,-2.69266777653572e+001,-1.35154763693475e+001

3.47755156008335e+005,-2.69293018883069e+001,-1.37024034182395e+001

3.52609637080511e+005,-2.69319979101507e+001,-1.38918677826717e+001

3.57531884183106e+005,-2.69347677494625e+001,-1.40839019509771e+001

3.62522843294651e+005,-2.69376133732352e+001,-1.42785387493515e+001

3.67583473599047e+005,-2.69405367979548e+001,-1.44758113422431e+001

3.72714747669902e+005,-2.69435400906909e+001,-1.46757532326009e+001

3.77917651657445e+005,-2.69466253702018e+001,-1.48783982619760e+001

3.83193185478053e+005,-2.69497948080568e+001,-1.50837806104700e+001

3.88542363006410e+005,-2.69530506297722e+001,-1.52919347965252e+001

3.93966212270369e+005,-2.69563951159633e+001,-1.55028956765481e+001

3.99465775648511e+005,-2.69598306035112e+001,-1.57166984443622e+001

4.05042110070485e+005,-2.69633594867428e+001,-1.59333786304822e+001

4.10696287220124e+005,-2.69669842186263e+001,-1.61529721012033e+001

4.16429393741414e+005,-2.69707073119788e+001,-1.63755150574993e+001

4.22242531447321e+005,-2.69745313406877e+001,-1.66010440337220e+001

4.28136817531551e+005,-2.69784589409444e+001,-1.68295958960951e+001

4.34113384783250e+005,-2.69824928124896e+001,-1.70612078409969e+001

4.40173381804713e+005,-2.69866357198700e+001,-1.72959173930224e+001

4.46317973232124e+005,-2.69908904937064e+001,-1.75337624028200e+001

4.52548339959385e+005,-2.69952600319700e+001,-1.77747810446942e+001

4.58865679365059e+005,-2.69997473012698e+001,-1.80190118139674e+001

4.65271205542494e+005,-2.70043553381465e+001,-1.82664935240940e+001

4.71766149533147e+005,-2.70090872503751e+001,-1.85172653035183e+001

4.78351759563174e+005,-2.70139462182735e+001,-1.87713665922709e+001

4.85029301283321e+005,-2.70189354960165e+001,-1.90288371382943e+001

4.91800058012158e+005,-2.70240584129541e+001,-1.92897169934906e+001

4.98665330982714e+005,-2.70293183749338e+001,-1.95540465094860e+001

5.05626439592555e+005,-2.70347188656242e+001,-1.98218663331022e+001

5.12684721657352e+005,-2.70402634478400e+001,-2.00932174015291e+001

5.19841533667984e+005,-2.70459557648662e+001,-2.03681409371913e+001

5.27098251051240e+005,-2.70517995417809e+001,-2.06466784423011e+001

5.34456268434150e+005,-2.70577985867745e+001,-2.09288716930912e+001

5.41916999912011e+005,-2.70639567924639e+001,-2.12147627337207e+001

