Freq.,VOut,OutRef

1.00000000000000e+004,-1.77704229974518e+001,-1.70362256990083e-001

1.01395947979003e+004,-1.77704233572021e+001,-1.72740418105098e-001

1.02811382665607e+004,-1.77704237270661e+001,-1.75151776798567e-001

1.04246576084112e+004,-1.77704241073281e+001,-1.77596796479119e-001

1.05701804056138e+004,-1.77704244982802e+001,-1.80075947023193e-001

1.07177346253629e+004,-1.77704249002231e+001,-1.82589704864003e-001

1.08673486252606e+004,-1.77704253134658e+001,-1.85138553086673e-001

1.10190511587661e+004,-1.77704257383258e+001,-1.87722981520162e-001

1.11728713807222e+004,-1.77704261751299e+001,-1.90343486827866e-001

1.13288388529580e+004,-1.77704266242137e+001,-1.93000572607950e-001

1.14869835499703e+004,-1.77704270859223e+001,-1.95694749487464e-001

1.16473358646846e+004,-1.77704275606108e+001,-1.98426535219452e-001

1.18099266142953e+004,-1.77704280486439e+001,-2.01196454785243e-001

1.19747870461893e+004,-1.77704285503970e+001,-2.04005040492313e-001

1.21419488439505e+004,-1.77704290662558e+001,-2.06852832078906e-001

1.23114441334492e+004,-1.77704295966164e+001,-2.09740376817950e-001

1.24833054890161e+004,-1.77704301418867e+001,-2.12668229620226e-001

1.26575659397028e+004,-1.77704307024860e+001,-2.15636953139207e-001

1.28342589756290e+004,-1.77704312788450e+001,-2.18647117886580e-001

1.30134185544193e+004,-1.77704318714069e+001,-2.21699302332697e-001

1.31950791077289e+004,-1.77704324806269e+001,-2.24794093024648e-001

1.33792755478611e+004,-1.77704331069735e+001,-2.27932084695281e-001

1.35660432744767e+004,-1.77704337509281e+001,-2.31113880378618e-001

1.37554181813974e+004,-1.77704344129856e+001,-2.34340091524976e-001

1.39474366635040e+004,-1.77704350936548e+001,-2.37611338119517e-001

1.41421356237309e+004,-1.77704357934592e+001,-2.40928248800655e-001

1.43395524801583e+004,-1.77704365129365e+001,-2.44291460979680e-001

1.45397251732031e+004,-1.77704372526395e+001,-2.47701620967584e-001

1.47426921729110e+004,-1.77704380131371e+001,-2.51159384091213e-001

1.49484924863494e+004,-1.77704387950136e+001,-2.54665414828604e-001

1.51571656651040e+004,-1.77704395988700e+001,-2.58220386927992e-001

1.53687518128801e+004,-1.77704404253243e+001,-2.61824983543635e-001

1.55832915932100e+004,-1.77704412750115e+001,-2.65479897363787e-001

1.58008262372675e+004,-1.77704421485849e+001,-2.69185830743406e-001

1.60213975517924e+004,-1.77704430467157e+001,-2.72943495841487e-001

1.62450479271247e+004,-1.77704439700941e+001,-2.76753614755942e-001

1.64718203453514e+004,-1.77704449194302e+001,-2.80616919661148e-001

1.67017583885674e+004,-1.77704458954533e+001,-2.84534152952153e-001

1.69349062472505e+004,-1.77704468989137e+001,-2.88506067383693e-001

1.71713087287550e+004,-1.77704479305824e+001,-2.92533426217326e-001

1.74110112659224e+004,-1.77704489912527e+001,-2.96617003365382e-001

1.76540599258131e+004,-1.77704500817394e+001,-3.00757583542659e-001

1.79005014185594e+004,-1.77704512028807e+001,-3.04955962414091e-001

1.81503831063432e+004,-1.77704523555384e+001,-3.09212946748561e-001

1.84037530124975e+004,-1.77704535405981e+001,-3.13529354576574e-001

1.86606598307361e+004,-1.77704547589708e+001,-3.17906015340922e-001

1.89211529345119e+004,-1.77704560115926e+001,-3.22343770063599e-001

1.91852823865052e+004,-1.77704572994263e+001,-3.26843471501009e-001

1.94530989482457e+004,-1.77704586234616e+001,-3.31405984310431e-001

1.97246540898671e+004,-1.77704599847159e+001,-3.36032185216625e-001

1.99999999999999e+004,-1.77704613842354e+001,-3.40722963177727e-001

2.02791895958005e+004,-1.77704628230957e+001,-3.45479219558316e-001

2.05622765331213e+004,-1.77704643024024e+001,-3.50301868302026e-001

2.08493152168224e+004,-1.77704658232923e+001,-3.55191836104243e-001

2.11403608112276e+004,-1.77704673869342e+001,-3.60150062594257e-001

2.14354692507258e+004,-1.77704689945296e+001,-3.65177500511382e-001

2.17346972505211e+004,-1.77704706473139e+001,-3.70275115891664e-001

2.20381023175322e+004,-1.77704723465570e+001,-3.75443888250385e-001

2.23457427614443e+004,-1.77704740935648e+001,-3.80684810771150e-001

2.26576777059159e+004,-1.77704758896797e+001,-3.85998890495635e-001

2.29739670999406e+004,-1.77704777362817e+001,-3.91387148519516e-001

2.32946717293690e+004,-1.77704796347899e+001,-3.96850620183824e-001

2.36198532285905e+004,-1.77704815866629e+001,-4.02390355278300e-001

2.39495740923785e+004,-1.77704835934004e+001,-4.08007418240026e-001

2.42838976879009e+004,-1.77704856565445e+001,-4.13702888356895e-001

2.46228882668982e+004,-1.77704877776803e+001,-4.19477859977661e-001

2.49666109780322e+004,-1.77704899584375e+001,-4.25333442719972e-001

2.53151318794055e+004,-1.77704922004916e+001,-4.31270761682509e-001

2.56685179512580e+004,-1.77704945055653e+001,-4.37290957661990e-001

2.60268371088386e+004,-1.77704968754293e+001,-4.43395187372753e-001

2.63901582154578e+004,-1.77704993119046e+001,-4.49584623666365e-001

2.67585510957221e+004,-1.77705018168629e+001,-4.55860455757380e-001

2.71320865489533e+004,-1.77705043922288e+001,-4.62223889452602e-001

2.75108363627948e+004,-1.77705070399805e+001,-4.68676147381170e-001

2.78948733270080e+004,-1.77705097621523e+001,-4.75218469228395e-001

2.82842712474618e+004,-1.77705125608353e+001,-4.81852111974585e-001

2.86791049603164e+004,-1.77705154381793e+001,-4.88578350136296e-001

2.90794503464061e+004,-1.77705183963948e+001,-4.95398476009001e-001

2.94853843458219e+004,-1.77705214377540e+001,-5.02313799916151e-001

2.98969849726987e+004,-1.77705245645931e+001,-5.09325650459884e-001

3.03143313302078e+004,-1.77705277793140e+001,-5.16435374774733e-001

3.07375036257601e+004,-1.77705310843858e+001,-5.23644338788806e-001

3.11665831864199e+004,-1.77705344823471e+001,-5.30953927481488e-001

3.16016524745350e+004,-1.77705379758078e+001,-5.38365545150915e-001

3.20427951035848e+004,-1.77705415674510e+001,-5.45880615684260e-001

3.24900958542493e+004,-1.77705452600351e+001,-5.53500582827529e-001

3.29436406907028e+004,-1.77705490563961e+001,-5.61226910463955e-001

3.34035167771346e+004,-1.77705529594493e+001,-5.69061082895192e-001

3.38698124945009e+004,-1.77705569721924e+001,-5.77004605122764e-001

3.43426174575100e+004,-1.77705610977066e+001,-5.85059003139362e-001

3.48220225318448e+004,-1.77705653391602e+001,-5.93225824218591e-001

3.53081198516260e+004,-1.77705696998100e+001,-6.01506637212940e-001

3.58010028371187e+004,-1.77705741830043e+001,-6.09903032853120e-001

3.63007662126863e+004,-1.77705787921856e+001,-6.18416624052893e-001

3.68075060249948e+004,-1.77705835308929e+001,-6.27049046217545e-001

3.73213196614721e+004,-1.77705884027643e+001,-6.35801957557539e-001

3.78423058690237e+004,-1.77705934115403e+001,-6.44677039404627e-001

3.83705647730104e+004,-1.77705985610662e+001,-6.53675996534798e-001

3.89061978964912e+004,-1.77706038552953e+001,-6.62800557493469e-001

3.94493081797342e+004,-1.77706092982919e+001,-6.72052474925914e-001

3.99999999999998e+004,-1.77706148942342e+001,-6.81433525914289e-001

4.05583791916010e+004,-1.77706206474174e+001,-6.90945512315477e-001

4.11245530662425e+004,-1.77706265622577e+001,-7.00590261106064e-001

4.16986304336447e+004,-1.77706326432950e+001,-7.10369624731290e-001

4.22807216224550e+004,-1.77706388951963e+001,-7.20285481461704e-001

4.28709385014515e+004,-1.77706453227598e+001,-7.30339735747472e-001

4.34693945010421e+004,-1.77706519309183e+001,-7.40534318586306e-001

4.40762046350642e+004,-1.77706587247426e+001,-7.50871187891392e-001

4.46914855228886e+004,-1.77706657094461e+001,-7.61352328863423e-001

4.53153554118317e+004,-1.77706728903882e+001,-7.71979754372658e-001

4.59479341998812e+004,-1.77706802730786e+001,-7.82755505341134e-001

4.65893434587380e+004,-1.77706878631816e+001,-7.93681651133242e-001

4.72397064571810e+004,-1.77706956665202e+001,-8.04760289950422e-001

4.78991481847569e+004,-1.77707036890804e+001,-8.15993549232467e-001

4.85677953758016e+004,-1.77707119370166e+001,-8.27383586061627e-001

4.92457765337964e+004,-1.77707204166551e+001,-8.38932587576202e-001

4.99332219560642e+004,-1.77707291345000e+001,-8.50642771385863e-001

5.06302637588109e+004,-1.77707380972373e+001,-8.62516385996075e-001

5.13370359025159e+004,-1.77707473117405e+001,-8.74555711236074e-001

5.20536742176771e+004,-1.77707567850756e+001,-8.86763058693206e-001

5.27803164309155e+004,-1.77707665245069e+001,-8.99140772153200e-001

5.35171021914442e+004,-1.77707765375018e+001,-9.11691228047784e-001

5.42641730979066e+004,-1.77707868317371e+001,-9.24416835906978e-001

5.50216727255895e+004,-1.77707974151046e+001,-9.37320038816652e-001

5.57897466540159e+004,-1.77708082957170e+001,-9.50403313886036e-001

5.65685424949235e+004,-1.77708194819143e+001,-9.63669172716338e-001

5.73582099206328e+004,-1.77708309822699e+001,-9.77120161881006e-001

5.81589006928121e+004,-1.77708428055974e+001,-9.90758863408942e-001

5.89707686916437e+004,-1.77708549609570e+001,-1.00458789527541e+000

5.97939699453972e+004,-1.77708674576624e+001,-1.01860991190100e+000

6.06286626604156e+004,-1.77708803052883e+001,-1.03282760465473e+000

6.14750072515201e+004,-1.77708935136769e+001,-1.04724370236554e+000

6.23331663728396e+004,-1.77709070929461e+001,-1.06186097184122e+000

6.32033049490698e+004,-1.77709210534966e+001,-1.07668221839410e+000

6.40855902071694e+004,-1.77709354060204e+001,-1.09171028637136e+000

6.49801917084985e+004,-1.77709501615079e+001,-1.10694805969844e+000

6.58872813814055e+004,-1.77709653312575e+001,-1.12239846242178e+000

6.68070335542691e+004,-1.77709809268831e+001,-1.13806445926613e+000

6.77396249890018e+004,-1.77709969603234e+001,-1.15394905619608e+000

6.86852349150199e+004,-1.77710134438509e+001,-1.17005530098415e+000

6.96440450636895e+004,-1.77710303900806e+001,-1.18638628378990e+000

7.06162397032520e+004,-1.77710478119807e+001,-1.20294513774281e+000

7.16020056742374e+004,-1.77710657228810e+001,-1.21973503953800e+000

7.26015324253724e+004,-1.77710841364840e+001,-1.23675921003412e+000

7.36150120499896e+004,-1.77711030668749e+001,-1.25402091486357e+000

7.46426393229441e+004,-1.77711225285318e+001,-1.27152346505070e+000

7.56846117380472e+004,-1.77711425363375e+001,-1.28927021763509e+000

7.67411295460207e+004,-1.77711631055897e+001,-1.30726457630723e+000

7.78123957929823e+004,-1.77711842520133e+001,-1.32550999204922e+000

7.88986163594682e+004,-1.77712059917717e+001,-1.34400996378731e+000

7.99999999999995e+004,-1.77712283414793e+001,-1.36276803905002e+000

8.11167583832018e+004,-1.77712513182137e+001,-1.38178781463775e+000

8.22491061324848e+004,-1.77712749395287e+001,-1.40107293729853e+000

8.33972608672892e+004,-1.77712992234673e+001,-1.42062710441674e+000

8.45614432449099e+004,-1.77713241885754e+001,-1.44045406470560e+000

8.57418770029029e+004,-1.77713498539156e+001,-1.46055761891423e+000

8.69387890020841e+004,-1.77713762390814e+001,-1.48094162054098e+000

8.81524092701283e+004,-1.77714033642118e+001,-1.50160997655622e+000

8.93829710457770e+004,-1.77714312500067e+001,-1.52256664813653e+000

9.06307108236633e+004,-1.77714599177418e+001,-1.54381565140652e+000

9.18958683997622e+004,-1.77714893892850e+001,-1.56536105819142e+000

9.31786869174758e+004,-1.77715196871122e+001,-1.58720699678036e+000

9.44794129143618e+004,-1.77715508343246e+001,-1.60935765269782e+000

9.57982963695136e+004,-1.77715828546652e+001,-1.63181726948676e+000

9.71355907516031e+004,-1.77716157725370e+001,-1.65459014950150e+000

9.84915530675926e+004,-1.77716496130210e+001,-1.67768065471020e+000

9.98664439121282e+004,-1.77716844018945e+001,-1.70109320750974e+000

1.01260527517622e+005,-1.77717201656506e+001,-1.72483229154897e+000

1.02674071805032e+005,-1.77717569315175e+001,-1.74890245256367e+000

1.04107348435354e+005,-1.77717947274787e+001,-1.77330829922378e+000

1.05560632861831e+005,-1.77718335822940e+001,-1.79805450398784e+000

1.07034204382888e+005,-1.77718735255202e+001,-1.82314580397306e+000

1.08528346195813e+005,-1.77719145875330e+001,-1.84858700183312e+000

1.10043345451179e+005,-1.77719567995498e+001,-1.87438296664889e+000

1.11579493308032e+005,-1.77720001936520e+001,-1.90053863482990e+000

1.13137084989847e+005,-1.77720448028090e+001,-1.92705901102810e+000

1.14716419841265e+005,-1.77720906609024e+001,-1.95394916906212e+000

1.16317801385624e+005,-1.77721378027502e+001,-1.98121425285545e+000

1.17941537383287e+005,-1.77721862641331e+001,-2.00885947738308e+000

1.19587939890794e+005,-1.77722360818201e+001,-2.03689012963427e+000

1.21257325320831e+005,-1.77722872935954e+001,-2.06531156958370e+000

1.22950014503040e+005,-1.77723399382859e+001,-2.09412923117781e+000

1.24666332745679e+005,-1.77723940557895e+001,-2.12334862333152e+000

1.26406609898139e+005,-1.77724496871042e+001,-2.15297533093889e+000

1.28171180414339e+005,-1.77725068743573e+001,-2.18301501589546e+000

1.29960383416997e+005,-1.77725656608365e+001,-2.21347341813277e+000

1.31774562762811e+005,-1.77726260910206e+001,-2.24435635666891e+000

1.33614067108538e+005,-1.77726882106121e+001,-2.27566973066743e+000

1.35479249978003e+005,-1.77727520665697e+001,-2.30741952051263e+000

1.37370469830040e+005,-1.77728177071420e+001,-2.33961178889741e+000

1.39288090127379e+005,-1.77728851819025e+001,-2.37225268192387e+000

1.41232479406504e+005,-1.77729545417846e+001,-2.40534843021718e+000

1.43204011348474e+005,-1.77730258391184e+001,-2.43890535005504e+000

1.45203064850745e+005,-1.77730991276675e+001,-2.47292984450735e+000

1.47230024099979e+005,-1.77731744626677e+001,-2.50742840459346e+000

1.49285278645888e+005,-1.77732519008660e+001,-2.54240761044950e+000

1.51369223476094e+005,-1.77733315005606e+001,-2.57787413251382e+000

1.53482259092041e+005,-1.77734133216425e+001,-2.61383473272308e+000

1.55624791585964e+005,-1.77734974256373e+001,-2.65029626572456e+000

1.57797232718936e+005,-1.77735838757487e+001,-2.68726568010172e+000

1.59999999999999e+005,-1.77736727369025e+001,-2.72475001961574e+000

1.62233516766403e+005,-1.77737640757925e+001,-2.76275642445945e+000

1.64498212264969e+005,-1.77738579609267e+001,-2.80129213252767e+000

1.66794521734578e+005,-1.77739544626749e+001,-2.84036448070149e+000

1.69122886489819e+005,-1.77740536533179e+001,-2.87998090614820e+000

1.71483754005805e+005,-1.77741556070969e+001,-2.92014894763484e+000

1.73877578004168e+005,-1.77742604002653e+001,-2.96087624685806e+000

1.76304818540256e+005,-1.77743681111408e+001,-3.00217054978864e+000

1.78765942091554e+005,-1.77744788201592e+001,-3.04403970803136e+000

1.81261421647326e+005,-1.77745926099293e+001,-3.08649168019946e+000

1.83791736799524e+005,-1.77747095652893e+001,-3.12953453330633e+000

1.86357373834951e+005,-1.77748297733643e+001,-3.17317644417048e+000

1.88958825828723e+005,-1.77749533236250e+001,-3.21742570083787e+000

1.91596592739027e+005,-1.77750803079485e+001,-3.26229070401902e+000

1.94271181503206e+005,-1.77752108206798e+001,-3.30777996854150e+000

1.96983106135185e+005,-1.77753449586945e+001,-3.35390212482021e+000

1.99732887824256e+005,-1.77754828214642e+001,-3.40066592034039e+000

2.02521055035243e+005,-1.77756245111218e+001,-3.44808022115988e+000

2.05348143610063e+005,-1.77757701325295e+001,-3.49615401342467e+000

2.08214696870707e+005,-1.77759197933475e+001,-3.54489640490260e+000

2.11121265723661e+005,-1.77760736041049e+001,-3.59431662653223e+000

2.14068408765776e+005,-1.77762316782716e+001,-3.64442403398777e+000

2.17056692391625e+005,-1.77763941323321e+001,-3.69522810926099e+000

2.20086690902357e+005,-1.77765610858611e+001,-3.74673846225836e+000

2.23158986616063e+005,-1.77767326616000e+001,-3.79896483241649e+000

2.26274169979693e+005,-1.77769089855359e+001,-3.85191709033162e+000

2.29432839682530e+005,-1.77770901869818e+001,-3.90560523940762e+000

2.32635602771247e+005,-1.77772763986585e+001,-3.96003941751896e+000

2.35883074766574e+005,-1.77774677567784e+001,-4.01522989869153e+000

2.39175879781588e+005,-1.77776644011311e+001,-4.07118709479938e+000

2.42514650641661e+005,-1.77778664751701e+001,-4.12792155727793e+000

2.45900029006080e+005,-1.77780741261024e+001,-4.18544397885449e+000

2.49332665491357e+005,-1.77782875049789e+001,-4.24376519529479e+000

2.52813219796278e+005,-1.77785067667871e+001,-4.30289618716702e+000

2.56342360828676e+005,-1.77787320705454e+001,-4.36284808162237e+000

2.59920766833993e+005,-1.77789635793995e+001,-4.42363215419196e+000

2.63549125525621e+005,-1.77792014607205e+001,-4.48525983060081e+000

2.67228134217075e+005,-1.77794458862046e+001,-4.54774268859951e+000

2.70958499956006e+005,-1.77796970319753e+001,-4.61109245981158e+000

2.74740939660078e+005,-1.77799550786872e+001,-4.67532103159862e+000

2.78576180254757e+005,-1.77802202116311e+001,-4.74044044894238e+000

2.82464958813007e+005,-1.77804926208423e+001,-4.80646291634285e+000

2.86408022696948e+005,-1.77807725012097e+001,-4.87340079973544e+000

2.90406129701488e+005,-1.77810600525871e+001,-4.94126662842304e+000

2.94460048199957e+005,-1.77813554799070e+001,-5.01007309702663e+000

2.98570557291775e+005,-1.77816589932955e+001,-5.07983306745263e+000

3.02738446952187e+005,-1.77819708081896e+001,-5.15055957087831e+000

3.06964518184081e+005,-1.77822911454567e+001,-5.22226580975234e+000

3.11249583171928e+005,-1.77826202315153e+001,-5.29496515981552e+000

3.15594465437872e+005,-1.77829582984582e+001,-5.36867117213720e+000

3.19999999999997e+005,-1.77833055841775e+001,-5.44339757516977e+000

3.24467033532806e+005,-1.77836623324917e+001,-5.51915827682086e+000

3.28996424529938e+005,-1.77840287932741e+001,-5.59596736654272e+000

3.33589043469155e+005,-1.77844052225841e+001,-5.67383911744107e+000

3.38245772979638e+005,-1.77847918827993e+001,-5.75278798839948e+000

3.42967508011610e+005,-1.77851890427505e+001,-5.83282862622470e+000

3.47755156008335e+005,-1.77855969778576e+001,-5.91397586780793e+000

3.52609637080511e+005,-1.77860159702686e+001,-5.99624474230613e+000

3.57531884183106e+005,-1.77864463089989e+001,-6.07965047334156e+000

3.62522843294651e+005,-1.77868882900738e+001,-6.16420848122039e+000

3.67583473599047e+005,-1.77873422166721e+001,-6.24993438516981e+000

3.72714747669902e+005,-1.77878083992716e+001,-6.33684400559577e+000

3.77917651657445e+005,-1.77882871557965e+001,-6.42495336635983e+000

3.83193185478053e+005,-1.77887788117661e+001,-6.51427869707568e+000

3.88542363006410e+005,-1.77892837004460e+001,-6.60483643542778e+000

3.93966212270369e+005,-1.77898021630003e+001,-6.69664322950823e+000

3.99465775648511e+005,-1.77903345486458e+001,-6.78971594017734e+000

4.05042110070485e+005,-1.77908812148077e+001,-6.88407164344449e+000

4.10696287220124e+005,-1.77914425272772e+001,-6.97972763287206e+000

4.16429393741414e+005,-1.77920188603699e+001,-7.07670142200104e+000

4.22242531447321e+005,-1.77926105970872e+001,-7.17501074680132e+000

4.28136817531551e+005,-1.77932181292776e+001,-7.27467356814457e+000

4.34113384783250e+005,-1.77938418578010e+001,-7.37570807430285e+000

4.40173381804713e+005,-1.77944821926932e+001,-7.47813268347178e+000

4.46317973232124e+005,-1.77951395533332e+001,-7.58196604632033e+000

4.52548339959385e+005,-1.77958143686108e+001,-7.68722704856697e+000

4.58865679365059e+005,-1.77965070770965e+001,-7.79393481358398e+000

4.65271205542494e+005,-1.77972181272123e+001,-7.90210870503031e+000

4.71766149533147e+005,-1.77979479774047e+001,-8.01176832951435e+000

4.78351759563174e+005,-1.77986970963180e+001,-8.12293353928670e+000

4.85029301283321e+005,-1.77994659629705e+001,-8.23562443496561e+000

4.91800058012158e+005,-1.78002550669312e+001,-8.34986136829411e+000

4.98665330982714e+005,-1.78010649084981e+001,-8.46566494493342e+000

5.05626439592555e+005,-1.78018959988787e+001,-8.58305602728870e+000

5.12684721657352e+005,-1.78027488603712e+001,-8.70205573737462e+000

5.19841533667984e+005,-1.78036240265485e+001,-8.82268545971677e+000

5.27098251051240e+005,-1.78045220424426e+001,-8.94496684429361e+000

5.34456268434150e+005,-1.78054434647320e+001,-9.06892180951946e+000

5.41916999912011e+005,-1.78063888619304e+001,-9.19457254526946e+000

