Freq.,VOut,OutRef

1.00000000000000e+004,-2.15026137718268e+001,-3.87513944425246e-001

1.01395947979003e+004,-2.15026156380475e+001,-3.92923401775820e-001

1.02811382665607e+004,-2.15026175567336e+001,-3.98408370819692e-001

1.04246576084112e+004,-2.15026195293602e+001,-4.03969905596809e-001

1.05701804056138e+004,-2.15026215574435e+001,-4.09609074858022e-001

1.07177346253629e+004,-2.15026236425427e+001,-4.15326962269288e-001

1.08673486252606e+004,-2.15026257862606e+001,-4.21124666623410e-001

1.10190511587661e+004,-2.15026279902451e+001,-4.27003302046075e-001

1.11728713807222e+004,-2.15026302561905e+001,-4.32963998214125e-001

1.13288388529580e+004,-2.15026325858385e+001,-4.39007900570547e-001

1.14869835499703e+004,-2.15026349809802e+001,-4.45136170543501e-001

1.16473358646846e+004,-2.15026374434565e+001,-4.51349985771593e-001

1.18099266142953e+004,-2.15026399751606e+001,-4.57650540328470e-001

1.19747870461893e+004,-2.15026425780384e+001,-4.64039044952380e-001

1.21419488439505e+004,-2.15026452540908e+001,-4.70516727278877e-001

1.23114441334492e+004,-2.15026480053750e+001,-4.77084832075475e-001

1.24833054890161e+004,-2.15026508340058e+001,-4.83744621483388e-001

1.26575659397028e+004,-2.15026537421577e+001,-4.90497375255470e-001

1.28342589756290e+004,-2.15026567320661e+001,-4.97344391006505e-001

1.30134185544193e+004,-2.15026598060293e+001,-5.04286984459323e-001

1.31950791077289e+004,-2.15026629664104e+001,-5.11326489697836e-001

1.33792755478611e+004,-2.15026662156385e+001,-5.18464259424749e-001

1.35660432744767e+004,-2.15026695562115e+001,-5.25701665218405e-001

1.37554181813974e+004,-2.15026729906971e+001,-5.33040097799016e-001

1.39474366635040e+004,-2.15026765217355e+001,-5.40480967293179e-001

1.41421356237309e+004,-2.15026801520407e+001,-5.48025703506895e-001

1.43395524801583e+004,-2.15026838844034e+001,-5.55675756197156e-001

1.45397251732031e+004,-2.15026877216925e+001,-5.63432595352994e-001

1.47426921729110e+004,-2.15026916668577e+001,-5.71297711475530e-001

1.49484924863494e+004,-2.15026957229316e+001,-5.79272615864424e-001

1.51571656651040e+004,-2.15026998930318e+001,-5.87358840909517e-001

1.53687518128801e+004,-2.15027041803638e+001,-5.95557940382345e-001

1.55832915932100e+004,-2.15027085882231e+001,-6.03871489736500e-001

1.58008262372675e+004,-2.15027131199979e+001,-6.12301086408049e-001

1.60213975517924e+004,-2.15027177791716e+001,-6.20848350123280e-001

1.62450479271247e+004,-2.15027225693252e+001,-6.29514923210117e-001

1.64718203453514e+004,-2.15027274941411e+001,-6.38302470909935e-001

1.67017583885674e+004,-2.15027325574044e+001,-6.47212681701181e-001

1.69349062472505e+004,-2.15027377630070e+001,-6.56247267620803e-001

1.71713087287550e+004,-2.15027431149502e+001,-6.65407964592784e-001

1.74110112659224e+004,-2.15027486173477e+001,-6.74696532761772e-001

1.76540599258131e+004,-2.15027542744287e+001,-6.84114756830312e-001

1.79005014185594e+004,-2.15027600905415e+001,-6.93664446401347e-001

1.81503831063432e+004,-2.15027660701564e+001,-7.03347436324591e-001

1.84037530124975e+004,-2.15027722178695e+001,-7.13165587049696e-001

1.86606598307361e+004,-2.15027785384061e+001,-7.23120784981510e-001

1.89211529345119e+004,-2.15027850366240e+001,-7.33214942842489e-001

1.91852823865052e+004,-2.15027917175180e+001,-7.43450000039575e-001

1.94530989482457e+004,-2.15027985862229e+001,-7.53827923035882e-001

1.97246540898671e+004,-2.15028056480179e+001,-7.64350705727435e-001

1.99999999999999e+004,-2.15028129083308e+001,-7.75020369824673e-001

2.02791895958005e+004,-2.15028203727416e+001,-7.85838965242396e-001

2.05622765331213e+004,-2.15028280469874e+001,-7.96808570489775e-001

2.08493152168224e+004,-2.15028359369665e+001,-8.07931293070264e-001

2.11403608112276e+004,-2.15028440487427e+001,-8.19209269884745e-001

2.14354692507258e+004,-2.15028523885505e+001,-8.30644667642475e-001

2.17346972505211e+004,-2.15028609627996e+001,-8.42239683273442e-001

2.20381023175322e+004,-2.15028697780795e+001,-8.53996544352208e-001

2.23457427614443e+004,-2.15028788411653e+001,-8.65917509522853e-001

2.26576777059159e+004,-2.15028881590224e+001,-8.78004868931279e-001

2.29739670999406e+004,-2.15028977388118e+001,-8.90260944665668e-001

2.32946717293690e+004,-2.15029075878959e+001,-9.02688091199154e-001

2.36198532285905e+004,-2.15029177138436e+001,-9.15288695842873e-001

2.39495740923785e+004,-2.15029281244371e+001,-9.28065179200478e-001

2.42838976879009e+004,-2.15029388276768e+001,-9.41019995633406e-001

2.46228882668982e+004,-2.15029498317881e+001,-9.54155633730177e-001

2.49666109780322e+004,-2.15029611452276e+001,-9.67474616782494e-001

2.53151318794055e+004,-2.15029727766895e+001,-9.80979503268096e-001

2.56685179512580e+004,-2.15029847351120e+001,-9.94672887341751e-001

2.60268371088386e+004,-2.15029970296849e+001,-1.00855739932924e+000

2.63901582154578e+004,-2.15030096698560e+001,-1.02263570623225e+000

2.67585510957221e+004,-2.15030226653386e+001,-1.03691051223750e+000

2.71320865489533e+004,-2.15030360261188e+001,-1.05138455923613e+000

2.75108363627948e+004,-2.15030497624634e+001,-1.06606062734482e+000

2.78948733270080e+004,-2.15030638849276e+001,-1.08094153543948e+000

2.82842712474618e+004,-2.15030784043633e+001,-1.09603014169410e+000

2.86791049603164e+004,-2.15030933319271e+001,-1.11132934412635e+000

2.90794503464061e+004,-2.15031086790891e+001,-1.12684208115205e+000

2.94853843458219e+004,-2.15031244576417e+001,-1.14257133214607e+000

2.98969849726987e+004,-2.15031406797086e+001,-1.15852011801229e+000

3.03143313302078e+004,-2.15031573577540e+001,-1.17469150176045e+000

3.07375036257601e+004,-2.15031745045923e+001,-1.19108858909076e+000

3.11665831864199e+004,-2.15031921333979e+001,-1.20771452898789e+000

3.16016524745350e+004,-2.15032102577154e+001,-1.22457251432110e+000

3.20427951035848e+004,-2.15032288914695e+001,-1.24166578245474e+000

3.24900958542493e+004,-2.15032480489765e+001,-1.25899761586558e+000

3.29436406907028e+004,-2.15032677449546e+001,-1.27657134276982e+000

3.34035167771346e+004,-2.15032879945355e+001,-1.29439033775621e+000

3.38698124945009e+004,-2.15033088132757e+001,-1.31245802243324e+000

3.43426174575100e+004,-2.15033302171690e+001,-1.33077786607759e+000

3.48220225318448e+004,-2.15033522226581e+001,-1.34935338629926e+000

3.53081198516260e+004,-2.15033748466478e+001,-1.36818814970911e+000

3.58010028371187e+004,-2.15033981065175e+001,-1.38728577260059e+000

3.63007662126863e+004,-2.15034220201346e+001,-1.40664992163805e+000

3.68075060249948e+004,-2.15034466058684e+001,-1.42628431455537e+000

3.73213196614721e+004,-2.15034718826040e+001,-1.44619272086365e+000

3.78423058690237e+004,-2.15034978697570e+001,-1.46637896256913e+000

3.83705647730104e+004,-2.15035245872879e+001,-1.48684691490099e+000

3.89061978964912e+004,-2.15035520557181e+001,-1.50760050704763e+000

3.94493081797342e+004,-2.15035802961448e+001,-1.52864372290601e+000

3.99999999999998e+004,-2.15036093302577e+001,-1.54998060183767e+000

4.05583791916010e+004,-2.15036391803557e+001,-1.57161523943736e+000

4.11245530662425e+004,-2.15036698693635e+001,-1.59355178831189e+000

4.16986304336447e+004,-2.15037014208495e+001,-1.61579445886786e+000

4.22807216224550e+004,-2.15037338590437e+001,-1.63834752011308e+000

4.28709385014515e+004,-2.15037672088566e+001,-1.66121530046615e+000

4.34693945010421e+004,-2.15038014958974e+001,-1.68440218857866e+000

4.40762046350642e+004,-2.15038367464947e+001,-1.70791263416726e+000

4.46914855228886e+004,-2.15038729877158e+001,-1.73175114885796e+000

4.53153554118317e+004,-2.15039102473880e+001,-1.75592230704232e+000

4.59479341998812e+004,-2.15039485541192e+001,-1.78043074674393e+000

4.65893434587380e+004,-2.15039879373206e+001,-1.80528117049652e+000

4.72397064571810e+004,-2.15040284272286e+001,-1.83047834623604e+000

4.78991481847569e+004,-2.15040700549281e+001,-1.85602710820227e+000

4.85677953758016e+004,-2.15041128523764e+001,-1.88193235785380e+000

4.92457765337964e+004,-2.15041568524274e+001,-1.90819906479565e+000

4.99332219560642e+004,-2.15042020888566e+001,-1.93483226771829e+000

5.06302637588109e+004,-2.15042485963876e+001,-1.96183707535012e+000

5.13370359025159e+004,-2.15042964107179e+001,-1.98921866742233e+000

5.20536742176771e+004,-2.15043455685463e+001,-2.01698229564758e+000

5.27803164309155e+004,-2.15043961076013e+001,-2.04513328470909e+000

5.35171021914442e+004,-2.15044480666696e+001,-2.07367703326774e+000

5.42641730979066e+004,-2.15045014856257e+001,-2.10261901497737e+000

5.50216727255895e+004,-2.15045564054625e+001,-2.13196477951696e+000

5.57897466540159e+004,-2.15046128683225e+001,-2.16171995363592e+000

5.65685424949235e+004,-2.15046709175299e+001,-2.19189024221255e+000

5.73582099206328e+004,-2.15047305976239e+001,-2.22248142932705e+000

5.81589006928121e+004,-2.15047919543923e+001,-2.25349937934887e+000

5.89707686916437e+004,-2.15048550349066e+001,-2.28495003803803e+000

5.97939699453972e+004,-2.15049198875582e+001,-2.31683943366180e+000

6.06286626604156e+004,-2.15049865620947e+001,-2.34917367812485e+000

6.14750072515201e+004,-2.15050551096581e+001,-2.38195896811652e+000

6.23331663728396e+004,-2.15051255828238e+001,-2.41520158626901e+000

6.32033049490698e+004,-2.15051980356407e+001,-2.44890790233674e+000

6.40855902071694e+004,-2.15052725236721e+001,-2.48308437438534e+000

6.49801917084985e+004,-2.15053491040383e+001,-2.51773755000014e+000

6.58872813814055e+004,-2.15054278354598e+001,-2.55287406750880e+000

6.68070335542691e+004,-2.15055087783021e+001,-2.58850065722029e+000

6.77396249890018e+004,-2.15055919946218e+001,-2.62462414267913e+000

6.86852349150199e+004,-2.15056775482133e+001,-2.66125144193773e+000

6.96440450636895e+004,-2.15057655046578e+001,-2.69838956884373e+000

7.06162397032520e+004,-2.15058559313729e+001,-2.73604563434386e+000

7.16020056742374e+004,-2.15059488976639e+001,-2.77422684780589e+000

7.26015324253724e+004,-2.15060444747762e+001,-2.81294051835648e+000

7.36150120499896e+004,-2.15061427359497e+001,-2.85219405623705e+000

7.46426393229441e+004,-2.15062437564742e+001,-2.89199497417555e+000

7.56846117380472e+004,-2.15063476137464e+001,-2.93235088877785e+000

7.67411295460207e+004,-2.15064543873291e+001,-2.97326952193523e+000

7.78123957929823e+004,-2.15065641590108e+001,-3.01475870225006e+000

7.88986163594682e+004,-2.15066770128682e+001,-3.05682636648001e+000

7.99999999999995e+004,-2.15067930353296e+001,-3.09948056100040e+000

8.11167583832018e+004,-2.15069123152405e+001,-3.14272944328461e+000

8.22491061324848e+004,-2.15070349439307e+001,-3.18658128340289e+000

8.33972608672892e+004,-2.15071610152837e+001,-3.23104446554075e+000

8.45614432449099e+004,-2.15072906258070e+001,-3.27612748953586e+000

8.57418770029029e+004,-2.15074238747059e+001,-3.32183897243378e+000

8.69387890020841e+004,-2.15075608639577e+001,-3.36818765006292e+000

8.81524092701283e+004,-2.15077016983892e+001,-3.41518237862981e+000

8.93829710457770e+004,-2.15078464857555e+001,-3.46283213633299e+000

9.06307108236633e+004,-2.15079953368214e+001,-3.51114602499698e+000

9.18958683997622e+004,-2.15081483654447e+001,-3.56013327172616e+000

9.31786869174758e+004,-2.15083056886624e+001,-3.60980323057913e+000

9.44794129143618e+004,-2.15084674267785e+001,-3.66016538426230e+000

9.57982963695136e+004,-2.15086337034545e+001,-3.71122934584549e+000

9.71355907516031e+004,-2.15088046458025e+001,-3.76300486049607e+000

9.84915530675926e+004,-2.15089803844809e+001,-3.81550180723519e+000

9.98664439121282e+004,-2.15091610537921e+001,-3.86873020071490e+000

1.01260527517622e+005,-2.15093467917837e+001,-3.92270019301511e+000

1.02674071805032e+005,-2.15095377403522e+001,-3.97742207546222e+000

1.04107348435354e+005,-2.15097340453488e+001,-4.03290628046990e+000

1.05560632861831e+005,-2.15099358566890e+001,-4.08916338339977e+000

1.07034204382888e+005,-2.15101433284647e+001,-4.14620410444425e+000

1.08528346195813e+005,-2.15103566190599e+001,-4.20403931053073e+000

1.10043345451179e+005,-2.15105758912683e+001,-4.26268001724791e+000

1.11579493308032e+005,-2.15108013124154e+001,-4.32213739079368e+000

1.13137084989847e+005,-2.15110330544833e+001,-4.38242274994447e+000

1.14716419841265e+005,-2.15112712942389e+001,-4.44354756804668e+000

1.16317801385624e+005,-2.15115162133653e+001,-4.50552347503189e+000

1.17941537383287e+005,-2.15117679985976e+001,-4.56836225945051e+000

1.19587939890794e+005,-2.15120268418611e+001,-4.63207587053196e+000

1.21257325320831e+005,-2.15122929404142e+001,-4.69667642026331e+000

1.22950014503040e+005,-2.15125664969951e+001,-4.76217618549285e+000

1.24666332745679e+005,-2.15128477199714e+001,-4.82858761005472e+000

1.26406609898139e+005,-2.15131368234951e+001,-4.89592330691587e+000

1.28171180414339e+005,-2.15134340276607e+001,-4.96419606034632e+000

1.29960383416997e+005,-2.15137395586679e+001,-5.03341882811074e+000

1.31774562762811e+005,-2.15140536489886e+001,-5.10360474368272e+000

1.33614067108538e+005,-2.15143765375386e+001,-5.17476711848182e+000

1.35479249978003e+005,-2.15147084698533e+001,-5.24691944413210e+000

1.37370469830040e+005,-2.15150496982682e+001,-5.32007539474388e+000

1.39288090127379e+005,-2.15154004821048e+001,-5.39424882921675e+000

1.41232479406504e+005,-2.15157610878605e+001,-5.46945379356556e+000

1.43204011348474e+005,-2.15161317894039e+001,-5.54570452326753e+000

1.45203064850745e+005,-2.15165128681756e+001,-5.62301544563195e+000

1.47230024099979e+005,-2.15169046133936e+001,-5.70140118219122e+000

1.49285278645888e+005,-2.15173073222644e+001,-5.78087655111406e+000

1.51369223476094e+005,-2.15177213001997e+001,-5.86145656963953e+000

1.53482259092041e+005,-2.15181468610387e+001,-5.94315645653238e+000

1.55624791585964e+005,-2.15185843272758e+001,-6.02599163456029e+000

1.57797232718936e+005,-2.15190340302952e+001,-6.10997773299063e+000

1.59999999999999e+005,-2.15194963106099e+001,-6.19513059010895e+000

1.62233516766403e+005,-2.15199715181089e+001,-6.28146625575667e+000

1.64498212264969e+005,-2.15204600123091e+001,-6.36900099389002e+000

1.66794521734578e+005,-2.15209621626145e+001,-6.45775128515747e+000

1.69122886489819e+005,-2.15214783485820e+001,-6.54773382949704e+000

1.71483754005805e+005,-2.15220089601937e+001,-6.63896554875220e+000

1.73877578004168e+005,-2.15225543981360e+001,-6.73146358930686e+000

1.76304818540256e+005,-2.15231150740870e+001,-6.82524532473716e+000

1.78765942091554e+005,-2.15236914110089e+001,-6.92032835848246e+000

1.81261421647326e+005,-2.15242838434507e+001,-7.01673052653200e+000

1.83791736799524e+005,-2.15248928178554e+001,-7.11446990012870e+000

1.86357373834951e+005,-2.15255187928778e+001,-7.21356478848849e+000

1.88958825828723e+005,-2.15261622397081e+001,-7.31403374153551e+000

1.91596592739027e+005,-2.15268236424047e+001,-7.41589555265128e+000

1.94271181503206e+005,-2.15275034982349e+001,-7.51916926143797e+000

1.96983106135185e+005,-2.15282023180240e+001,-7.62387415649525e+000

1.99732887824256e+005,-2.15289206265132e+001,-7.73002977820921e+000

2.02521055035243e+005,-2.15296589627261e+001,-7.83765592155192e+000

2.05348143610063e+005,-2.15304178803443e+001,-7.94677263889396e+000

2.08214696870707e+005,-2.15311979480918e+001,-8.05740024282415e+000

2.11121265723661e+005,-2.15319997501293e+001,-8.16955930897966e+000

2.14068408765776e+005,-2.15328238864576e+001,-8.28327067888339e+000

2.17056692391625e+005,-2.15336709733307e+001,-8.39855546278764e+000

2.20086690902357e+005,-2.15345416436788e+001,-8.51543504252385e+000

2.23158986616063e+005,-2.15354365475417e+001,-8.63393107435650e+000

2.26274169979693e+005,-2.15363563525118e+001,-8.75406549183991e+000

2.29432839682530e+005,-2.15373017441883e+001,-8.87586050867644e+000

2.32635602771247e+005,-2.15382734266410e+001,-8.99933862157624e+000

2.35883074766574e+005,-2.15392721228863e+001,-9.12452261311485e+000

2.39175879781588e+005,-2.15402985753728e+001,-9.25143555458801e+000

2.42514650641661e+005,-2.15413535464789e+001,-9.38010080886332e+000

2.45900029006080e+005,-2.15424378190218e+001,-9.51054203322571e+000

2.49332665491357e+005,-2.15435521967774e+001,-9.64278318221456e+000

2.52813219796278e+005,-2.15446975050127e+001,-9.77684851045317e+000

2.56342360828676e+005,-2.15458745910295e+001,-9.91276257546448e+000

2.59920766833993e+005,-2.15470843247206e+001,-1.00505502404769e+001

2.63549125525621e+005,-2.15483275991381e+001,-1.01902366772118e+001

2.67228134217075e+005,-2.15496053310743e+001,-1.03318473686558e+001

2.70958499956006e+005,-2.15509184616548e+001,-1.04754081118125e+001

2.74740939660078e+005,-2.15522679569449e+001,-1.06209450204330e+001

2.78576180254757e+005,-2.15536548085686e+001,-1.07684845277219e+001

2.82464958813007e+005,-2.15550800343408e+001,-1.09180533890164e+001

2.86408022696948e+005,-2.15565446789131e+001,-1.10696786844370e+001

2.90406129701488e+005,-2.15580498144319e+001,-1.12233878215057e+001

2.94460048199957e+005,-2.15595965412117e+001,-1.13792085377295e+001

2.98570557291775e+005,-2.15611859884207e+001,-1.15371689031473e+001

3.02738446952187e+005,-2.15628193147807e+001,-1.16972973228352e+001

3.06964518184081e+005,-2.15644977092810e+001,-1.18596225393691e+001

3.11249583171928e+005,-2.15662223919063e+001,-1.20241736352409e+001

3.15594465437872e+005,-2.15679946143787e+001,-1.21909800352237e+001

3.19999999999997e+005,-2.15698156609135e+001,-1.23600715086851e+001

3.24467033532806e+005,-2.15716868489905e+001,-1.25314781718428e+001

3.28996424529938e+005,-2.15736095301381e+001,-1.27052304899607e+001

3.33589043469155e+005,-2.15755850907329e+001,-1.28813592794797e+001

3.38245772979638e+005,-2.15776149528137e+001,-1.30598957100822e+001

3.42967508011610e+005,-2.15797005749094e+001,-1.32408713066843e+001

3.47755156008335e+005,-2.15818434528820e+001,-1.34243179513513e+001

3.52609637080511e+005,-2.15840451207837e+001,-1.36102678851349e+001

3.57531884183106e+005,-2.15863071517289e+001,-1.37987537098250e+001

3.62522843294651e+005,-2.15886311587804e+001,-1.39898083896137e+001

3.67583473599047e+005,-2.15910187958495e+001,-1.41834652526654e+001

3.72714747669902e+005,-2.15934717586118e+001,-1.43797579925901e+001

3.77917651657445e+005,-2.15959917854355e+001,-1.45787206698141e+001

3.83193185478053e+005,-2.15985806583251e+001,-1.47803877128432e+001

3.88542363006410e+005,-2.16012402038783e+001,-1.49847939194140e+001

3.93966212270369e+005,-2.16039722942571e+001,-1.51919744575280e+001

3.99465775648511e+005,-2.16067788481725e+001,-1.54019648663632e+001

4.05042110070485e+005,-2.16096618318820e+001,-1.56148010570583e+001

4.10696287220124e+005,-2.16126232602007e+001,-1.58305193133636e+001

4.16429393741414e+005,-2.16156651975254e+001,-1.60491562921536e+001

4.22242531447321e+005,-2.16187897588705e+001,-1.62707490237956e+001

4.28136817531551e+005,-2.16219991109170e+001,-1.64953349123681e+001

4.34113384783250e+005,-2.16252954730726e+001,-1.67229517357244e+001

4.40173381804713e+005,-2.16286811185431e+001,-1.69536376453939e+001

4.46317973232124e+005,-2.16321583754156e+001,-1.71874311663169e+001

4.52548339959385e+005,-2.16357296277513e+001,-1.74243711964056e+001

4.58865679365059e+005,-2.16393973166882e+001,-1.76644970059251e+001

4.65271205542494e+005,-2.16431639415542e+001,-1.79078482366902e+001

4.71766149533147e+005,-2.16470320609875e+001,-1.81544649010689e+001

4.78351759563174e+005,-2.16510042940660e+001,-1.84043873807878e+001

4.85029301283321e+005,-2.16550833214441e+001,-1.86576564255336e+001

4.91800058012158e+005,-2.16592718864957e+001,-1.89143131513438e+001

4.98665330982714e+005,-2.16635727964635e+001,-1.91743990387783e+001

5.05626439592555e+005,-2.16679889236126e+001,-1.94379559308692e+001

5.12684721657352e+005,-2.16725232063894e+001,-1.97050260308393e+001

5.19841533667984e+005,-2.16771786505823e+001,-1.99756518995830e+001

5.27098251051240e+005,-2.16819583304856e+001,-2.02498764529055e+001

5.34456268434150e+005,-2.16868653900639e+001,-2.05277429585106e+001

5.41916999912011e+005,-2.16919030441170e+001,-2.08092950327334e+001

