Freq.,VOut,OutRef

1.00000000000000e+004,-1.24582832513778e+001,-3.35280176634179e-002

1.01395947979003e+004,-1.24582833036352e+001,-3.39960491101685e-002

1.02811382665607e+004,-1.24582833573617e+001,-3.44706139369044e-002

1.04246576084112e+004,-1.24582834125980e+001,-3.49518033461444e-002

1.05701804056138e+004,-1.24582834693877e+001,-3.54397098018340e-002

1.07177346253629e+004,-1.24582835277734e+001,-3.59344270731839e-002

1.08673486252606e+004,-1.24582835878008e+001,-3.64360502256473e-002

1.10190511587661e+004,-1.24582836495152e+001,-3.69446756615568e-002

1.11728713807222e+004,-1.24582837129645e+001,-3.74604011221412e-002

1.13288388529580e+004,-1.24582837781975e+001,-3.79833257140338e-002

1.14869835499703e+004,-1.24582838452644e+001,-3.85135499278855e-002

1.16473358646846e+004,-1.24582839142166e+001,-3.90511756582332e-002

1.18099266142953e+004,-1.24582839851070e+001,-3.95963062204006e-002

1.19747870461893e+004,-1.24582840579902e+001,-4.01490463712125e-002

1.21419488439505e+004,-1.24582841329221e+001,-4.07095023307529e-002

1.23114441334492e+004,-1.24582842099605e+001,-4.12777818002167e-002

1.24833054890161e+004,-1.24582842891643e+001,-4.18539939864542e-002

1.26575659397028e+004,-1.24582843705949e+001,-4.24382496156368e-002

1.28342589756290e+004,-1.24582844543142e+001,-4.30306609665495e-002

1.30134185544193e+004,-1.24582845403870e+001,-4.36313418782508e-002

1.31950791077289e+004,-1.24582846288792e+001,-4.42404077831523e-002

1.33792755478611e+004,-1.24582847198590e+001,-4.48579757206318e-002

1.35660432744767e+004,-1.24582848133961e+001,-4.54841643678338e-002

1.37554181813974e+004,-1.24582849095624e+001,-4.61190940559927e-002

1.39474366635040e+004,-1.24582850084321e+001,-4.67628867938162e-002

1.41421356237309e+004,-1.24582851100807e+001,-4.74156662974358e-002

1.43395524801583e+004,-1.24582852145870e+001,-4.80775580028921e-002

1.45397251732031e+004,-1.24582853220307e+001,-4.87486891052361e-002

1.47426921729110e+004,-1.24582854324945e+001,-4.94291885683601e-002

1.49484924863494e+004,-1.24582855460631e+001,-5.01191871591781e-002

1.51571656651040e+004,-1.24582856628240e+001,-5.08188174663639e-002

1.53687518128801e+004,-1.24582857828671e+001,-5.15282139302119e-002

1.55832915932100e+004,-1.24582859062844e+001,-5.22475128692913e-002

1.58008262372675e+004,-1.24582860331706e+001,-5.29768525035686e-002

1.60213975517924e+004,-1.24582861636234e+001,-5.37163729796900e-002

1.62450479271247e+004,-1.24582862977431e+001,-5.44662164010004e-002

1.64718203453514e+004,-1.24582864356322e+001,-5.52265268582037e-002

1.67017583885674e+004,-1.24582865773975e+001,-5.59974504442991e-002

1.69349062472505e+004,-1.24582867231473e+001,-5.67791352984350e-002

1.71713087287550e+004,-1.24582868729936e+001,-5.75717316249182e-002

1.74110112659224e+004,-1.24582870270518e+001,-5.83753917211199e-002

1.76540599258131e+004,-1.24582871854398e+001,-5.91902700156428e-002

1.79005014185594e+004,-1.24582873482799e+001,-6.00165230838164e-002

1.81503831063432e+004,-1.24582875156967e+001,-6.08543096928837e-002

1.84037530124975e+004,-1.24582876878189e+001,-6.17037908224429e-002

1.86606598307361e+004,-1.24582878647788e+001,-6.25651296990456e-002

1.89211529345119e+004,-1.24582880467123e+001,-6.34384918265391e-002

1.91852823865052e+004,-1.24582882337594e+001,-6.43240450161123e-002

1.94530989482457e+004,-1.24582884260632e+001,-6.52219594257333e-002

1.97246540898671e+004,-1.24582886237718e+001,-6.61324075826045e-002

1.99999999999999e+004,-1.24582888270371e+001,-6.70555644217577e-002

2.02791895958005e+004,-1.24582890360150e+001,-6.79916073219136e-002

2.05622765331213e+004,-1.24582892508663e+001,-6.89407161335793e-002

2.08493152168224e+004,-1.24582894717554e+001,-6.99030732202335e-002

2.11403608112276e+004,-1.24582896988527e+001,-7.08788634839019e-002

2.14354692507258e+004,-1.24582899323321e+001,-7.18682744119393e-002

2.17346972505211e+004,-1.24582901723729e+001,-7.28714961051412e-002

2.20381023175322e+004,-1.24582904191598e+001,-7.38887213146419e-002

2.23457427614443e+004,-1.24582906728819e+001,-7.49201454844747e-002

2.26576777059159e+004,-1.24582909337342e+001,-7.59659667829614e-002

2.29739670999406e+004,-1.24582912019171e+001,-7.70263861424259e-002

2.32946717293690e+004,-1.24582914776362e+001,-7.81016073011336e-002

2.36198532285905e+004,-1.24582917611035e+001,-7.91918368357292e-002

2.39495740923785e+004,-1.24582920525365e+001,-8.02972842072095e-002

2.42838976879009e+004,-1.24582923521590e+001,-8.14181617971379e-002

2.46228882668982e+004,-1.24582926602008e+001,-8.25546849516195e-002

2.49666109780322e+004,-1.24582929768986e+001,-8.37070720187610e-002

2.53151318794055e+004,-1.24582933024957e+001,-8.48755443906018e-002

2.56685179512580e+004,-1.24582936372414e+001,-8.60603265530583e-002

2.60268371088386e+004,-1.24582939813932e+001,-8.72616461170672e-002

2.63901582154578e+004,-1.24582943352150e+001,-8.84797338723758e-002

2.67585510957221e+004,-1.24582946989785e+001,-8.97148238243936e-002

2.71320865489533e+004,-1.24582950729629e+001,-9.09671532440197e-002

2.75108363627948e+004,-1.24582954574548e+001,-9.22369627140686e-002

2.78948733270080e+004,-1.24582958527500e+001,-9.35244961651117e-002

2.82842712474618e+004,-1.24582962591510e+001,-9.48300009386246e-002

2.86791049603164e+004,-1.24582966769700e+001,-9.61537278196177e-002

2.90794503464061e+004,-1.24582971065279e+001,-9.74959310892212e-002

2.94853843458219e+004,-1.24582975481537e+001,-9.88568685810757e-002

2.98969849726987e+004,-1.24582980021866e+001,-1.00236801717332e-001

3.03143313302078e+004,-1.24582984689747e+001,-1.01635995569691e-001

3.07375036257601e+004,-1.24582989488761e+001,-1.03054718904260e-001

3.11665831864199e+004,-1.24582994422590e+001,-1.04493244234036e-001

3.16016524745350e+004,-1.24582999495017e+001,-1.05951847873915e-001

3.20427951035848e+004,-1.24583004709934e+001,-1.07430809987530e-001

3.24900958542493e+004,-1.24583010071338e+001,-1.08930414649244e-001

3.29436406907028e+004,-1.24583015583342e+001,-1.10450949889331e-001

3.34035167771346e+004,-1.24583021250173e+001,-1.11992707755123e-001

3.38698124945009e+004,-1.24583027076174e+001,-1.13555984367110e-001

3.43426174575100e+004,-1.24583033065812e+001,-1.15141079970553e-001

3.48220225318448e+004,-1.24583039223680e+001,-1.16748298998011e-001

3.53081198516260e+004,-1.24583045554498e+001,-1.18377950123575e-001

3.58010028371187e+004,-1.24583052063117e+001,-1.20030346325890e-001

3.63007662126863e+004,-1.24583058754526e+001,-1.21705804944218e-001

3.68075060249948e+004,-1.24583065633855e+001,-1.23404647739062e-001

3.73213196614721e+004,-1.24583072706373e+001,-1.25127200959462e-001

3.78423058690237e+004,-1.24583079977499e+001,-1.26873795396429e-001

3.83705647730104e+004,-1.24583087452807e+001,-1.28644766452010e-001

3.89061978964912e+004,-1.24583095138021e+001,-1.30440454202406e-001

3.94493081797342e+004,-1.24583103039028e+001,-1.32261203462771e-001

3.99999999999998e+004,-1.24583111161879e+001,-1.34107363850618e-001

4.05583791916010e+004,-1.24583119512798e+001,-1.35979289854919e-001

4.11245530662425e+004,-1.24583128098176e+001,-1.37877340904495e-001

4.16986304336447e+004,-1.24583136924589e+001,-1.39801881432848e-001

4.22807216224550e+004,-1.24583145998793e+001,-1.41753280952265e-001

4.28709385014515e+004,-1.24583155327734e+001,-1.43731914120331e-001

4.34693945010421e+004,-1.24583164918553e+001,-1.45738160813081e-001

4.40762046350642e+004,-1.24583174778591e+001,-1.47772406196875e-001

4.46914855228886e+004,-1.24583184915392e+001,-1.49835040802973e-001

4.53153554118317e+004,-1.24583195336712e+001,-1.51926460599678e-001

4.59479341998812e+004,-1.24583206050524e+001,-1.54047067068259e-001

4.65893434587380e+004,-1.24583217065021e+001,-1.56197267283745e-001

4.72397064571810e+004,-1.24583228388629e+001,-1.58377473982499e-001

4.78991481847569e+004,-1.24583240030007e+001,-1.60588105651763e-001

4.85677953758016e+004,-1.24583251998054e+001,-1.62829586601789e-001

4.92457765337964e+004,-1.24583264301921e+001,-1.65102347048488e-001

4.99332219560642e+004,-1.24583276951009e+001,-1.67406823198335e-001

5.06302637588109e+004,-1.24583289954989e+001,-1.69743457323608e-001

5.13370359025159e+004,-1.24583303323792e+001,-1.72112697856034e-001

5.20536742176771e+004,-1.24583317067637e+001,-1.74514999462265e-001

5.27803164309155e+004,-1.24583331197017e+001,-1.76950823138320e-001

5.35171021914442e+004,-1.24583345722723e+001,-1.79420636292609e-001

5.42641730979066e+004,-1.24583360655846e+001,-1.81924912834614e-001

5.50216727255895e+004,-1.24583376007788e+001,-1.84464133264371e-001

5.57897466540159e+004,-1.24583391790262e+001,-1.87038784767984e-001

5.65685424949235e+004,-1.24583408015315e+001,-1.89649361302886e-001

5.73582099206328e+004,-1.24583424695323e+001,-1.92296363696964e-001

5.81589006928121e+004,-1.24583441843009e+001,-1.94980299740594e-001

5.89707686916437e+004,-1.24583459471450e+001,-1.97701684282721e-001

5.97939699453972e+004,-1.24583477594086e+001,-2.00461039329510e-001

6.06286626604156e+004,-1.24583496224730e+001,-2.03258894141219e-001

6.14750072515201e+004,-1.24583515377581e+001,-2.06095785334029e-001

6.23331663728396e+004,-1.24583535067227e+001,-2.08972256980756e-001

6.32033049490698e+004,-1.24583555308670e+001,-2.11888860710037e-001

6.40855902071694e+004,-1.24583576117320e+001,-2.14846155817212e-001

6.49801917084985e+004,-1.24583597509019e+001,-2.17844709362491e-001

6.58872813814055e+004,-1.24583619500045e+001,-2.20885096284567e-001

6.68070335542691e+004,-1.24583642107132e+001,-2.23967899502410e-001

6.77396249890018e+004,-1.24583665347474e+001,-2.27093710029113e-001

6.86852349150199e+004,-1.24583689238742e+001,-2.30263127081667e-001

6.96440450636895e+004,-1.24583713799098e+001,-2.33476758193502e-001

7.06162397032520e+004,-1.24583739047205e+001,-2.36735219328173e-001

7.16020056742374e+004,-1.24583765002242e+001,-2.40039134996611e-001

7.26015324253724e+004,-1.24583791683921e+001,-2.43389138371745e-001

7.36150120499896e+004,-1.24583819112496e+001,-2.46785871410335e-001

7.46426393229441e+004,-1.24583847308782e+001,-2.50229984968751e-001

7.56846117380472e+004,-1.24583876294166e+001,-2.53722138930335e-001

7.67411295460207e+004,-1.24583906090631e+001,-2.57263002322668e-001

7.78123957929823e+004,-1.24583936720764e+001,-2.60853253447185e-001

7.88986163594682e+004,-1.24583968207769e+001,-2.64493580005719e-001

7.99999999999995e+004,-1.24584000575499e+001,-2.68184679224947e-001

8.11167583832018e+004,-1.24584033848456e+001,-2.71927257989820e-001

8.22491061324848e+004,-1.24584068051822e+001,-2.75722032974243e-001

8.33972608672892e+004,-1.24584103211466e+001,-2.79569730774910e-001

8.45614432449099e+004,-1.24584139353974e+001,-2.83471088044380e-001

8.57418770029029e+004,-1.24584176506658e+001,-2.87426851631388e-001

8.69387890020841e+004,-1.24584214697584e+001,-2.91437778714294e-001

8.81524092701283e+004,-1.24584253955582e+001,-2.95504636948341e-001

8.93829710457770e+004,-1.24584294310277e+001,-2.99628204601852e-001

9.06307108236633e+004,-1.24584335792107e+001,-3.03809270701360e-001

9.18958683997622e+004,-1.24584378432335e+001,-3.08048635181764e-001

9.31786869174758e+004,-1.24584422263090e+001,-3.12347109027648e-001

9.44794129143618e+004,-1.24584467317374e+001,-3.16705514426366e-001

9.57982963695136e+004,-1.24584513629087e+001,-3.21124684921199e-001

9.71355907516031e+004,-1.24584561233058e+001,-3.25605465560693e-001

9.84915530675926e+004,-1.24584610165068e+001,-3.30148713055633e-001

9.98664439121282e+004,-1.24584660461868e+001,-3.34755295937104e-001

1.01260527517622e+005,-1.24584712161210e+001,-3.39426094715669e-001

1.02674071805032e+005,-1.24584765301876e+001,-3.44162002040075e-001

1.04107348435354e+005,-1.24584819923697e+001,-3.48963922864200e-001

1.05560632861831e+005,-1.24584876067588e+001,-3.53832774609380e-001

1.07034204382888e+005,-1.24584933775572e+001,-3.58769487333631e-001

1.08528346195813e+005,-1.24584993090810e+001,-3.63775003898803e-001

1.10043345451179e+005,-1.24585054057633e+001,-3.68850280143913e-001

1.11579493308032e+005,-1.24585116721566e+001,-3.73996285058297e-001

1.13137084989847e+005,-1.24585181129365e+001,-3.79214000956767e-001

1.14716419841265e+005,-1.24585247329046e+001,-3.84504423656793e-001

1.16317801385624e+005,-1.24585315369921e+001,-3.89868562659399e-001

1.17941537383287e+005,-1.24585385302623e+001,-3.95307441331322e-001

1.19587939890794e+005,-1.24585457179148e+001,-4.00822097089667e-001

1.21257325320831e+005,-1.24585531052887e+001,-4.06413581584995e-001

1.22950014503040e+005,-1.24585606978661e+001,-4.12082960895487e-001

1.24666332745679e+005,-1.24585685012756e+001,-4.17831315711899e-001

1.26406609898139e+005,-1.24585765212963e+001,-4.23659741536840e-001

1.28171180414339e+005,-1.24585847638615e+001,-4.29569348874490e-001

1.29960383416997e+005,-1.24585932350621e+001,-4.35561263432715e-001

1.31774562762811e+005,-1.24586019411516e+001,-4.41636626319226e-001

1.33614067108538e+005,-1.24586108885491e+001,-4.47796594247158e-001

1.35479249978003e+005,-1.24586200838437e+001,-4.54042339737883e-001

1.37370469830040e+005,-1.24586295337992e+001,-4.60375051328412e-001

1.39288090127379e+005,-1.24586392453577e+001,-4.66795933780495e-001

1.41232479406504e+005,-1.24586492256445e+001,-4.73306208292928e-001

1.43204011348474e+005,-1.24586594819721e+001,-4.79907112714810e-001

1.45203064850745e+005,-1.24586700218454e+001,-4.86599901761895e-001

1.47230024099979e+005,-1.24586808529657e+001,-4.93385847235740e-001

1.49285278645888e+005,-1.24586919832357e+001,-5.00266238245864e-001

1.51369223476094e+005,-1.24587034207645e+001,-5.07242381431741e-001

1.53482259092041e+005,-1.24587151738721e+001,-5.14315601190242e-001

1.55624791585964e+005,-1.24587272510950e+001,-5.21487239902621e-001

1.57797232718936e+005,-1.24587396611906e+001,-5.28758658166977e-001

1.59999999999999e+005,-1.24587524131430e+001,-5.36131235031557e-001

1.62233516766403e+005,-1.24587655161678e+001,-5.43606368229413e-001

1.64498212264969e+005,-1.24587789797178e+001,-5.51185474418375e-001

1.66794521734578e+005,-1.24587928134884e+001,-5.58869989420220e-001

1.69122886489819e+005,-1.24588070274230e+001,-5.66661368465802e-001

1.71483754005805e+005,-1.24588216317185e+001,-5.74561086439637e-001

1.73877578004168e+005,-1.24588366368315e+001,-5.82570638128944e-001

1.76304818540256e+005,-1.24588520534839e+001,-5.90691538473266e-001

1.78765942091554e+005,-1.24588678926685e+001,-5.98925322818528e-001

1.81261421647326e+005,-1.24588841656550e+001,-6.07273547174741e-001

1.83791736799524e+005,-1.24589008839967e+001,-6.15737788470799e-001

1.86357373834951e+005,-1.24589180595358e+001,-6.24319644817090e-001

1.88958825828723e+005,-1.24589357044100e+001,-6.33020735769827e-001

1.91596592739027e+005,-1.24589538310587e+001,-6.41842702595944e-001

1.94271181503206e+005,-1.24589724522293e+001,-6.50787208540168e-001

1.96983106135185e+005,-1.24589915809838e+001,-6.59855939097867e-001

1.99732887824256e+005,-1.24590112307051e+001,-6.69050602287568e-001

2.02521055035243e+005,-1.24590314151033e+001,-6.78372928926870e-001

2.05348143610063e+005,-1.24590521482225e+001,-6.87824672911508e-001

2.08214696870707e+005,-1.24590734444478e+001,-6.97407611494916e-001

2.11121265723661e+005,-1.24590953185111e+001,-7.07123545571624e-001

2.14068408765776e+005,-1.24591177854986e+001,-7.16974299965135e-001

2.17056692391625e+005,-1.24591408608571e+001,-7.26961723713382e-001

2.20086690902357e+005,-1.24591645604005e+001,-7.37087690362089e-001

2.23158986616063e+005,-1.24591889003175e+001,-7.47354098256110e-001

2.26274169979693e+005,-1.24592138971775e+001,-7.57762870834901e-001

2.29432839682530e+005,-1.24592395679372e+001,-7.68315956934063e-001

2.32635602771247e+005,-1.24592659299487e+001,-7.79015331081034e-001

2.35883074766574e+005,-1.24592930009643e+001,-7.89862993802293e-001

2.39175879781588e+005,-1.24593207991451e+001,-8.00860971925495e-001

2.42514650641661e+005,-1.24593493430661e+001,-8.12011318890559e-001

2.45900029006080e+005,-1.24593786517239e+001,-8.23316115057468e-001

2.49332665491357e+005,-1.24594087445428e+001,-8.34777468019698e-001

2.52813219796278e+005,-1.24594396413808e+001,-8.46397512921577e-001

2.56342360828676e+005,-1.24594713625371e+001,-8.58178412771135e-001

2.59920766833993e+005,-1.24595039287571e+001,-8.70122358765405e-001

2.63549125525621e+005,-1.24595373612394e+001,-8.82231570608508e-001

2.67228134217075e+005,-1.24595716816413e+001,-8.94508296839774e-001

2.70958499956006e+005,-1.24596069120850e+001,-9.06954815157908e-001

2.74740939660078e+005,-1.24596430751627e+001,-9.19573432753435e-001

2.78576180254757e+005,-1.24596801939426e+001,-9.32366486638763e-001

2.82464958813007e+005,-1.24597182919734e+001,-9.45336343984208e-001

2.86408022696948e+005,-1.24597573932901e+001,-9.58485402453485e-001

2.90406129701488e+005,-1.24597975224181e+001,-9.71816090544509e-001

2.94460048199957e+005,-1.24598387043778e+001,-9.85330867929799e-001

2.98570557291775e+005,-1.24598809646887e+001,-9.99032225802686e-001

3.02738446952187e+005,-1.24599243293728e+001,-1.01292268722246e+000

3.06964518184081e+005,-1.24599688249584e+001,-1.02700480746633e+000

3.11249583171928e+005,-1.24600144784829e+001,-1.04128117437868e+000

3.15594465437872e+005,-1.24600613174951e+001,-1.05575440872803e+000

3.19999999999997e+005,-1.24601093700577e+001,-1.07042716456368e+000

3.24467033532806e+005,-1.24601586647483e+001,-1.08530212957660e+000

3.28996424529938e+005,-1.24602092306605e+001,-1.10038202546240e+000

3.33589043469155e+005,-1.24602610974050e+001,-1.11566960828687e+000

3.38245772979638e+005,-1.24603142951084e+001,-1.13116766885643e+000

3.42967508011610e+005,-1.24603688544133e+001,-1.14687903308823e+000

3.47755156008335e+005,-1.24604248064758e+001,-1.16280656238848e+000

3.52609637080511e+005,-1.24604821829644e+001,-1.17895315402819e+000

3.57531884183106e+005,-1.24605410160560e+001,-1.19532174152768e+000

3.62522843294651e+005,-1.24606013384325e+001,-1.21191529504136e+000

3.67583473599047e+005,-1.24606631832760e+001,-1.22873682174742e+000

3.72714747669902e+005,-1.24607265842629e+001,-1.24578936624152e+000

3.77917651657445e+005,-1.24607915755580e+001,-1.26307601093386e+000

3.83193185478053e+005,-1.24608581918061e+001,-1.28059987645192e+000

3.88542363006410e+005,-1.24609264681236e+001,-1.29836412204674e+000

3.93966212270369e+005,-1.24609964400890e+001,-1.31637194600314e+000

3.99465775648511e+005,-1.24610681437313e+001,-1.33462658605831e+000

4.05042110070485e+005,-1.24611416155184e+001,-1.35313131981986e+000

4.10696287220124e+005,-1.24612168923432e+001,-1.37188946519755e+000

4.16429393741414e+005,-1.24612940115090e+001,-1.39090438083156e+000

4.22242531447321e+005,-1.24613730107131e+001,-1.41017946653648e+000

4.28136817531551e+005,-1.24614539280292e+001,-1.42971816374408e+000

4.34113384783250e+005,-1.24615368018882e+001,-1.44952395595874e+000

4.40173381804713e+005,-1.24616216710575e+001,-1.46960036921594e+000

4.46317973232124e+005,-1.24617085746183e+001,-1.48995097255333e+000

4.52548339959385e+005,-1.24617975519419e+001,-1.51057937848587e+000

4.58865679365059e+005,-1.24618886426634e+001,-1.53148924349275e+000

4.65271205542494e+005,-1.24619818866545e+001,-1.55268426851231e+000

4.71766149533147e+005,-1.24620773239936e+001,-1.57416819944866e+000

4.78351759563174e+005,-1.24621749949348e+001,-1.59594482768698e+000

4.85029301283321e+005,-1.24622749398739e+001,-1.61801799062056e+000

4.91800058012158e+005,-1.24623771993132e+001,-1.64039157219308e+000

4.98665330982714e+005,-1.24624818138243e+001,-1.66306950344757e+000

5.05626439592555e+005,-1.24625888240080e+001,-1.68605576309407e+000

5.12684721657352e+005,-1.24626982704526e+001,-1.70935437809066e+000

5.19841533667984e+005,-1.24628101936898e+001,-1.73296942423637e+000

5.27098251051240e+005,-1.24629246341485e+001,-1.75690502678437e+000

5.34456268434150e+005,-1.24630416321062e+001,-1.78116536106900e+000

5.41916999912011e+005,-1.24631612276379e+001,-1.80575465315238e+000

