Freq.,VOut,OutRef

1.00000000000000e+004,-1.93884030231974e+001,-1.23572837913302e-001

1.01395947979003e+004,-1.93884033062904e+001,-1.25297843625020e-001

1.02811382665607e+004,-1.93884035973418e+001,-1.27046929230343e-001

1.04246576084112e+004,-1.93884038965755e+001,-1.28820430857809e-001

1.05701804056138e+004,-1.93884042042213e+001,-1.30618689331293e-001

1.07177346253629e+004,-1.93884045205158e+001,-1.32442050229343e-001

1.08673486252606e+004,-1.93884048457022e+001,-1.34290863954638e-001

1.10190511587661e+004,-1.93884051800302e+001,-1.36165485802021e-001

1.11728713807222e+004,-1.93884055237571e+001,-1.38066276022732e-001

1.13288388529580e+004,-1.93884058771470e+001,-1.39993599898412e-001

1.14869835499703e+004,-1.93884062404715e+001,-1.41947827809075e-001

1.16473358646846e+004,-1.93884066140098e+001,-1.43929335303415e-001

1.18099266142953e+004,-1.93884069980491e+001,-1.45938503172843e-001

1.19747870461893e+004,-1.93884073928847e+001,-1.47975717522316e-001

1.21419488439505e+004,-1.93884077988198e+001,-1.50041369848040e-001

1.23114441334492e+004,-1.93884082161667e+001,-1.52135857107686e-001

1.24833054890161e+004,-1.93884086452461e+001,-1.54259581801415e-001

1.26575659397028e+004,-1.93884090863877e+001,-1.56412952047204e-001

1.28342589756290e+004,-1.93884095399307e+001,-1.58596381656909e-001

1.30134185544193e+004,-1.93884100062236e+001,-1.60810290221513e-001

1.31950791077289e+004,-1.93884104856248e+001,-1.63055103186009e-001

1.33792755478611e+004,-1.93884109785028e+001,-1.65331251933384e-001

1.35660432744767e+004,-1.93884114852366e+001,-1.67639173866664e-001

1.37554181813974e+004,-1.93884120062154e+001,-1.69979312496636e-001

1.39474366635040e+004,-1.93884125418397e+001,-1.72352117521828e-001

1.41421356237309e+004,-1.93884130925212e+001,-1.74758044917040e-001

1.43395524801583e+004,-1.93884136586833e+001,-1.77197557020184e-001

1.45397251732031e+004,-1.93884142407610e+001,-1.79671122624348e-001

1.47426921729110e+004,-1.93884148392016e+001,-1.82179217064108e-001

1.49484924863494e+004,-1.93884154544650e+001,-1.84722322307707e-001

1.51571656651040e+004,-1.93884160870245e+001,-1.87300927048193e-001

1.53687518128801e+004,-1.93884167373657e+001,-1.89915526803336e-001

1.55832915932100e+004,-1.93884174059887e+001,-1.92566624001966e-001

1.58008262372675e+004,-1.93884180934074e+001,-1.95254728086382e-001

1.60213975517924e+004,-1.93884188001499e+001,-1.97980355610787e-001

1.62450479271247e+004,-1.93884195267597e+001,-2.00744030333750e-001

1.64718203453514e+004,-1.93884202737949e+001,-2.03546283327563e-001

1.67017583885674e+004,-1.93884210418298e+001,-2.06387653073902e-001

1.69349062472505e+004,-1.93884218314544e+001,-2.09268685569791e-001

1.71713087287550e+004,-1.93884226432758e+001,-2.12189934431082e-001

1.74110112659224e+004,-1.93884234779178e+001,-2.15151961000582e-001

1.76540599258131e+004,-1.93884243360217e+001,-2.18155334453608e-001

1.79005014185594e+004,-1.93884252182471e+001,-2.21200631909196e-001

1.81503831063432e+004,-1.93884261252718e+001,-2.24288438540448e-001

1.84037530124975e+004,-1.93884270577930e+001,-2.27419347683764e-001

1.86606598307361e+004,-1.93884280165272e+001,-2.30593960958966e-001

1.89211529345119e+004,-1.93884290022111e+001,-2.33812888379243e-001

1.91852823865052e+004,-1.93884300156021e+001,-2.37076748470627e-001

1.94530989482457e+004,-1.93884310574791e+001,-2.40386168388793e-001

1.97246540898671e+004,-1.93884321286425e+001,-2.43741784042710e-001

1.99999999999999e+004,-1.93884332299155e+001,-2.47144240213807e-001

2.02791895958005e+004,-1.93884343621444e+001,-2.50594190680672e-001

2.05622765331213e+004,-1.93884355261989e+001,-2.54092298345843e-001

2.08493152168224e+004,-1.93884367229737e+001,-2.57639235358837e-001

2.11403608112276e+004,-1.93884379533882e+001,-2.61235683250462e-001

2.14354692507258e+004,-1.93884392183880e+001,-2.64882333059066e-001

2.17346972505211e+004,-1.93884405189448e+001,-2.68579885466787e-001

2.20381023175322e+004,-1.93884418560580e+001,-2.72329050930655e-001

2.23457427614443e+004,-1.93884432307549e+001,-2.76130549821485e-001

2.26576777059159e+004,-1.93884446440916e+001,-2.79985112560452e-001

2.29739670999406e+004,-1.93884460971541e+001,-2.83893479759565e-001

2.32946717293690e+004,-1.93884475910586e+001,-2.87856402364885e-001

2.36198532285905e+004,-1.93884491269529e+001,-2.91874641797113e-001

2.39495740923785e+004,-1.93884507060169e+001,-2.95948970101694e-001

2.42838976879009e+004,-1.93884523294639e+001,-3.00080170094470e-001

2.46228882668982e+004,-1.93884539985408e+001,-3.04269035514311e-001

2.49666109780322e+004,-1.93884557145298e+001,-3.08516371170625e-001

2.53151318794055e+004,-1.93884574787492e+001,-3.12822993101414e-001

2.56685179512580e+004,-1.93884592925541e+001,-3.17189728729574e-001

2.60268371088386e+004,-1.93884611573380e+001,-3.21617417019008e-001

2.63901582154578e+004,-1.93884630745332e+001,-3.26106908637572e-001

2.67585510957221e+004,-1.93884650456122e+001,-3.30659066121177e-001

2.71320865489533e+004,-1.93884670720891e+001,-3.35274764035287e-001

2.75108363627948e+004,-1.93884691555204e+001,-3.39954889145222e-001

2.78948733270080e+004,-1.93884712975062e+001,-3.44700340586199e-001

2.82842712474618e+004,-1.93884734996919e+001,-3.49512030034039e-001

2.86791049603164e+004,-1.93884757637685e+001,-3.54390881881768e-001

2.90794503464061e+004,-1.93884780914750e+001,-3.59337833414542e-001

2.94853843458219e+004,-1.93884804845988e+001,-3.64353834991249e-001

2.98969849726987e+004,-1.93884829449780e+001,-3.69439850224013e-001

3.03143313302078e+004,-1.93884854745020e+001,-3.74596856164823e-001

3.07375036257601e+004,-1.93884880751129e+001,-3.79825843493502e-001

3.11665831864199e+004,-1.93884907488080e+001,-3.85127816703614e-001

3.16016524745350e+004,-1.93884934976402e+001,-3.90503794298566e-001

3.20427951035848e+004,-1.93884963237201e+001,-3.95954808984244e-001

3.24900958542493e+004,-1.93884992292175e+001,-4.01481907868180e-001

3.29436406907028e+004,-1.93885022163634e+001,-4.07086152658237e-001

3.34035167771346e+004,-1.93885052874511e+001,-4.12768619867057e-001

3.38698124945009e+004,-1.93885084448383e+001,-4.18530401018593e-001

3.43426174575100e+004,-1.93885116909489e+001,-4.24372602855053e-001

3.48220225318448e+004,-1.93885150282749e+001,-4.30296347549502e-001

3.53081198516260e+004,-1.93885184593780e+001,-4.36302772921680e-001

3.58010028371187e+004,-1.93885219868919e+001,-4.42393032654066e-001

3.63007662126863e+004,-1.93885256135245e+001,-4.48568296510741e-001

3.68075060249948e+004,-1.93885293420590e+001,-4.54829750566748e-001

3.73213196614721e+004,-1.93885331753572e+001,-4.61178597428684e-001

3.78423058690237e+004,-1.93885371163608e+001,-4.67616056468818e-001

3.83705647730104e+004,-1.93885411680946e+001,-4.74143364053416e-001

3.89061978964912e+004,-1.93885453336676e+001,-4.80761773785307e-001

3.94493081797342e+004,-1.93885496162763e+001,-4.87472556737427e-001

3.99999999999998e+004,-1.93885540192067e+001,-4.94277001699734e-001

4.05583791916010e+004,-1.93885585458371e+001,-5.01176415422571e-001

4.11245530662425e+004,-1.93885631996404e+001,-5.08172122867680e-001

4.16986304336447e+004,-1.93885679841869e+001,-5.15265467460585e-001

4.22807216224550e+004,-1.93885729031471e+001,-5.22457811347143e-001

4.28709385014515e+004,-1.93885779602941e+001,-5.29750535653639e-001

4.34693945010421e+004,-1.93885831595071e+001,-5.37145040749249e-001

4.40762046350642e+004,-1.93885885047738e+001,-5.44642746514366e-001

4.46914855228886e+004,-1.93885940001936e+001,-5.52245092611982e-001

4.53153554118317e+004,-1.93885996499811e+001,-5.59953538759184e-001

4.59479341998812e+004,-1.93886054584688e+001,-5.67769565008418e-001

4.65893434587380e+004,-1.93886114301104e+001,-5.75694672028553e-001

4.72397064571810e+004,-1.93886175694845e+001,-5.83730381390867e-001

4.78991481847569e+004,-1.93886238812982e+001,-5.91878235857792e-001

4.85677953758016e+004,-1.93886303703900e+001,-6.00139799678568e-001

4.92457765337964e+004,-1.93886370417343e+001,-6.08516658885316e-001

4.99332219560642e+004,-1.93886439004445e+001,-6.17010421596875e-001

5.06302637588109e+004,-1.93886509517774e+001,-6.25622718321572e-001

5.13370359025159e+004,-1.93886582011368e+001,-6.34355202272317e-001

5.20536742176771e+004,-1.93886656540778e+001,-6.43209549675149e-001

5.27803164309155e+004,-1.93886733163110e+001,-6.52187460093435e-001

5.35171021914442e+004,-1.93886811937071e+001,-6.61290656746220e-001

5.42641730979066e+004,-1.93886892923004e+001,-6.70520886839367e-001

5.50216727255895e+004,-1.93886976182947e+001,-6.79879921894828e-001

5.57897466540159e+004,-1.93887061780670e+001,-6.89369558089317e-001

5.65685424949235e+004,-1.93887149781728e+001,-6.98991616591954e-001

5.73582099206328e+004,-1.93887240253509e+001,-7.08747943913433e-001

5.81589006928121e+004,-1.93887333265286e+001,-7.18640412253753e-001

5.89707686916437e+004,-1.93887428888266e+001,-7.28670919859352e-001

5.97939699453972e+004,-1.93887527195651e+001,-7.38841391380207e-001

6.06286626604156e+004,-1.93887628262685e+001,-7.49153778237029e-001

6.14750072515201e+004,-1.93887732166717e+001,-7.59610058988932e-001

6.23331663728396e+004,-1.93887838987256e+001,-7.70212239709718e-001

6.32033049490698e+004,-1.93887948806035e+001,-7.80962354365679e-001

6.40855902071694e+004,-1.93888061707063e+001,-7.91862465202646e-001

6.49801917084985e+004,-1.93888177776704e+001,-8.02914663133225e-001

6.58872813814055e+004,-1.93888297103726e+001,-8.14121068134052e-001

6.68070335542691e+004,-1.93888419779379e+001,-8.25483829644883e-001

6.77396249890018e+004,-1.93888545897459e+001,-8.37005126974958e-001

6.86852349150199e+004,-1.93888675554376e+001,-8.48687169716251e-001

6.96440450636895e+004,-1.93888808849236e+001,-8.60532198155005e-001

7.06162397032520e+004,-1.93888945883903e+001,-8.72542483700036e-001

7.16020056742374e+004,-1.93889086763084e+001,-8.84720329307076e-001

7.26015324253724e+004,-1.93889231594407e+001,-8.97068069912884e-001

7.36150120499896e+004,-1.93889380488497e+001,-9.09588072876535e-001

7.46426393229441e+004,-1.93889533559062e+001,-9.22282738422365e-001

7.56846117380472e+004,-1.93889690922978e+001,-9.35154500093051e-001

7.67411295460207e+004,-1.93889852700379e+001,-9.48205825204603e-001

7.78123957929823e+004,-1.93890019014740e+001,-9.61439215312700e-001

7.88986163594682e+004,-1.93890189992974e+001,-9.74857206679630e-001

7.99999999999995e+004,-1.93890365765528e+001,-9.88462370750366e-001

8.11167583832018e+004,-1.93890546466477e+001,-1.00225731463494e+000

8.22491061324848e+004,-1.93890732233624e+001,-1.01624468159616e+000

8.33972608672892e+004,-1.93890923208605e+001,-1.03042715154467e+000

8.45614432449099e+004,-1.93891119536992e+001,-1.04480744153945e+000

8.57418770029029e+004,-1.93891321368402e+001,-1.05938830629577e+000

8.69387890020841e+004,-1.93891528856608e+001,-1.07417253869994e+000

8.81524092701283e+004,-1.93891742159653e+001,-1.08916297032926e+000

8.93829710457770e+004,-1.93891961439969e+001,-1.10436247198035e+000

9.06307108236633e+004,-1.93892186864492e+001,-1.11977395420370e+000

9.18958683997622e+004,-1.93892418604792e+001,-1.13540036784570e+000

9.31786869174758e+004,-1.93892656837192e+001,-1.15124470459670e+000

9.44794129143618e+004,-1.93892901742908e+001,-1.16730999754608e+000

9.57982963695136e+004,-1.93893153508171e+001,-1.18359932174662e+000

9.71355907516031e+004,-1.93893412324374e+001,-1.20011579478293e+000

9.84915530675926e+004,-1.93893678388207e+001,-1.21686257735005e+000

9.98664439121282e+004,-1.93893951901800e+001,-1.23384287383805e+000

1.01260527517622e+005,-1.93894233072879e+001,-1.25105993292273e+000

1.02674071805032e+005,-1.93894522114910e+001,-1.26851704816711e+000

1.04107348435354e+005,-1.93894819247257e+001,-1.28621755862849e+000

1.05560632861831e+005,-1.93895124695342e+001,-1.30416484947355e+000

1.07034204382888e+005,-1.93895438690816e+001,-1.32236235259970e+000

1.08528346195813e+005,-1.93895761471715e+001,-1.34081354726799e+000

1.10043345451179e+005,-1.93896093282642e+001,-1.35952196074065e+000

1.11579493308032e+005,-1.93896434374944e+001,-1.37849116892683e+000

1.13137084989847e+005,-1.93896785006889e+001,-1.39772479703957e+000

1.14716419841265e+005,-1.93897145443857e+001,-1.41722652025638e+000

1.16317801385624e+005,-1.93897515958530e+001,-1.43700006439078e+000

1.17941537383287e+005,-1.93897896831088e+001,-1.45704920657340e+000

1.19587939890794e+005,-1.93898288349412e+001,-1.47737777593704e+000

1.21257325320831e+005,-1.93898690809289e+001,-1.49798965431502e+000

1.22950014503040e+005,-1.93899104514624e+001,-1.51888877694500e+000

1.24666332745679e+005,-1.93899529777659e+001,-1.54007913318135e+000

1.26406609898139e+005,-1.93899966919192e+001,-1.56156476721921e+000

1.28171180414339e+005,-1.93900416268809e+001,-1.58334977882388e+000

1.29960383416997e+005,-1.93900878165117e+001,-1.60543832407024e+000

1.31774562762811e+005,-1.93901352955982e+001,-1.62783461609131e+000

1.33614067108538e+005,-1.93901840998779e+001,-1.65054292583589e+000

1.35479249978003e+005,-1.93902342660640e+001,-1.67356758283491e+000

1.37370469830040e+005,-1.93902858318713e+001,-1.69691297597638e+000

1.39288090127379e+005,-1.93903388360429e+001,-1.72058355429044e+000

1.41232479406504e+005,-1.93903933183771e+001,-1.74458382774263e+000

1.43204011348474e+005,-1.93904493197553e+001,-1.76891836803835e+000

1.45203064850745e+005,-1.93905068821704e+001,-1.79359180943285e+000

1.47230024099979e+005,-1.93905660487559e+001,-1.81860884955609e+000

1.49285278645888e+005,-1.93906268638159e+001,-1.84397425024064e+000

1.51369223476094e+005,-1.93906893728555e+001,-1.86969283836592e+000

1.53482259092041e+005,-1.93907536226123e+001,-1.89576950670613e+000

1.55624791585964e+005,-1.93908196610883e+001,-1.92220921479115e+000

1.57797232718936e+005,-1.93908875375828e+001,-1.94901698977627e+000

1.59999999999999e+005,-1.93909573027260e+001,-1.97619792732179e+000

1.62233516766403e+005,-1.93910290085132e+001,-2.00375719248172e+000

1.64498212264969e+005,-1.93911027083403e+001,-2.03170002060351e+000

1.66794521734578e+005,-1.93911784570394e+001,-2.06003171823637e+000

1.69122886489819e+005,-1.93912563109159e+001,-2.08875766405131e+000

1.71483754005805e+005,-1.93913363277863e+001,-2.11788330976829e+000

1.73877578004168e+005,-1.93914185670163e+001,-2.14741418109672e+000

1.76304818540256e+005,-1.93915030895605e+001,-2.17735587868344e+000

1.78765942091554e+005,-1.93915899580026e+001,-2.20771407907222e+000

1.81261421647326e+005,-1.93916792365965e+001,-2.23849453567256e+000

1.83791736799524e+005,-1.93917709913086e+001,-2.26970307973977e+000

1.86357373834951e+005,-1.93918652898607e+001,-2.30134562136362e+000

1.88958825828723e+005,-1.93919622017738e+001,-2.33342815046820e+000

1.91596592739027e+005,-1.93920617984132e+001,-2.36595673782241e+000

1.94271181503206e+005,-1.93921641530343e+001,-2.39893753605952e+000

1.96983106135185e+005,-1.93922693408295e+001,-2.43237678070849e+000

1.99732887824256e+005,-1.93923774389758e+001,-2.46628079123415e+000

2.02521055035243e+005,-1.93924885266839e+001,-2.50065597208811e+000

2.05348143610063e+005,-1.93926026852478e+001,-2.53550881377071e+000

2.08214696870707e+005,-1.93927199980957e+001,-2.57084589390289e+000

2.11121265723661e+005,-1.93928405508419e+001,-2.60667387830865e+000

2.14068408765776e+005,-1.93929644313396e+001,-2.64299952210581e+000

2.17056692391625e+005,-1.93930917297352e+001,-2.67982967081098e+000

2.20086690902357e+005,-1.93932225385224e+001,-2.71717126145195e+000

2.23158986616063e+005,-1.93933569525995e+001,-2.75503132369107e+000

2.26274169979693e+005,-1.93934950693254e+001,-2.79341698095924e+000

2.29432839682530e+005,-1.93936369885783e+001,-2.83233545160091e+000

2.32635602771247e+005,-1.93937828128149e+001,-2.87179405002844e+000

2.35883074766574e+005,-1.93939326471306e+001,-2.91180018788649e+000

2.39175879781588e+005,-1.93940865993211e+001,-2.95236137522846e+000

2.42514650641661e+005,-1.93942447799446e+001,-2.99348522170196e+000

2.45900029006080e+005,-1.93944073023855e+001,-3.03517943774393e+000

2.49332665491357e+005,-1.93945742829191e+001,-3.07745183578919e+000

2.52813219796278e+005,-1.93947458407772e+001,-3.12031033148508e+000

2.56342360828676e+005,-1.93949220982148e+001,-3.16376294491971e+000

2.59920766833993e+005,-1.93951031805783e+001,-3.20781780185926e+000

2.63549125525621e+005,-1.93952892163737e+001,-3.25248313499561e+000

2.67228134217075e+005,-1.93954803373375e+001,-3.29776728520409e+000

2.70958499956006e+005,-1.93956766785068e+001,-3.34367870281274e+000

2.74740939660078e+005,-1.93958783782917e+001,-3.39022594887986e+000

2.78576180254757e+005,-1.93960855785485e+001,-3.43741769648463e+000

2.82464958813007e+005,-1.93962984246534e+001,-3.48526273202463e+000

2.86408022696948e+005,-1.93965170655777e+001,-3.53376995652715e+000

2.90406129701488e+005,-1.93967416539636e+001,-3.58294838696907e+000

2.94460048199957e+005,-1.93969723462016e+001,-3.63280715760693e+000

2.98570557291775e+005,-1.93972093025074e+001,-3.68335552131865e+000

3.02738446952187e+005,-1.93974526870018e+001,-3.73460285095499e+000

3.06964518184081e+005,-1.93977026677892e+001,-3.78655864070191e+000

3.11249583171928e+005,-1.93979594170388e+001,-3.83923250745319e+000

3.15594465437872e+005,-1.93982231110655e+001,-3.89263419219431e+000

3.19999999999997e+005,-1.93984939304120e+001,-3.94677356139726e+000

3.24467033532806e+005,-1.93987720599312e+001,-4.00166060842560e+000

3.28996424529938e+005,-1.93990576888703e+001,-4.05730545495114e+000

3.33589043469155e+005,-1.93993510109543e+001,-4.11371835238197e+000

3.38245772979638e+005,-1.93996522244710e+001,-4.17090968330161e+000

3.42967508011610e+005,-1.93999615323559e+001,-4.22888996292008e+000

3.47755156008335e+005,-1.94002791422787e+001,-4.28766984053615e+000

3.52609637080511e+005,-1.94006052667285e+001,-4.34726010101244e+000

3.57531884183106e+005,-1.94009401231014e+001,-4.40767166626292e+000

3.62522843294651e+005,-1.94012839337869e+001,-4.46891559675200e+000

3.67583473599047e+005,-1.94016369262555e+001,-4.53100309300676e+000

3.72714747669902e+005,-1.94019993331461e+001,-4.59394549714480e+000

3.77917651657445e+005,-1.94023713923540e+001,-4.65775429441155e+000

3.83193185478053e+005,-1.94027533471182e+001,-4.72244111473609e+000

3.88542363006410e+005,-1.94031454461099e+001,-4.78801773429853e+000

3.93966212270369e+005,-1.94035479435200e+001,-4.85449607711390e+000

3.99465775648511e+005,-1.94039610991471e+001,-4.92188821663119e+000

4.05042110070485e+005,-1.94043851784852e+001,-4.99020637734895e+000

4.10696287220124e+005,-1.94048204528109e+001,-5.05946293644834e+000

4.16429393741414e+005,-1.94052671992709e+001,-5.12967042544205e+000

4.22242531447321e+005,-1.94057257009687e+001,-5.20084153184404e+000

4.28136817531551e+005,-1.94061962470512e+001,-5.27298910085670e+000

4.34113384783250e+005,-1.94066791327942e+001,-5.34612613707889e+000

4.40173381804713e+005,-1.94071746596885e+001,-5.42026580623441e+000

4.46317973232124e+005,-1.94076831355240e+001,-5.49542143692397e+000

4.52548339959385e+005,-1.94082048744744e+001,-5.57160652239828e+000

4.58865679365059e+005,-1.94087401971805e+001,-5.64883472235723e+000

4.65271205542494e+005,-1.94092894308327e+001,-5.72711986477312e+000

4.71766149533147e+005,-1.94098529092529e+001,-5.80647594774154e+000

4.78351759563174e+005,-1.94104309729757e+001,-5.88691714136058e+000

4.85029301283321e+005,-1.94110239693283e+001,-5.96845778963843e+000

4.91800058012158e+005,-1.94116322525096e+001,-6.05111241243342e+000

4.98665330982714e+005,-1.94122561836688e+001,-6.13489570742535e+000

5.05626439592555e+005,-1.94128961309821e+001,-6.21982255212337e+000

5.12684721657352e+005,-1.94135524697296e+001,-6.30590800590719e+000

5.19841533667984e+005,-1.94142255823704e+001,-6.39316731210814e+000

5.27098251051240e+005,-1.94149158586169e+001,-6.48161590013005e+000

5.34456268434150e+005,-1.94156236955084e+001,-6.57126938761100e+000

5.41916999912011e+005,-1.94163494974841e+001,-6.66214358263029e+000

