Freq.,VOut,OutRef

1.00000000000000e+004,-1.56092418503606e+000,-2.85404318109120e-002

1.01395947979003e+004,-1.56092418351309e+000,-2.89388413209835e-002

1.02811382665607e+004,-1.56092418194700e+000,-2.93428124194696e-002

1.04246576084112e+004,-1.56092418033698e+000,-2.97524227405864e-002

1.05701804056138e+004,-1.56092417868186e+000,-3.01677510042528e-002

1.07177346253629e+004,-1.56092417697994e+000,-3.05888770328882e-002

1.08673486252606e+004,-1.56092417523036e+000,-3.10158817570982e-002

1.10190511587661e+004,-1.56092417343162e+000,-3.14488472410501e-002

1.11728713807222e+004,-1.56092417158198e+000,-3.18878566963478e-002

1.13288388529580e+004,-1.56092416968059e+000,-3.23329944896143e-002

1.14869835499703e+004,-1.56092416772593e+000,-3.27843461695999e-002

1.16473358646846e+004,-1.56092416571604e+000,-3.32419984815860e-002

1.18099266142953e+004,-1.56092416364954e+000,-3.37060393778789e-002

1.19747870461893e+004,-1.56092416152514e+000,-3.41765580376149e-002

1.21419488439505e+004,-1.56092415934105e+000,-3.46536448881448e-002

1.23114441334492e+004,-1.56092415709539e+000,-3.51373916184547e-002

1.24833054890161e+004,-1.56092415478665e+000,-3.56278911959188e-002

1.26575659397028e+004,-1.56092415241279e+000,-3.61252378883491e-002

1.28342589756290e+004,-1.56092414997259e+000,-3.66295272732741e-002

1.30134185544193e+004,-1.56092414746359e+000,-3.71408562706848e-002

1.31950791077289e+004,-1.56092414488383e+000,-3.76593231501597e-002

1.33792755478611e+004,-1.56092414223176e+000,-3.81850275493095e-002

1.35660432744767e+004,-1.56092413950510e+000,-3.87180705018897e-002

1.37554181813974e+004,-1.56092413670164e+000,-3.92585544507066e-002

1.39474366635040e+004,-1.56092413381954e+000,-3.98065832654453e-002

1.41421356237309e+004,-1.56092413085642e+000,-4.03622622694049e-002

1.43395524801583e+004,-1.56092412780988e+000,-4.09256982558342e-002

1.45397251732031e+004,-1.56092412467764e+000,-4.14969995071882e-002

1.47426921729110e+004,-1.56092412145723e+000,-4.20762758187877e-002

1.49484924863494e+004,-1.56092411814635e+000,-4.26636385166555e-002

1.51571656651040e+004,-1.56092411474256e+000,-4.32592004814224e-002

1.53687518128801e+004,-1.56092411124277e+000,-4.38630761733410e-002

1.55832915932100e+004,-1.56092410764487e+000,-4.44753816434824e-002

1.58008262372675e+004,-1.56092410394542e+000,-4.50962345711835e-002

1.60213975517924e+004,-1.56092410014224e+000,-4.57257542694149e-002

1.62450479271247e+004,-1.56092409623202e+000,-4.63640617241901e-002

1.64718203453514e+004,-1.56092409221168e+000,-4.70112796077617e-002

1.67017583885674e+004,-1.56092408807856e+000,-4.76675323017262e-002

1.69349062472505e+004,-1.56092408382900e+000,-4.83329459301023e-002

1.71713087287550e+004,-1.56092407946001e+000,-4.90076483721427e-002

1.74110112659224e+004,-1.56092407496824e+000,-4.96917692942378e-002

1.76540599258131e+004,-1.56092407034998e+000,-5.03854401750143e-002

1.79005014185594e+004,-1.56092406560207e+000,-5.10887943229782e-002

1.81503831063432e+004,-1.56092406072050e+000,-5.18019669135622e-002

1.84037530124975e+004,-1.56092405570167e+000,-5.25250950050302e-002

1.86606598307361e+004,-1.56092405054174e+000,-5.32583175707814e-002

1.89211529345119e+004,-1.56092404523653e+000,-5.40017755245540e-002

1.91852823865052e+004,-1.56092403978224e+000,-5.47556117446006e-002

1.94530989482457e+004,-1.56092403417462e+000,-5.55199711053718e-002

1.97246540898671e+004,-1.56092402840915e+000,-5.62950005053244e-002

1.99999999999999e+004,-1.56092402248169e+000,-5.70808488896426e-002

2.02791895958005e+004,-1.56092401638741e+000,-5.78776672864482e-002

2.05622765331213e+004,-1.56092401012183e+000,-5.86856088293296e-002

2.08493152168224e+004,-1.56092400367990e+000,-5.95048287917352e-002

2.11403608112276e+004,-1.56092399705678e+000,-6.03354846128511e-002

2.14354692507258e+004,-1.56092399024750e+000,-6.11777359294779e-002

2.17346972505211e+004,-1.56092398324664e+000,-6.20317446087045e-002

2.20381023175322e+004,-1.56092397604887e+000,-6.28976747755370e-002

2.23457427614443e+004,-1.56092396864871e+000,-6.37756928461923e-002

2.26576777059159e+004,-1.56092396104021e+000,-6.46659675617417e-002

2.29739670999406e+004,-1.56092395321787e+000,-6.55686700151860e-002

2.32946717293690e+004,-1.56092394517566e+000,-6.64839736894769e-002

2.36198532285905e+004,-1.56092393690703e+000,-6.74120544924026e-002

2.39495740923785e+004,-1.56092392840576e+000,-6.83530907831215e-002

2.42838976879009e+004,-1.56092391966543e+000,-6.93072634114253e-002

2.46228882668982e+004,-1.56092391067941e+000,-7.02747557515539e-002

2.49666109780322e+004,-1.56092390144035e+000,-7.12557537403504e-002

2.53151318794055e+004,-1.56092389194150e+000,-7.22504459058408e-002

2.56685179512580e+004,-1.56092388217555e+000,-7.32590234097638e-002

2.60268371088386e+004,-1.56092387213476e+000,-7.42816800833237e-002

2.63901582154578e+004,-1.56092386181142e+000,-7.53186124622820e-002

2.67585510957221e+004,-1.56092385119778e+000,-7.63700198247646e-002

2.71320865489533e+004,-1.56092384028553e+000,-7.74361042328120e-002

2.75108363627948e+004,-1.56092382906622e+000,-7.85170705677687e-002

2.78948733270080e+004,-1.56092381753131e+000,-7.96131265711493e-002

2.82842712474618e+004,-1.56092380567190e+000,-8.07244828840104e-002

2.86791049603164e+004,-1.56092379347888e+000,-8.18513530880949e-002

2.90794503464061e+004,-1.56092378094259e+000,-8.29939537482051e-002

2.94853843458219e+004,-1.56092376805386e+000,-8.41525044472118e-002

2.98969849726987e+004,-1.56092375480223e+000,-8.53272278400207e-002

3.03143313302078e+004,-1.56092374117787e+000,-8.65183496833512e-002

3.07375036257601e+004,-1.56092372717022e+000,-8.77260988880371e-002

3.11665831864199e+004,-1.56092371276823e+000,-8.89507075619169e-002

3.16016524745350e+004,-1.56092369796111e+000,-9.01924110485814e-002

3.20427951035848e+004,-1.56092368273718e+000,-9.14514479812886e-002

3.24900958542493e+004,-1.56092366708489e+000,-9.27280603201430e-002

3.29436406907028e+004,-1.56092365099221e+000,-9.40224934051676e-002

3.34035167771346e+004,-1.56092363444665e+000,-9.53349960009118e-002

3.38698124945009e+004,-1.56092361743535e+000,-9.66658203444296e-002

3.43426174575100e+004,-1.56092359994534e+000,-9.80152221923396e-002

3.48220225318448e+004,-1.56092358196298e+000,-9.93834608737538e-002

3.53081198516260e+004,-1.56092356347459e+000,-1.00770799334376e-001

3.58010028371187e+004,-1.56092354446571e+000,-1.02177504193603e-001

3.63007662126863e+004,-1.56092352492190e+000,-1.03603845789577e-001

3.68075060249948e+004,-1.56092350482786e+000,-1.05050098236528e-001

3.73213196614721e+004,-1.56092348416822e+000,-1.06516539473084e-001

3.78423058690237e+004,-1.56092346292701e+000,-1.08003451318612e-001

3.83705647730104e+004,-1.56092344108786e+000,-1.09511119525450e-001

3.89061978964912e+004,-1.56092341863384e+000,-1.11039833835532e-001

3.94493081797342e+004,-1.56092339554760e+000,-1.12589888035144e-001

3.99999999999998e+004,-1.56092337181134e+000,-1.14161580010446e-001

4.05583791916010e+004,-1.56092334740693e+000,-1.15755211804958e-001

4.11245530662425e+004,-1.56092332231523e+000,-1.17371089681318e-001

4.16986304336447e+004,-1.56092329651707e+000,-1.19009524173979e-001

4.22807216224550e+004,-1.56092326999243e+000,-1.20670830153450e-001

4.28709385014515e+004,-1.56092324272080e+000,-1.22355326885381e-001

4.34693945010421e+004,-1.56092321468115e+000,-1.24063338091340e-001

4.40762046350642e+004,-1.56092318585180e+000,-1.25795192011607e-001

4.46914855228886e+004,-1.56092315621042e+000,-1.27551221468545e-001

4.53153554118317e+004,-1.56092312573416e+000,-1.29331763929145e-001

4.59479341998812e+004,-1.56092309439949e+000,-1.31137161571558e-001

4.65893434587380e+004,-1.56092306218220e+000,-1.32967761349715e-001

4.72397064571810e+004,-1.56092302905724e+000,-1.34823915061395e-001

4.78991481847569e+004,-1.56092299499905e+000,-1.36705979413707e-001

4.85677953758016e+004,-1.56092295998132e+000,-1.38614316092749e-001

4.92457765337964e+004,-1.56092292397688e+000,-1.40549291833853e-001

4.99332219560642e+004,-1.56092288695793e+000,-1.42511278490437e-001

5.06302637588109e+004,-1.56092284889594e+000,-1.44500653105380e-001

5.13370359025159e+004,-1.56092280976113e+000,-1.46517797987412e-001

5.20536742176771e+004,-1.56092276952345e+000,-1.48563100777815e-001

5.27803164309155e+004,-1.56092272815179e+000,-1.50636954529942e-001

5.35171021914442e+004,-1.56092268561382e+000,-1.52739757784822e-001

5.42641730979066e+004,-1.56092264187675e+000,-1.54871914644006e-001

5.50216727255895e+004,-1.56092259690683e+000,-1.57033834848863e-001

5.57897466540159e+004,-1.56092255066888e+000,-1.59225933863517e-001

5.65685424949235e+004,-1.56092250312732e+000,-1.61448632946416e-001

5.73582099206328e+004,-1.56092245424516e+000,-1.63702359238387e-001

5.81589006928121e+004,-1.56092240398457e+000,-1.65987545841261e-001

5.89707686916437e+004,-1.56092235230632e+000,-1.68304631902902e-001

5.97939699453972e+004,-1.56092229917060e+000,-1.70654062698093e-001

6.06286626604156e+004,-1.56092224453608e+000,-1.73036289718180e-001

6.14750072515201e+004,-1.56092218836021e+000,-1.75451770756610e-001

6.23331663728396e+004,-1.56092213059951e+000,-1.77900969994386e-001

6.32033049490698e+004,-1.56092207120904e+000,-1.80384358092644e-001

6.40855902071694e+004,-1.56092201014274e+000,-1.82902412280433e-001

6.49801917084985e+004,-1.56092194735290e+000,-1.85455616449445e-001

6.58872813814055e+004,-1.56092188279092e+000,-1.88044461242380e-001

6.68070335542691e+004,-1.56092181640644e+000,-1.90669444151678e-001

6.77396249890018e+004,-1.56092174814781e+000,-1.93331069612436e-001

6.86852349150199e+004,-1.56092167796211e+000,-1.96029849098546e-001

6.96440450636895e+004,-1.56092160579459e+000,-1.98766301224019e-001

7.06162397032520e+004,-1.56092153158889e+000,-2.01540951841621e-001

7.16020056742374e+004,-1.56092145528732e+000,-2.04354334141409e-001

7.26015324253724e+004,-1.56092137683038e+000,-2.07206988755316e-001

7.36150120499896e+004,-1.56092129615686e+000,-2.10099463860608e-001

7.46426393229441e+004,-1.56092121320390e+000,-2.13032315284651e-001

7.56846117380472e+004,-1.56092112790683e+000,-2.16006106611831e-001

7.67411295460207e+004,-1.56092104019882e+000,-2.19021409293380e-001

7.78123957929823e+004,-1.56092095001150e+000,-2.22078802753809e-001

7.88986163594682e+004,-1.56092085727451e+000,-2.25178874503903e-001

7.99999999999995e+004,-1.56092076191516e+000,-2.28322220255076e-001

8.11167583832018e+004,-1.56092066385900e+000,-2.31509444030836e-001

8.22491061324848e+004,-1.56092056302922e+000,-2.34741158284805e-001

8.33972608672892e+004,-1.56092045934694e+000,-2.38017984017112e-001

8.45614432449099e+004,-1.56092035273096e+000,-2.41340550894165e-001

8.57418770029029e+004,-1.56092024309775e+000,-2.44709497369363e-001

8.69387890020841e+004,-1.56092013036142e+000,-2.48125470805527e-001

8.81524092701283e+004,-1.56092001443332e+000,-2.51589127600579e-001

8.93829710457770e+004,-1.56091989522266e+000,-2.55101133310346e-001

9.06307108236633e+004,-1.56091977263574e+000,-2.58662162779566e-001

9.18958683997622e+004,-1.56091964657618e+000,-2.62272900269745e-001

9.31786869174758e+004,-1.56091951694500e+000,-2.65934039589956e-001

9.44794129143618e+004,-1.56091938364014e+000,-2.69646284231849e-001

9.57982963695136e+004,-1.56091924655668e+000,-2.73410347502983e-001

9.71355907516031e+004,-1.56091910558658e+000,-2.77226952664922e-001

9.84915530675926e+004,-1.56091896061871e+000,-2.81096833071122e-001

9.98664439121282e+004,-1.56091881153886e+000,-2.85020732306923e-001

1.01260527517622e+005,-1.56091865822934e+000,-2.88999404333968e-001

1.02674071805032e+005,-1.56091850056890e+000,-2.93033613635408e-001

1.04107348435354e+005,-1.56091833843304e+000,-2.97124135358914e-001

1.05560632861831e+005,-1.56091817169344e+000,-3.01271755469523e-001

1.07034204382888e+005,-1.56091800021817e+000,-3.05477270897238e-001

1.08528346195813e+005,-1.56091782387139e+000,-3.09741489691755e-001

1.10043345451179e+005,-1.56091764251303e+000,-3.14065231178622e-001

1.11579493308032e+005,-1.56091745599947e+000,-3.18449326111391e-001

1.13137084989847e+005,-1.56091726418246e+000,-3.22894616836400e-001

1.14716419841265e+005,-1.56091706690944e+000,-3.27401957452446e-001

1.16317801385624e+005,-1.56091686402344e+000,-3.31972213973690e-001

1.17941537383287e+005,-1.56091665536299e+000,-3.36606264495442e-001

1.19587939890794e+005,-1.56091644076173e+000,-3.41304999364647e-001

1.21257325320831e+005,-1.56091622004836e+000,-3.46069321349464e-001

1.22950014503040e+005,-1.56091599304655e+000,-3.50900145811685e-001

1.24666332745679e+005,-1.56091575957503e+000,-3.55798400881670e-001

1.26406609898139e+005,-1.56091551944670e+000,-3.60765027640169e-001

1.28171180414339e+005,-1.56091527246924e+000,-3.65800980293685e-001

1.29960383416997e+005,-1.56091501844460e+000,-3.70907226360099e-001

1.31774562762811e+005,-1.56091475716870e+000,-3.76084746854364e-001

1.33614067108538e+005,-1.56091448843161e+000,-3.81334536474315e-001

1.35479249978003e+005,-1.56091421201698e+000,-3.86657603793999e-001

1.37370469830040e+005,-1.56091392770216e+000,-3.92054971454708e-001

1.39288090127379e+005,-1.56091363525757e+000,-3.97527676363374e-001

1.41232479406504e+005,-1.56091333444707e+000,-4.03076769888485e-001

1.43204011348474e+005,-1.56091302502740e+000,-4.08703318062454e-001

1.45203064850745e+005,-1.56091270674780e+000,-4.14408401787240e-001

1.47230024099979e+005,-1.56091237935026e+000,-4.20193117039197e-001

1.49285278645888e+005,-1.56091204256879e+000,-4.26058575081341e-001

1.51369223476094e+005,-1.56091169612955e+000,-4.32005902673165e-001

1.53482259092041e+005,-1.56091133975023e+000,-4.38036242289983e-001

1.55624791585964e+005,-1.56091097314025e+000,-4.44150752338471e-001

1.57797232718936e+005,-1.56091059600011e+000,-4.50350607379924e-001

1.59999999999999e+005,-1.56091020802119e+000,-4.56636998355532e-001

1.62233516766403e+005,-1.56090980888541e+000,-4.63011132814497e-001

1.64498212264969e+005,-1.56090939826519e+000,-4.69474235143331e-001

1.66794521734578e+005,-1.56090897582298e+000,-4.76027546801250e-001

1.69122886489819e+005,-1.56090854121070e+000,-4.82672326558878e-001

1.71483754005805e+005,-1.56090809406982e+000,-4.89409850737685e-001

1.73877578004168e+005,-1.56090763403072e+000,-4.96241413454449e-001

1.76304818540256e+005,-1.56090716071258e+000,-5.03168326868675e-001

1.78765942091554e+005,-1.56090667372254e+000,-5.10191921435254e-001

1.81261421647326e+005,-1.56090617265589e+000,-5.17313546156610e-001

1.83791736799524e+005,-1.56090565709535e+000,-5.24534568841551e-001

1.86357373834951e+005,-1.56090512661070e+000,-5.31856376367694e-001

1.88958825828723e+005,-1.56090458075833e+000,-5.39280374945811e-001

1.91596592739027e+005,-1.56090401908091e+000,-5.46807990388479e-001

1.94271181503206e+005,-1.56090344110677e+000,-5.54440668383610e-001

1.96983106135185e+005,-1.56090284634961e+000,-5.62179874769286e-001

1.99732887824256e+005,-1.56090223430782e+000,-5.70027095815860e-001

2.02521055035243e+005,-1.56090160446411e+000,-5.77983838508231e-001

2.05348143610063e+005,-1.56090095628480e+000,-5.86051630835258e-001

2.08214696870707e+005,-1.56090028921964e+000,-5.94232022079309e-001

2.11121265723661e+005,-1.56089960270070e+000,-6.02526583116148e-001

2.14068408765776e+005,-1.56089889614224e+000,-6.10936906711139e-001

2.17056692391625e+005,-1.56089816893983e+000,-6.19464607825811e-001

2.20086690902357e+005,-1.56089742047003e+000,-6.28111323923863e-001

2.23158986616063e+005,-1.56089665008916e+000,-6.36878715287652e-001

2.26274169979693e+005,-1.56089585713318e+000,-6.45768465331737e-001

2.29432839682530e+005,-1.56089504091686e+000,-6.54782280924688e-001

2.32635602771247e+005,-1.56089420073267e+000,-6.63921892716989e-001

2.35883074766574e+005,-1.56089333585044e+000,-6.73189055468921e-001

2.39175879781588e+005,-1.56089244551650e+000,-6.82585548386483e-001

2.42514650641661e+005,-1.56089152895255e+000,-6.92113175461253e-001

2.45900029006080e+005,-1.56089058535527e+000,-7.01773765813155e-001

2.49332665491357e+005,-1.56088961389502e+000,-7.11569174040341e-001

2.52813219796278e+005,-1.56088861371509e+000,-7.21501280573514e-001

2.56342360828676e+005,-1.56088758393090e+000,-7.31571992032476e-001

2.59920766833993e+005,-1.56088652362856e+000,-7.41783241592134e-001

2.63549125525621e+005,-1.56088543186442e+000,-7.52136989348544e-001

2.67228134217075e+005,-1.56088430766353e+000,-7.62635222694424e-001

2.70958499956006e+005,-1.56088315001871e+000,-7.73279956697568e-001

2.74740939660078e+005,-1.56088195788936e+000,-7.84073234484107e-001

2.78576180254757e+005,-1.56088073020046e+000,-7.95017127627869e-001

2.82464958813007e+005,-1.56087946584087e+000,-8.06113736546554e-001

2.86408022696948e+005,-1.56087816366250e+000,-8.17365190899914e-001

2.90406129701488e+005,-1.56087682247875e+000,-8.28773649996302e-001

2.94460048199957e+005,-1.56087544106306e+000,-8.40341303204472e-001

2.98570557291775e+005,-1.56087401814762e+000,-8.52070370369145e-001

3.02738446952187e+005,-1.56087255242173e+000,-8.63963102234879e-001

3.06964518184081e+005,-1.56087104253028e+000,-8.76021780874360e-001

3.11249583171928e+005,-1.56086948707217e+000,-8.88248720122355e-001

3.15594465437872e+005,-1.56086788459860e+000,-9.00646266016355e-001

3.19999999999997e+005,-1.56086623361114e+000,-9.13216797243759e-001

3.24467033532806e+005,-1.56086453256020e+000,-9.25962725593949e-001

3.28996424529938e+005,-1.56086277984290e+000,-9.38886496417700e-001

3.33589043469155e+005,-1.56086097380132e+000,-9.51990589091660e-001

3.38245772979638e+005,-1.56085911272025e+000,-9.65277517490995e-001

3.42967508011610e+005,-1.56085719482511e+000,-9.78749830468002e-001

3.47755156008335e+005,-1.56085521827986e+000,-9.92410112336085e-001

3.52609637080511e+005,-1.56085318118457e+000,-1.00626098336223e+000

3.57531884183106e+005,-1.56085108157318e+000,-1.02030510026494e+000

3.62522843294651e+005,-1.56084891741085e+000,-1.03454515672083e+000

3.67583473599047e+005,-1.56084668659164e+000,-1.04898388387508e+000

3.72714747669902e+005,-1.56084438693556e+000,-1.06362405086366e+000

3.77917651657445e+005,-1.56084201618605e+000,-1.07846846533768e+000

3.83193185478053e+005,-1.56083957200697e+000,-1.09351997399918e+000

3.88542363006410e+005,-1.56083705197973e+000,-1.10878146314228e+000

3.93966212270369e+005,-1.56083445359999e+000,-1.12425585920276e+000

3.99465775648511e+005,-1.56083177427463e+000,-1.13994612931427e+000

4.05042110070485e+005,-1.56082901131854e+000,-1.15585528187330e+000

4.10696287220124e+005,-1.56082616195079e+000,-1.17198636711197e+000

4.16429393741414e+005,-1.56082322329136e+000,-1.18834247767902e+000

4.22242531447321e+005,-1.56082019235729e+000,-1.20492674922735e+000

4.28136817531551e+005,-1.56081706605886e+000,-1.22174236101256e+000

4.34113384783250e+005,-1.56081384119553e+000,-1.23879253649744e+000

4.40173381804713e+005,-1.56081051445185e+000,-1.25608054396674e+000

4.46317973232124e+005,-1.56080708239331e+000,-1.27360969714840e+000

4.52548339959385e+005,-1.56080354146141e+000,-1.29138335584745e+000

4.58865679365059e+005,-1.56079988796969e+000,-1.30940492658388e+000

4.65271205542494e+005,-1.56079611809840e+000,-1.32767786324426e+000

4.71766149533147e+005,-1.56079222788977e+000,-1.34620566773917e+000

4.78351759563174e+005,-1.56078821324302e+000,-1.36499189067180e+000

4.85029301283321e+005,-1.56078406990883e+000,-1.38404013201559e+000

4.91800058012158e+005,-1.56077979348386e+000,-1.40335404180173e+000

4.98665330982714e+005,-1.56077537940513e+000,-1.42293732081668e+000

5.05626439592555e+005,-1.56077082294426e+000,-1.44279372130767e+000

5.12684721657352e+005,-1.56076611920113e+000,-1.46292704770241e+000

5.19841533667984e+005,-1.56076126309772e+000,-1.48334115733550e+000

5.27098251051240e+005,-1.56075624937169e+000,-1.50403996118633e+000

5.34456268434150e+005,-1.56075107256958e+000,-1.52502742462853e+000

5.41916999912011e+005,-1.56074572703980e+000,-1.54630756818938e+000

