Freq.,VOut,OutRef

1.00000000000000e+004,-1.25730256717267e+001,-1.19028434906412e-001

1.01395947979003e+004,-1.25730257337567e+001,-1.20690007047199e-001

1.02811382665607e+004,-1.25730257975303e+001,-1.22374773748061e-001

1.04246576084112e+004,-1.25730258630970e+001,-1.24083058786136e-001

1.05701804056138e+004,-1.25730259305065e+001,-1.25815190462855e-001

1.07177346253629e+004,-1.25730259998111e+001,-1.27571501656755e-001

1.08673486252606e+004,-1.25730260710639e+001,-1.29352329896576e-001

1.10190511587661e+004,-1.25730261443197e+001,-1.31158017421116e-001

1.11728713807222e+004,-1.25730262196346e+001,-1.32988911246960e-001

1.13288388529580e+004,-1.25730262970667e+001,-1.34845363233993e-001

1.14869835499703e+004,-1.25730263766756e+001,-1.36727730152896e-001

1.16473358646846e+004,-1.25730264585221e+001,-1.38636373757445e-001

1.18099266142953e+004,-1.25730265426695e+001,-1.40571660846819e-001

1.19747870461893e+004,-1.25730266291824e+001,-1.42533963343034e-001

1.21419488439505e+004,-1.25730267181270e+001,-1.44523658359715e-001

1.23114441334492e+004,-1.25730268095719e+001,-1.46541128272685e-001

1.24833054890161e+004,-1.25730269035872e+001,-1.48586760797213e-001

1.26575659397028e+004,-1.25730270002453e+001,-1.50660949057956e-001

1.28342589756290e+004,-1.25730270996205e+001,-1.52764091668802e-001

1.30134185544193e+004,-1.25730272017889e+001,-1.54896592808026e-001

1.31950791077289e+004,-1.25730273068295e+001,-1.57058862293135e-001

1.33792755478611e+004,-1.25730274148225e+001,-1.59251315666166e-001

1.35660432744767e+004,-1.25730275258511e+001,-1.61474374264995e-001

1.37554181813974e+004,-1.25730276400006e+001,-1.63728465312382e-001

1.39474366635040e+004,-1.25730277573587e+001,-1.66014021991061e-001

1.41421356237309e+004,-1.25730278780158e+001,-1.68331483531881e-001

1.43395524801583e+004,-1.25730280020641e+001,-1.70681295298320e-001

1.45397251732031e+004,-1.25730281295994e+001,-1.73063908867012e-001

1.47426921729110e+004,-1.25730282607195e+001,-1.75479782119371e-001

1.49484924863494e+004,-1.25730283955250e+001,-1.77929379328875e-001

1.51571656651040e+004,-1.25730285341198e+001,-1.80413171247175e-001

1.53687518128801e+004,-1.25730286766100e+001,-1.82931635199350e-001

1.55832915932100e+004,-1.25730288231054e+001,-1.85485255170206e-001

1.58008262372675e+004,-1.25730289737183e+001,-1.88074521902600e-001

1.60213975517924e+004,-1.25730291285647e+001,-1.90699932986020e-001

1.62450479271247e+004,-1.25730292877632e+001,-1.93361992959240e-001

1.64718203453514e+004,-1.25730294514364e+001,-1.96061213399046e-001

1.67017583885674e+004,-1.25730296197098e+001,-1.98798113027107e-001

1.69349062472505e+004,-1.25730297927128e+001,-2.01573217801351e-001

1.71713087287550e+004,-1.25730299705784e+001,-2.04387061022000e-001

1.74110112659224e+004,-1.25730301534430e+001,-2.07240183435144e-001

1.76540599258131e+004,-1.25730303414474e+001,-2.10133133330362e-001

1.79005014185594e+004,-1.25730305347355e+001,-2.13066466654356e-001

1.81503831063432e+004,-1.25730307334562e+001,-2.16040747110170e-001

1.84037530124975e+004,-1.25730309377619e+001,-2.19056546270185e-001

1.86606598307361e+004,-1.25730311478096e+001,-2.22114443683499e-001

1.89211529345119e+004,-1.25730313637606e+001,-2.25215026989555e-001

1.91852823865052e+004,-1.25730315857810e+001,-2.28358892027149e-001

1.94530989482457e+004,-1.25730318140409e+001,-2.31546642954868e-001

1.97246540898671e+004,-1.25730320487159e+001,-2.34778892360128e-001

1.99999999999999e+004,-1.25730322899860e+001,-2.38056261382727e-001

2.02791895958005e+004,-1.25730325380368e+001,-2.41379379829497e-001

2.05622765331213e+004,-1.25730327930584e+001,-2.44748886300014e-001

2.08493152168224e+004,-1.25730330552469e+001,-2.48165428304583e-001

2.11403608112276e+004,-1.25730333248036e+001,-2.51629662390735e-001

2.14354692507258e+004,-1.25730336019352e+001,-2.55142254271868e-001

2.17346972505211e+004,-1.25730338868549e+001,-2.58703878948359e-001

2.20381023175322e+004,-1.25730341797812e+001,-2.62315220844000e-001

2.23457427614443e+004,-1.25730344809391e+001,-2.65976973933809e-001

2.26576777059159e+004,-1.25730347905597e+001,-2.69689841878724e-001

2.29739670999406e+004,-1.25730351088807e+001,-2.73454538160286e-001

2.32946717293690e+004,-1.25730354361467e+001,-2.77271786215327e-001

2.36198532285905e+004,-1.25730357726086e+001,-2.81142319580868e-001

2.39495740923785e+004,-1.25730361185250e+001,-2.85066882026818e-001

2.42838976879009e+004,-1.25730364741611e+001,-2.89046227707214e-001

2.46228882668982e+004,-1.25730368397900e+001,-2.93081121297835e-001

2.49666109780322e+004,-1.25730372156923e+001,-2.97172338146840e-001

2.53151318794055e+004,-1.25730376021566e+001,-3.01320664423401e-001

2.56685179512580e+004,-1.25730379994793e+001,-3.05526897268183e-001

2.60268371088386e+004,-1.25730384079656e+001,-3.09791844944505e-001

2.63901582154578e+004,-1.25730388279286e+001,-3.14116326997986e-001

2.67585510957221e+004,-1.25730392596909e+001,-3.18501174408011e-001

2.71320865489533e+004,-1.25730397035834e+001,-3.22947229752746e-001

2.75108363627948e+004,-1.25730401599470e+001,-3.27455347367464e-001

2.78948733270080e+004,-1.25730406291315e+001,-3.32026393509316e-001

2.82842712474618e+004,-1.25730411114972e+001,-3.36661246523036e-001

2.86791049603164e+004,-1.25730416074139e+001,-3.41360797012327e-001

2.90794503464061e+004,-1.25730421172621e+001,-3.46125948006132e-001

2.94853843458219e+004,-1.25730426414327e+001,-3.50957615136786e-001

2.98969849726987e+004,-1.25730431803279e+001,-3.55856726810422e-001

3.03143313302078e+004,-1.25730437343608e+001,-3.60824224392204e-001

3.07375036257601e+004,-1.25730443039565e+001,-3.65861062378278e-001

3.11665831864199e+004,-1.25730448895516e+001,-3.70968208587115e-001

3.16016524745350e+004,-1.25730454915950e+001,-3.76146644339685e-001

3.20427951035848e+004,-1.25730461105486e+001,-3.81397364649006e-001

3.24900958542493e+004,-1.25730467468866e+001,-3.86721378413266e-001

3.29436406907028e+004,-1.25730474010970e+001,-3.92119708606436e-001

3.34035167771346e+004,-1.25730480736811e+001,-3.97593392476656e-001

3.38698124945009e+004,-1.25730487651545e+001,-4.03143481743120e-001

3.43426174575100e+004,-1.25730494760471e+001,-4.08771042799098e-001

3.48220225318448e+004,-1.25730502069037e+001,-4.14477156917757e-001

3.53081198516260e+004,-1.25730509582843e+001,-4.20262920456397e-001

3.58010028371187e+004,-1.25730517307645e+001,-4.26129445068724e-001

3.63007662126863e+004,-1.25730525249363e+001,-4.32077857917574e-001

3.68075060249948e+004,-1.25730533414079e+001,-4.38109301891998e-001

3.73213196614721e+004,-1.25730541808047e+001,-4.44224935824693e-001

3.78423058690237e+004,-1.25730550437695e+001,-4.50425934714888e-001

3.83705647730104e+004,-1.25730559309632e+001,-4.56713489954102e-001

3.89061978964912e+004,-1.25730568430652e+001,-4.63088809553228e-001

3.94493081797342e+004,-1.25730577807738e+001,-4.69553118375493e-001

3.99999999999998e+004,-1.25730587448067e+001,-4.76107658371498e-001

4.05583791916010e+004,-1.25730597359020e+001,-4.82753688814745e-001

4.11245530662425e+004,-1.25730607548180e+001,-4.89492486546107e-001

4.16986304336447e+004,-1.25730618023347e+001,-4.96325346215163e-001

4.22807216224550e+004,-1.25730628792533e+001,-5.03253580532583e-001

4.28709385014515e+004,-1.25730639863979e+001,-5.10278520516537e-001

4.34693945010421e+004,-1.25730651246154e+001,-5.17401515751768e-001

4.40762046350642e+004,-1.25730662947763e+001,-5.24623934646034e-001

4.46914855228886e+004,-1.25730674977754e+001,-5.31947164692910e-001

4.53153554118317e+004,-1.25730687345325e+001,-5.39372612737637e-001

4.59479341998812e+004,-1.25730700059932e+001,-5.46901705246022e-001

4.65893434587380e+004,-1.25730713131293e+001,-5.54535888576868e-001

4.72397064571810e+004,-1.25730726569398e+001,-5.62276629261766e-001

4.78991481847569e+004,-1.25730740384515e+001,-5.70125414281596e-001

4.85677953758016e+004,-1.25730754587199e+001,-5.78083751355290e-001

4.92457765337964e+004,-1.25730769188299e+001,-5.86153169225730e-001

4.99332219560642e+004,-1.25730784198965e+001,-5.94335217952909e-001

5.06302637588109e+004,-1.25730799630660e+001,-6.02631469211502e-001

5.13370359025159e+004,-1.25730815495164e+001,-6.11043516590148e-001

5.20536742176771e+004,-1.25730831804586e+001,-6.19572975897600e-001

5.27803164309155e+004,-1.25730848571373e+001,-6.28221485469989e-001

5.35171021914442e+004,-1.25730865808317e+001,-6.36990706486258e-001

5.42641730979066e+004,-1.25730883528567e+001,-6.45882323285603e-001

5.50216727255895e+004,-1.25730901745636e+001,-6.54898043687565e-001

5.57897466540159e+004,-1.25730920473414e+001,-6.64039599320030e-001

5.65685424949235e+004,-1.25730939726178e+001,-6.73308745950297e-001

5.73582099206328e+004,-1.25730959518599e+001,-6.82707263820077e-001

5.81589006928121e+004,-1.25730979865759e+001,-6.92236957985751e-001

5.89707686916437e+004,-1.25731000783155e+001,-7.01899658664634e-001

5.97939699453972e+004,-1.25731022286718e+001,-7.11697221581072e-001

6.06286626604156e+004,-1.25731044392819e+001,-7.21631528325205e-001

6.14750072515201e+004,-1.25731067118282e+001,-7.31704486708943e-001

6.23331663728396e+004,-1.25731090480399e+001,-7.41918031132665e-001

6.32033049490698e+004,-1.25731114496942e+001,-7.52274122951855e-001

6.40855902071694e+004,-1.25731139186174e+001,-7.62774750854375e-001

6.49801917084985e+004,-1.25731164566863e+001,-7.73421931237790e-001

6.58872813814055e+004,-1.25731190658300e+001,-7.84217708594152e-001

6.68070335542691e+004,-1.25731217480306e+001,-7.95164155901890e-001

6.77396249890018e+004,-1.25731245053251e+001,-8.06263375018817e-001

6.86852349150199e+004,-1.25731273398072e+001,-8.17517497083662e-001

6.96440450636895e+004,-1.25731302536279e+001,-8.28928682923757e-001

7.06162397032520e+004,-1.25731332489978e+001,-8.40499123464714e-001

7.16020056742374e+004,-1.25731363281886e+001,-8.52231040148921e-001

7.26015324253724e+004,-1.25731394935347e+001,-8.64126685359041e-001

7.36150120499896e+004,-1.25731427474350e+001,-8.76188342844978e-001

7.46426393229441e+004,-1.25731460923538e+001,-8.88418328162974e-001

7.56846117380472e+004,-1.25731495308243e+001,-9.00818989110866e-001

7.67411295460207e+004,-1.25731530654487e+001,-9.13392706178889e-001

7.78123957929823e+004,-1.25731566989010e+001,-9.26141893001336e-001

7.88986163594682e+004,-1.25731604339288e+001,-9.39068996815675e-001

7.99999999999995e+004,-1.25731642733550e+001,-9.52176498926959e-001

8.11167583832018e+004,-1.25731682200804e+001,-9.65466915181026e-001

8.22491061324848e+004,-1.25731722770849e+001,-9.78942796441624e-001

8.33972608672892e+004,-1.25731764474304e+001,-9.92606729075538e-001

8.45614432449099e+004,-1.25731807342627e+001,-1.00646133544271e+000

8.57418770029029e+004,-1.25731851408137e+001,-1.02050927439550e+000

8.69387890020841e+004,-1.25731896704036e+001,-1.03475324178264e+000

8.81524092701283e+004,-1.25731943264436e+001,-1.04919597096028e+000

8.93829710457770e+004,-1.25731991124378e+001,-1.06384023331111e+000

9.06307108236633e+004,-1.25732040319862e+001,-1.07868883876930e+000

9.18958683997622e+004,-1.25732090887869e+001,-1.09374463635287e+000

9.31786869174758e+004,-1.25732142866386e+001,-1.10901051470435e+000

9.44794129143618e+004,-1.25732196294437e+001,-1.12448940263742e+000

9.57982963695136e+004,-1.25732251212106e+001,-1.14018426968971e+000

9.71355907516031e+004,-1.25732307660565e+001,-1.15609812668772e+000

9.84915530675926e+004,-1.25732365682104e+001,-1.17223402631351e+000

9.98664439121282e+004,-1.25732425320162e+001,-1.18859506368392e+000

1.01260527517622e+005,-1.25732486619351e+001,-1.20518437693330e+000

1.02674071805032e+005,-1.25732549625495e+001,-1.22200514780884e+000

1.04107348435354e+005,-1.25732614385651e+001,-1.23906060226870e+000

1.05560632861831e+005,-1.25732680948151e+001,-1.25635401109371e+000

1.07034204382888e+005,-1.25732749362628e+001,-1.27388869050099e+000

1.08528346195813e+005,-1.25732819680053e+001,-1.29166800277155e+000

1.10043345451179e+005,-1.25732891952767e+001,-1.30969535688305e+000

1.11579493308032e+005,-1.25732966234519e+001,-1.32797420915256e+000

1.13137084989847e+005,-1.25733042580498e+001,-1.34650806388551e+000

1.14716419841265e+005,-1.25733121047373e+001,-1.36530047403633e+000

1.16317801385624e+005,-1.25733201693331e+001,-1.38435504187616e+000

1.17941537383287e+005,-1.25733284578110e+001,-1.40367541966962e+000

1.19587939890794e+005,-1.25733369763043e+001,-1.42326531036131e+000

1.21257325320831e+005,-1.25733457311099e+001,-1.44312846826948e+000

1.22950014503040e+005,-1.25733547286920e+001,-1.46326869979168e+000

1.24666332745679e+005,-1.25733639756864e+001,-1.48368986411804e+000

1.26406609898139e+005,-1.25733734789048e+001,-1.50439587395320e+000

1.28171180414339e+005,-1.25733832453392e+001,-1.52539069624942e+000

1.29960383416997e+005,-1.25733932821664e+001,-1.54667835295017e+000

1.31774562762811e+005,-1.25734035967523e+001,-1.56826292173896e+000

1.33614067108538e+005,-1.25734141966567e+001,-1.59014853680405e+000

1.35479249978003e+005,-1.25734250896377e+001,-1.61233938960900e+000

1.37370469830040e+005,-1.25734362836573e+001,-1.63483972967362e+000

1.39288090127379e+005,-1.25734477868852e+001,-1.65765386536858e+000

1.41232479406504e+005,-1.25734596077047e+001,-1.68078616471540e+000

1.43204011348474e+005,-1.25734717547174e+001,-1.70424105620039e+000

1.45203064850745e+005,-1.25734842367482e+001,-1.72802302959921e+000

1.47230024099979e+005,-1.25734970628510e+001,-1.75213663680867e+000

1.49285278645888e+005,-1.25735102423138e+001,-1.77658649269390e+000

1.51369223476094e+005,-1.25735237846640e+001,-1.80137727594380e+000

1.53482259092041e+005,-1.25735376996743e+001,-1.82651372993737e+000

1.55624791585964e+005,-1.25735519973684e+001,-1.85200066362252e+000

1.57797232718936e+005,-1.25735666880259e+001,-1.87784295240574e+000

1.59999999999999e+005,-1.25735817821894e+001,-1.90404553905286e+000

1.62233516766403e+005,-1.25735972906693e+001,-1.93061343460190e+000

1.64498212264969e+005,-1.25736132245502e+001,-1.95755171928701e+000

1.66794521734578e+005,-1.25736295951973e+001,-1.98486554347496e+000

1.69122886489819e+005,-1.25736464142618e+001,-2.01256012861283e+000

1.71483754005805e+005,-1.25736636936881e+001,-2.04064076818788e+000

1.73877578004168e+005,-1.25736814457192e+001,-2.06911282870075e+000

1.76304818540256e+005,-1.25736996829038e+001,-2.09798175064978e+000

1.78765942091554e+005,-1.25737184181021e+001,-2.12725304952828e+000

1.81261421647326e+005,-1.25737376644931e+001,-2.15693231683335e+000

1.83791736799524e+005,-1.25737574355805e+001,-2.18702522109045e+000

1.86357373834951e+005,-1.25737777451999e+001,-2.21753750888646e+000

1.88958825828723e+005,-1.25737986075249e+001,-2.24847500592027e+000

1.91596592739027e+005,-1.25738200370746e+001,-2.27984361806306e+000

1.94271181503206e+005,-1.25738420487199e+001,-2.31164933243361e+000

1.96983106135185e+005,-1.25738646576904e+001,-2.34389821848698e+000

1.99732887824256e+005,-1.25738878795814e+001,-2.37659642911544e+000

2.02521055035243e+005,-1.25739117303610e+001,-2.40975020176565e+000

2.05348143610063e+005,-1.25739362263765e+001,-2.44336585956691e+000

2.08214696870707e+005,-1.25739613843616e+001,-2.47744981247550e+000

2.11121265723661e+005,-1.25739872214437e+001,-2.51200855843238e+000

2.14068408765776e+005,-1.25740137551501e+001,-2.54704868453459e+000

2.17056692391625e+005,-1.25740410034155e+001,-2.58257686822220e+000

2.20086690902357e+005,-1.25740689845886e+001,-2.61859987847990e+000

2.23158986616063e+005,-1.25740977174389e+001,-2.65512457705293e+000

2.26274169979693e+005,-1.25741272211637e+001,-2.69215791967624e+000

2.29432839682530e+005,-1.25741575153946e+001,-2.72970695732350e+000

2.32635602771247e+005,-1.25741886202040e+001,-2.76777883746589e+000

2.35883074766574e+005,-1.25742205561122e+001,-2.80638080534940e+000

2.39175879781588e+005,-1.25742533440931e+001,-2.84552020528771e+000

2.42514650641661e+005,-1.25742870055807e+001,-2.88520448197039e+000

2.45900029006080e+005,-1.25743215624758e+001,-2.92544118178575e+000

2.49332665491357e+005,-1.25743570371510e+001,-2.96623795416235e+000

2.52813219796278e+005,-1.25743934524572e+001,-3.00760255292442e+000

2.56342360828676e+005,-1.25744308317288e+001,-3.04954283766597e+000

2.59920766833993e+005,-1.25744691987892e+001,-3.09206677513964e+000

2.63549125525621e+005,-1.25745085779560e+001,-3.13518244066323e+000

2.67228134217075e+005,-1.25745489940452e+001,-3.17889801954496e+000

2.70958499956006e+005,-1.25745904723763e+001,-3.22322180852204e+000

2.74740939660078e+005,-1.25746330387763e+001,-3.26816221722193e+000

2.78576180254757e+005,-1.25746767195831e+001,-3.31372776963625e+000

2.82464958813007e+005,-1.25747215416495e+001,-3.35992710561706e+000

2.86408022696948e+005,-1.25747675323455e+001,-3.40676898238873e+000

2.90406129701488e+005,-1.25748147195610e+001,-3.45426227607875e+000

2.94460048199957e+005,-1.25748631317081e+001,-3.50241598326738e+000

2.98570557291775e+005,-1.25749127977222e+001,-3.55123922255738e+000

3.02738446952187e+005,-1.25749637470626e+001,-3.60074123616166e+000

3.06964518184081e+005,-1.25750160097135e+001,-3.65093139151040e+000

3.11249583171928e+005,-1.25750696161827e+001,-3.70181918287896e+000

3.15594465437872e+005,-1.25751245975011e+001,-3.75341423303640e+000

3.19999999999997e+005,-1.25751809852205e+001,-3.80572629491196e+000

3.24467033532806e+005,-1.25752388114110e+001,-3.85876525328559e+000

3.28996424529938e+005,-1.25752981086574e+001,-3.91254112649762e+000

3.33589043469155e+005,-1.25753589100548e+001,-3.96706406818027e+000

3.38245772979638e+005,-1.25754212492032e+001,-4.02234436901249e+000

3.42967508011610e+005,-1.25754851602009e+001,-4.07839245849440e+000

3.47755156008335e+005,-1.25755506776373e+001,-4.13521890674808e+000

3.52609637080511e+005,-1.25756178365841e+001,-4.19283442633790e+000

3.57531884183106e+005,-1.25756866725852e+001,-4.25124987411801e+000

3.62522843294651e+005,-1.25757572216461e+001,-4.31047625310123e+000

3.67583473599047e+005,-1.25758295202212e+001,-4.37052471435438e+000

3.72714747669902e+005,-1.25759036052000e+001,-4.43140655891807e+000

3.77917651657445e+005,-1.25759795138919e+001,-4.49313323975240e+000

3.83193185478053e+005,-1.25760572840093e+001,-4.55571636370955e+000

3.88542363006410e+005,-1.25761369536493e+001,-4.61916769353251e+000

3.93966212270369e+005,-1.25762185612733e+001,-4.68349914988284e+000

3.99465775648511e+005,-1.25763021456855e+001,-4.74872281339500e+000

4.05042110070485e+005,-1.25763877460091e+001,-4.81485092676164e+000

4.10696287220124e+005,-1.25764754016605e+001,-4.88189589684781e+000

4.16429393741414e+005,-1.25765651523219e+001,-4.94987029683515e+000

4.22242531447321e+005,-1.25766570379114e+001,-5.01878686839972e+000

4.28136817531551e+005,-1.25767510985513e+001,-5.08865852391962e+000

4.34113384783250e+005,-1.25768473745342e+001,-5.15949834871829e+000

4.40173381804713e+005,-1.25769459062862e+001,-5.23131960334009e+000

4.46317973232124e+005,-1.25770467343280e+001,-5.30413572586300e+000

4.52548339959385e+005,-1.25771498992342e+001,-5.37796033424591e+000

4.58865679365059e+005,-1.25772554415889e+001,-5.45280722871490e+000

4.65271205542494e+005,-1.25773634019394e+001,-5.52869039418707e+000

4.71766149533147e+005,-1.25774738207467e+001,-5.60562400273487e+000

4.78351759563174e+005,-1.25775867383336e+001,-5.68362241609137e+000

4.85029301283321e+005,-1.25777021948297e+001,-5.76270018819785e+000

4.91800058012158e+005,-1.25778202301136e+001,-5.84287206779513e+000

4.98665330982714e+005,-1.25779408837516e+001,-5.92415300106062e+000

5.05626439592555e+005,-1.25780641949339e+001,-6.00655813429156e+000

5.12684721657352e+005,-1.25781902024072e+001,-6.09010281663733e+000

5.19841533667984e+005,-1.25783189444044e+001,-6.17480260288068e+000

5.27098251051240e+005,-1.25784504585707e+001,-6.26067325627165e+000

5.34456268434150e+005,-1.25785847818865e+001,-6.34773075141427e+000

5.41916999912011e+005,-1.25787219505870e+001,-6.43599127720828e+000

