Freq.,VOut,OutRef

1.00000000000000e+004,-1.27189033961831e+001,-1.91251589746504e-001

1.01395947979003e+004,-1.27189034174886e+001,-1.93921361443485e-001

1.02811382665607e+004,-1.27189034393931e+001,-1.96628401721837e-001

1.04246576084112e+004,-1.27189034619131e+001,-1.99373230830642e-001

1.05701804056138e+004,-1.27189034850662e+001,-2.02156376278956e-001

1.07177346253629e+004,-1.27189035088703e+001,-2.04978372941088e-001

1.08673486252606e+004,-1.27189035333434e+001,-2.07839763158704e-001

1.10190511587661e+004,-1.27189035585044e+001,-2.10741096842871e-001

1.11728713807222e+004,-1.27189035843728e+001,-2.13682931580626e-001

1.13288388529580e+004,-1.27189036109681e+001,-2.16665832744871e-001

1.14869835499703e+004,-1.27189036383112e+001,-2.19690373597459e-001

1.16473358646846e+004,-1.27189036664228e+001,-2.22757135404724e-001

1.18099266142953e+004,-1.27189036953246e+001,-2.25866707547025e-001

1.19747870461893e+004,-1.27189037250388e+001,-2.29019687631841e-001

1.21419488439505e+004,-1.27189037555882e+001,-2.32216681607804e-001

1.23114441334492e+004,-1.27189037869963e+001,-2.35458303883308e-001

1.24833054890161e+004,-1.27189038192873e+001,-2.38745177443002e-001

1.26575659397028e+004,-1.27189038524859e+001,-2.42077933967942e-001

1.28342589756290e+004,-1.27189038866176e+001,-2.45457213957479e-001

1.30134185544193e+004,-1.27189039217087e+001,-2.48883666851483e-001

1.31950791077289e+004,-1.27189039577861e+001,-2.52357951155289e-001

1.33792755478611e+004,-1.27189039948776e+001,-2.55880734566339e-001

1.35660432744767e+004,-1.27189040330116e+001,-2.59452694103230e-001

1.37554181813974e+004,-1.27189040722175e+001,-2.63074516234408e-001

1.39474366635040e+004,-1.27189041125254e+001,-2.66746897012405e-001

1.41421356237309e+004,-1.27189041539661e+001,-2.70470542204973e-001

1.43395524801583e+004,-1.27189041965716e+001,-2.74246167431462e-001

1.45397251732031e+004,-1.27189042403746e+001,-2.78074498301193e-001

1.47426921729110e+004,-1.27189042854088e+001,-2.81956270552276e-001

1.49484924863494e+004,-1.27189043317086e+001,-2.85892230194086e-001

1.51571656651040e+004,-1.27189043793097e+001,-2.89883133648528e-001

1.53687518128801e+004,-1.27189044282488e+001,-2.93929747895594e-001

1.55832915932100e+004,-1.27189044785632e+001,-2.98032850624972e-001

1.58008262372675e+004,-1.27189045302918e+001,-3.02193230378542e-001

1.60213975517924e+004,-1.27189045834741e+001,-3.06411686708324e-001

1.62450479271247e+004,-1.27189046381511e+001,-3.10689030325513e-001

1.64718203453514e+004,-1.27189046943649e+001,-3.15026083258676e-001

1.67017583885674e+004,-1.27189047521584e+001,-3.19423679012266e-001

1.69349062472505e+004,-1.27189048115761e+001,-3.23882662724313e-001

1.71713087287550e+004,-1.27189048726637e+001,-3.28403891330827e-001

1.74110112659224e+004,-1.27189049354680e+001,-3.32988233729132e-001

1.76540599258131e+004,-1.27189050000374e+001,-3.37636570946804e-001

1.79005014185594e+004,-1.27189050664213e+001,-3.42349796308721e-001

1.81503831063432e+004,-1.27189051346706e+001,-3.47128815610667e-001

1.84037530124975e+004,-1.27189052048381e+001,-3.51974547290599e-001

1.86606598307361e+004,-1.27189052769772e+001,-3.56887922609883e-001

1.89211529345119e+004,-1.27189053511435e+001,-3.61869885826553e-001

1.91852823865052e+004,-1.27189054273941e+001,-3.66921394380774e-001

1.94530989482457e+004,-1.27189055057873e+001,-3.72043419077936e-001

1.97246540898671e+004,-1.27189055863834e+001,-3.77236944273794e-001

1.99999999999999e+004,-1.27189056692442e+001,-3.82502968066266e-001

2.02791895958005e+004,-1.27189057544332e+001,-3.87842502484630e-001

2.05622765331213e+004,-1.27189058420161e+001,-3.93256573684434e-001

2.08493152168224e+004,-1.27189059320600e+001,-3.98746222145525e-001

2.11403608112276e+004,-1.27189060246338e+001,-4.04312502873183e-001

2.14354692507258e+004,-1.27189061198088e+001,-4.09956485598195e-001

2.17346972505211e+004,-1.27189062176580e+001,-4.15679254982645e-001

2.20381023175322e+004,-1.27189063182563e+001,-4.21481910831016e-001

2.23457427614443e+004,-1.27189064216812e+001,-4.27365568298637e-001

2.26576777059159e+004,-1.27189065280118e+001,-4.33331358108144e-001

2.29739670999406e+004,-1.27189066373297e+001,-4.39380426763905e-001

2.32946717293690e+004,-1.27189067497190e+001,-4.45513936775497e-001

2.36198532285905e+004,-1.27189068652658e+001,-4.51733066879113e-001

2.39495740923785e+004,-1.27189069840587e+001,-4.58039012265171e-001

2.42838976879009e+004,-1.27189071061889e+001,-4.64432984806634e-001

2.46228882668982e+004,-1.27189072317500e+001,-4.70916213293221e-001

2.49666109780322e+004,-1.27189073608383e+001,-4.77489943666919e-001

2.53151318794055e+004,-1.27189074935530e+001,-4.84155439260382e-001

2.56685179512580e+004,-1.27189076299957e+001,-4.90913981041427e-001

2.60268371088386e+004,-1.27189077702711e+001,-4.97766867858931e-001

2.63901582154578e+004,-1.27189079144866e+001,-5.04715416691045e-001

2.67585510957221e+004,-1.27189080627530e+001,-5.11760962898583e-001

2.71320865489533e+004,-1.27189082151839e+001,-5.18904860483118e-001

2.75108363627948e+004,-1.27189083718963e+001,-5.26148482344818e-001

2.78948733270080e+004,-1.27189085330101e+001,-5.33493220549062e-001

2.82842712474618e+004,-1.27189086986488e+001,-5.40940486590686e-001

2.86791049603164e+004,-1.27189088689396e+001,-5.48491711667303e-001

2.90794503464061e+004,-1.27189090440129e+001,-5.56148346953994e-001

2.94853843458219e+004,-1.27189092240026e+001,-5.63911863881843e-001

2.98969849726987e+004,-1.27189094090471e+001,-5.71783754419299e-001

3.03143313302078e+004,-1.27189095992877e+001,-5.79765531362730e-001

3.07375036257601e+004,-1.27189097948706e+001,-5.87858728621315e-001

3.11665831864199e+004,-1.27189099959453e+001,-5.96064901517055e-001

3.16016524745350e+004,-1.27189102026660e+001,-6.04385627080884e-001

3.20427951035848e+004,-1.27189104151908e+001,-6.12822504356414e-001

3.24900958542493e+004,-1.27189106336827e+001,-6.21377154705410e-001

3.29436406907028e+004,-1.27189108583089e+001,-6.30051222122716e-001

3.34035167771346e+004,-1.27189110892415e+001,-6.38846373547957e-001

3.38698124945009e+004,-1.27189113266571e+001,-6.47764299190628e-001

3.43426174575100e+004,-1.27189115707376e+001,-6.56806712848825e-001

3.48220225318448e+004,-1.27189118216696e+001,-6.65975352244155e-001

3.53081198516260e+004,-1.27189120796454e+001,-6.75271979351584e-001

3.58010028371187e+004,-1.27189123448622e+001,-6.84698380740488e-001

3.63007662126863e+004,-1.27189126175230e+001,-6.94256367915325e-001

3.68075060249948e+004,-1.27189128978364e+001,-7.03947777666778e-001

3.73213196614721e+004,-1.27189131860168e+001,-7.13774472421203e-001

3.78423058690237e+004,-1.27189134822845e+001,-7.23738340600714e-001

3.83705647730104e+004,-1.27189137868660e+001,-7.33841296985199e-001

3.89061978964912e+004,-1.27189140999945e+001,-7.44085283079513e-001

3.94493081797342e+004,-1.27189144219089e+001,-7.54472267488147e-001

3.99999999999998e+004,-1.27189147528555e+001,-7.65004246290769e-001

4.05583791916010e+004,-1.27189150930872e+001,-7.75683243427414e-001

4.11245530662425e+004,-1.27189154428639e+001,-7.86511311087301e-001

4.16986304336447e+004,-1.27189158024528e+001,-7.97490530101616e-001

4.22807216224550e+004,-1.27189161721286e+001,-8.08623010345076e-001

4.28709385014515e+004,-1.27189165521735e+001,-8.19910891139124e-001

4.34693945010421e+004,-1.27189169428777e+001,-8.31356341663623e-001

4.40762046350642e+004,-1.27189173445394e+001,-8.42961561374963e-001

4.46914855228886e+004,-1.27189177574652e+001,-8.54728780425210e-001

4.53153554118317e+004,-1.27189181819701e+001,-8.66660260093166e-001

4.59479341998812e+004,-1.27189186183780e+001,-8.78758293218117e-001

4.65893434587380e+004,-1.27189190670217e+001,-8.91025204638458e-001

4.72397064571810e+004,-1.27189195282434e+001,-9.03463351639694e-001

4.78991481847569e+004,-1.27189200023947e+001,-9.16075124407737e-001

4.85677953758016e+004,-1.27189204898368e+001,-9.28862946486113e-001

4.92457765337964e+004,-1.27189209909412e+001,-9.41829275241738e-001

4.99332219560642e+004,-1.27189215060898e+001,-9.54976602337317e-001

5.06302637588109e+004,-1.27189220356749e+001,-9.68307454209973e-001

5.13370359025159e+004,-1.27189225800995e+001,-9.81824392555575e-001

5.20536742176771e+004,-1.27189231397782e+001,-9.95530014821190e-001

5.27803164309155e+004,-1.27189237151369e+001,-1.00942695470243e+000

5.35171021914442e+004,-1.27189243066131e+001,-1.02351788265176e+000

5.42641730979066e+004,-1.27189249146570e+001,-1.03780550638744e+000

5.50216727255895e+004,-1.27189255397305e+001,-1.05229257141808e+000

5.57897466540159e+004,-1.27189261823090e+001,-1.06698186156409e+000

5.65685424949235e+004,-1.27189268428807e+001,-1.08187619949691e+000

5.73582099206328e+004,-1.27189275219472e+001,-1.09697844727875e+000

5.81589006928121e+004,-1.27189282200242e+001,-1.11229150691130e+000

5.89707686916437e+004,-1.27189289376416e+001,-1.12781832089411e+000

5.97939699453972e+004,-1.27189296753438e+001,-1.14356187278934e+000

6.06286626604156e+004,-1.27189304336904e+001,-1.15952518779253e+000

6.14750072515201e+004,-1.27189312132565e+001,-1.17571133331571e+000

6.23331663728396e+004,-1.27189320146327e+001,-1.19212341957513e+000

6.32033049490698e+004,-1.27189328384264e+001,-1.20876460018649e+000

6.40855902071694e+004,-1.27189336852611e+001,-1.22563807277326e+000

6.49801917084985e+004,-1.27189345557781e+001,-1.24274707957726e+000

6.58872813814055e+004,-1.27189354506359e+001,-1.26009490808294e+000

6.68070335542691e+004,-1.27189363705114e+001,-1.27768489164692e+000

6.77396249890018e+004,-1.27189373160999e+001,-1.29552041013863e+000

6.86852349150199e+004,-1.27189382881159e+001,-1.31360489058662e+000

6.96440450636895e+004,-1.27189392872933e+001,-1.33194180783988e+000

7.06162397032520e+004,-1.27189403143866e+001,-1.35053468523006e+000

7.16020056742374e+004,-1.27189413701705e+001,-1.36938709525017e+000

7.26015324253724e+004,-1.27189424554411e+001,-1.38850266023964e+000

7.36150120499896e+004,-1.27189435710162e+001,-1.40788505307842e+000

7.46426393229441e+004,-1.27189447177363e+001,-1.42753799789059e+000

7.56846117380472e+004,-1.27189458964644e+001,-1.44746527076126e+000

7.67411295460207e+004,-1.27189471080874e+001,-1.46767070045818e+000

7.78123957929823e+004,-1.27189483535161e+001,-1.48815816916746e+000

7.88986163594682e+004,-1.27189496336864e+001,-1.50893161323731e+000

7.99999999999995e+004,-1.27189509495596e+001,-1.52999502393348e+000

8.11167583832018e+004,-1.27189523021229e+001,-1.55135244820367e+000

8.22491061324848e+004,-1.27189536923907e+001,-1.57300798945463e+000

8.33972608672892e+004,-1.27189551214049e+001,-1.59496580833711e+000

8.45614432449099e+004,-1.27189565902353e+001,-1.61723012354533e+000

8.57418770029029e+004,-1.27189580999811e+001,-1.63980521262456e+000

8.69387890020841e+004,-1.27189596517710e+001,-1.66269541279125e+000

8.81524092701283e+004,-1.27189612467643e+001,-1.68590512176466e+000

8.93829710457770e+004,-1.27189628861517e+001,-1.70943879860891e+000

9.06307108236633e+004,-1.27189645711557e+001,-1.73330096458869e+000

9.18958683997622e+004,-1.27189663030322e+001,-1.75749620403378e+000

9.31786869174758e+004,-1.27189680830705e+001,-1.78202916521969e+000

9.44794129143618e+004,-1.27189699125947e+001,-1.80690456125645e+000

9.57982963695136e+004,-1.27189717929644e+001,-1.83212717099228e+000

9.71355907516031e+004,-1.27189737255758e+001,-1.85770183992921e+000

9.84915530675926e+004,-1.27189757118622e+001,-1.88363348115067e+000

9.98664439121282e+004,-1.27189777532954e+001,-1.90992707626268e+000

1.01260527517622e+005,-1.27189798513863e+001,-1.93658767634865e+000

1.02674071805032e+005,-1.27189820076863e+001,-1.96362040293461e+000

1.04107348435354e+005,-1.27189842237879e+001,-1.99103044897214e+000

1.05560632861831e+005,-1.27189865013258e+001,-2.01882307983151e+000

1.07034204382888e+005,-1.27189888419783e+001,-2.04700363430957e+000

1.08528346195813e+005,-1.27189912474679e+001,-2.07557752565227e+000

1.10043345451179e+005,-1.27189937195626e+001,-2.10455024259009e+000

1.11579493308032e+005,-1.27189962600774e+001,-2.13392735038864e+000

1.13137084989847e+005,-1.27189988708745e+001,-2.16371449191454e+000

1.14716419841265e+005,-1.27190015538654e+001,-2.19391738871363e+000

1.16317801385624e+005,-1.27190043110115e+001,-2.22454184210705e+000

1.17941537383287e+005,-1.27190071443258e+001,-2.25559373429957e+000

1.19587939890794e+005,-1.27190100558735e+001,-2.28707902950655e+000

1.21257325320831e+005,-1.27190130477737e+001,-2.31900377509234e+000

1.22950014503040e+005,-1.27190161222008e+001,-2.35137410272908e+000

1.24666332745679e+005,-1.27190192813852e+001,-2.38419622956741e+000

1.26406609898139e+005,-1.27190225276153e+001,-2.41747645942565e+000

1.28171180414339e+005,-1.27190258632383e+001,-2.45122118399500e+000

1.29960383416997e+005,-1.27190292906618e+001,-2.48543688406152e+000

1.31774562762811e+005,-1.27190328123554e+001,-2.52013013074327e+000

1.33614067108538e+005,-1.27190364308516e+001,-2.55530758674769e+000

1.35479249978003e+005,-1.27190401487476e+001,-2.59097600764346e+000

1.37370469830040e+005,-1.27190439687068e+001,-2.62714224315177e+000

1.39288090127379e+005,-1.27190478934599e+001,-2.66381323845379e+000

1.41232479406504e+005,-1.27190519258068e+001,-2.70099603551784e+000

1.43204011348474e+005,-1.27190560686180e+001,-2.73869777444330e+000

1.45203064850745e+005,-1.27190603248358e+001,-2.77692569482455e+000

1.47230024099979e+005,-1.27190646974763e+001,-2.81568713713272e+000

1.49285278645888e+005,-1.27190691896308e+001,-2.85498954411645e+000

1.51369223476094e+005,-1.27190738044673e+001,-2.89484046222237e+000

1.53482259092041e+005,-1.27190785452321e+001,-2.93524754303496e+000

1.55624791585964e+005,-1.27190834152518e+001,-2.97621854473662e+000

1.57797232718936e+005,-1.27190884179341e+001,-3.01776133358689e+000

1.59999999999999e+005,-1.27190935567704e+001,-3.05988388542318e+000

1.62233516766403e+005,-1.27190988353369e+001,-3.10259428718093e+000

1.64498212264969e+005,-1.27191042572961e+001,-3.14590073843625e+000

1.66794521734578e+005,-1.27191098263990e+001,-3.18981155296830e+000

1.69122886489819e+005,-1.27191155464865e+001,-3.23433516034350e+000

1.71483754005805e+005,-1.27191214214910e+001,-3.27948010752240e+000

1.73877578004168e+005,-1.27191274554380e+001,-3.32525506048797e+000

1.76304818540256e+005,-1.27191336524484e+001,-3.37166880589542e+000

1.78765942091554e+005,-1.27191400167393e+001,-3.41873025274693e+000

1.81261421647326e+005,-1.27191465526261e+001,-3.46644843408716e+000

1.83791736799524e+005,-1.27191532645246e+001,-3.51483250872273e+000

1.86357373834951e+005,-1.27191601569516e+001,-3.56389176296674e+000

1.88958825828723e+005,-1.27191672345276e+001,-3.61363561240478e+000

1.91596592739027e+005,-1.27191745019779e+001,-3.66407360368705e+000

1.94271181503206e+005,-1.27191819641339e+001,-3.71521541634511e+000

1.96983106135185e+005,-1.27191896259356e+001,-3.76707086463146e+000

1.99732887824256e+005,-1.27191974924322e+001,-3.81964989938742e+000

2.02521055035243e+005,-1.27192055687841e+001,-3.87296260993454e+000

2.05348143610063e+005,-1.27192138602642e+001,-3.92701922599277e+000

2.08214696870707e+005,-1.27192223722595e+001,-3.98183011962477e+000

2.11121265723661e+005,-1.27192311102722e+001,-4.03740580720689e+000

2.14068408765776e+005,-1.27192400799214e+001,-4.09375695142740e+000

2.17056692391625e+005,-1.27192492869440e+001,-4.15089436331180e+000

2.20086690902357e+005,-1.27192587371961e+001,-4.20882900427736e+000

2.23158986616063e+005,-1.27192684366539e+001,-4.26757198821317e+000

2.26274169979693e+005,-1.27192783914151e+001,-4.32713458359144e+000

2.29432839682530e+005,-1.27192886076996e+001,-4.38752821560668e+000

2.32635602771247e+005,-1.27192990918502e+001,-4.44876446834442e+000

2.35883074766574e+005,-1.27193098503339e+001,-4.51085508697892e+000

2.39175879781588e+005,-1.27193208897417e+001,-4.57381198000335e+000

2.42514650641661e+005,-1.27193322167899e+001,-4.63764722148823e+000

2.45900029006080e+005,-1.27193438383201e+001,-4.70237305337233e+000

2.49332665491357e+005,-1.27193557612994e+001,-4.76800188778510e+000

2.52813219796278e+005,-1.27193679928206e+001,-4.83454630940054e+000

2.56342360828676e+005,-1.27193805401021e+001,-4.90201907782404e+000

2.59920766833993e+005,-1.27193934104874e+001,-4.97043313001180e+000

2.63549125525621e+005,-1.27194066114450e+001,-5.03980158272465e+000

2.67228134217075e+005,-1.27194201505675e+001,-5.11013773501404e+000

2.70958499956006e+005,-1.27194340355708e+001,-5.18145507074414e+000

2.74740939660078e+005,-1.27194482742929e+001,-5.25376726114802e+000

2.78576180254757e+005,-1.27194628746927e+001,-5.32708816741966e+000

2.82464958813007e+005,-1.27194778448481e+001,-5.40143184334163e+000

2.86408022696948e+005,-1.27194931929545e+001,-5.47681253794939e+000

2.90406129701488e+005,-1.27195089273222e+001,-5.55324469823321e+000

2.94460048199957e+005,-1.27195250563741e+001,-5.63074297187671e+000

2.98570557291775e+005,-1.27195415886429e+001,-5.70932221003460e+000

3.02738446952187e+005,-1.27195585327674e+001,-5.78899747014925e+000

3.06964518184081e+005,-1.27195758974898e+001,-5.86978401880585e+000

3.11249583171928e+005,-1.27195936916511e+001,-5.95169733462817e+000

3.15594465437872e+005,-1.27196119241869e+001,-6.03475311121556e+000

3.19999999999997e+005,-1.27196306041225e+001,-6.11896726012077e+000

3.24467033532806e+005,-1.27196497405677e+001,-6.20435591386951e+000

3.28996424529938e+005,-1.27196693427112e+001,-6.29093542902359e+000

3.33589043469155e+005,-1.27196894198141e+001,-6.37872238928691e+000

3.38245772979638e+005,-1.27197099812030e+001,-6.46773360865604e+000

3.42967508011610e+005,-1.27197310362632e+001,-6.55798613461544e+000

3.47755156008335e+005,-1.27197525944301e+001,-6.64949725137813e+000

3.52609637080511e+005,-1.27197746651813e+001,-6.74228448317387e+000

3.57531884183106e+005,-1.27197972580267e+001,-6.83636559758399e+000

3.62522843294651e+005,-1.27198203824993e+001,-6.93175860892378e+000

3.67583473599047e+005,-1.27198440481445e+001,-7.02848178167528e+000

3.72714747669902e+005,-1.27198682645084e+001,-7.12655363396900e+000

3.77917651657445e+005,-1.27198930411264e+001,-7.22599294111663e+000

3.83193185478053e+005,-1.27199183875100e+001,-7.32681873919579e+000

3.88542363006410e+005,-1.27199443131334e+001,-7.42905032868730e+000

3.93966212270369e+005,-1.27199708274189e+001,-7.53270727816653e+000

3.99465775648511e+005,-1.27199979397217e+001,-7.63780942804853e+000

4.05042110070485e+005,-1.27200256593134e+001,-7.74437689439087e+000

4.10696287220124e+005,-1.27200539953652e+001,-7.85243007275101e+000

4.16429393741414e+005,-1.27200829569296e+001,-7.96198964210440e+000

4.22242531447321e+005,-1.27201125529212e+001,-8.07307656881913e+000

4.28136817531551e+005,-1.27201427920965e+001,-8.18571211069343e+000

4.34113384783250e+005,-1.27201736830332e+001,-8.29991782105320e+000

4.40173381804713e+005,-1.27202052341070e+001,-8.41571555291328e+000

4.46317973232124e+005,-1.27202374534693e+001,-8.53312746320256e+000

4.52548339959385e+005,-1.27202703490217e+001,-8.65217601705572e+000

4.58865679365059e+005,-1.27203039283911e+001,-8.77288399217062e+000

4.65271205542494e+005,-1.27203381989024e+001,-8.89527448323548e+000

4.71766149533147e+005,-1.27203731675505e+001,-9.01937090642523e+000

4.78351759563174e+005,-1.27204088409712e+001,-9.14519700397009e+000

4.85029301283321e+005,-1.27204452254108e+001,-9.27277684879678e+000

4.91800058012158e+005,-1.27204823266941e+001,-9.40213484924530e+000

4.98665330982714e+005,-1.27205201501917e+001,-9.53329575386069e+000

5.05626439592555e+005,-1.27205587007856e+001,-9.66628465626508e+000

5.12684721657352e+005,-1.27205979828337e+001,-9.80112700010864e+000

5.19841533667984e+005,-1.27206380001333e+001,-9.93784858410195e+000

5.27098251051240e+005,-1.27206787558831e+001,-1.00764755671339e+001

5.34456268434150e+005,-1.27207202526438e+001,-1.02170344734736e+001

5.41916999912011e+005,-1.27207624922977e+001,-1.03595521980609e+001

