Freq.,VOut,OutRef

1.00000000000000e+004,-2.09949915784170e+001,-2.47223937595104e-001

1.01395947979003e+004,-2.09949923416282e+001,-2.50675044155909e-001

1.02811382665607e+004,-2.09949931262959e+001,-2.54174325901739e-001

1.04246576084112e+004,-2.09949939330232e+001,-2.57722455313229e-001

1.05701804056138e+004,-2.09949947624303e+001,-2.61320114258422e-001

1.07177346253629e+004,-2.09949956151549e+001,-2.64967994121180e-001

1.08673486252606e+004,-2.09949964918524e+001,-2.68666795937739e-001

1.10190511587661e+004,-2.09949973931969e+001,-2.72417230528456e-001

1.11728713807222e+004,-2.09949983198811e+001,-2.76220018635380e-001

1.13288388529580e+004,-2.09949992726173e+001,-2.80075891061379e-001

1.14869835499703e+004,-2.09950002521383e+001,-2.83985588808729e-001

1.16473358646846e+004,-2.09950012591967e+001,-2.87949863223910e-001

1.18099266142953e+004,-2.09950022945668e+001,-2.91969476139668e-001

1.19747870461893e+004,-2.09950033590445e+001,-2.96045200022543e-001

1.21419488439505e+004,-2.09950044534481e+001,-3.00177818121526e-001

1.23114441334492e+004,-2.09950055786189e+001,-3.04368124616998e-001

1.24833054890161e+004,-2.09950067354218e+001,-3.08616924775140e-001

1.26575659397028e+004,-2.09950079247461e+001,-3.12925035101682e-001

1.28342589756290e+004,-2.09950091475062e+001,-3.17293283498342e-001

1.30134185544193e+004,-2.09950104046418e+001,-3.21722509422934e-001

1.31950791077289e+004,-2.09950116971194e+001,-3.26213564050049e-001

1.33792755478611e+004,-2.09950130259326e+001,-3.30767310433974e-001

1.35660432744767e+004,-2.09950143921026e+001,-3.35384623676267e-001

1.37554181813974e+004,-2.09950157966800e+001,-3.40066391090185e-001

1.39474366635040e+004,-2.09950172407444e+001,-3.44813512374820e-001

1.41421356237309e+004,-2.09950187254057e+001,-3.49626899788373e-001

1.43395524801583e+004,-2.09950202518053e+001,-3.54507478318367e-001

1.45397251732031e+004,-2.09950218211164e+001,-3.59456185865459e-001

1.47426921729110e+004,-2.09950234345455e+001,-3.64473973417434e-001

1.49484924863494e+004,-2.09950250933328e+001,-3.69561805237935e-001

1.51571656651040e+004,-2.09950267987534e+001,-3.74720659047738e-001

1.53687518128801e+004,-2.09950285521182e+001,-3.79951526212556e-001

1.55832915932100e+004,-2.09950303547751e+001,-3.85255411935077e-001

1.58008262372675e+004,-2.09950322081097e+001,-3.90633335447667e-001

1.60213975517924e+004,-2.09950341135467e+001,-3.96086330207525e-001

1.62450479271247e+004,-2.09950360725508e+001,-4.01615444095127e-001

1.64718203453514e+004,-2.09950380866277e+001,-4.07221739615819e-001

1.67017583885674e+004,-2.09950401573258e+001,-4.12906294102575e-001

1.69349062472505e+004,-2.09950422862367e+001,-4.18670199925603e-001

1.71713087287550e+004,-2.09950444749969e+001,-4.24514564699477e-001

1.74110112659224e+004,-2.09950467252888e+001,-4.30440511496881e-001

1.76540599258131e+004,-2.09950490388421e+001,-4.36449179063901e-001

1.79005014185594e+004,-2.09950514174352e+001,-4.42541722039449e-001

1.81503831063432e+004,-2.09950538628965e+001,-4.48719311175865e-001

1.84037530124975e+004,-2.09950563771056e+001,-4.54983133564282e-001

1.86606598307361e+004,-2.09950589619952e+001,-4.61334392861487e-001

1.89211529345119e+004,-2.09950616195522e+001,-4.67774309523325e-001

1.91852823865052e+004,-2.09950643518191e+001,-4.74304121037420e-001

1.94530989482457e+004,-2.09950671608964e+001,-4.80925082159273e-001

1.97246540898671e+004,-2.09950700489430e+001,-4.87638465156000e-001

1.99999999999999e+004,-2.09950730181790e+001,-4.94445560049287e-001

2.02791895958005e+004,-2.09950760708866e+001,-5.01347674861728e-001

2.05622765331213e+004,-2.09950792094122e+001,-5.08346135870219e-001

2.08493152168224e+004,-2.09950824361681e+001,-5.15442287859090e-001

2.11403608112276e+004,-2.09950857536346e+001,-5.22637494377837e-001

2.14354692507258e+004,-2.09950891643615e+001,-5.29933138003633e-001

2.17346972505211e+004,-2.09950926709704e+001,-5.37330620607562e-001

2.20381023175322e+004,-2.09950962761565e+001,-5.44831363620198e-001

2.23457427614443e+004,-2.09950999826908e+001,-5.52436808308619e-001

2.26576777059159e+004,-2.09951037934222e+001,-5.60148416049816e-001

2.29739670999406e+004,-2.09951077112795e+001,-5.67967668612895e-001

2.32946717293690e+004,-2.09951117392741e+001,-5.75896068441652e-001

2.36198532285905e+004,-2.09951158805019e+001,-5.83935138945063e-001

2.39495740923785e+004,-2.09951201381457e+001,-5.92086424787555e-001

2.42838976879009e+004,-2.09951245154778e+001,-6.00351492186538e-001

2.46228882668982e+004,-2.09951290158626e+001,-6.08731929211932e-001

2.49666109780322e+004,-2.09951336427590e+001,-6.17229346091265e-001

2.53151318794055e+004,-2.09951383997229e+001,-6.25845375518900e-001

2.56685179512580e+004,-2.09951432904104e+001,-6.34581672967869e-001

2.60268371088386e+004,-2.09951483185804e+001,-6.43439917008413e-001

2.63901582154578e+004,-2.09951534880971e+001,-6.52421809630518e-001

2.67585510957221e+004,-2.09951588029335e+001,-6.61529076568360e-001

2.71320865489533e+004,-2.09951642671743e+001,-6.70763467633017e-001

2.75108363627948e+004,-2.09951698850188e+001,-6.80126757046829e-001

2.78948733270080e+004,-2.09951756607845e+001,-6.89620743783535e-001

2.82842712474618e+004,-2.09951815989102e+001,-6.99247251913891e-001

2.86791049603164e+004,-2.09951877039592e+001,-7.09008130955392e-001

2.90794503464061e+004,-2.09951939806234e+001,-7.18905256225037e-001

2.94853843458219e+004,-2.09952004337264e+001,-7.28940529201090e-001

2.98969849726987e+004,-2.09952070682271e+001,-7.39115877886243e-001

3.03143313302078e+004,-2.09952138892240e+001,-7.49433257177036e-001

3.07375036257601e+004,-2.09952209019588e+001,-7.59894649238918e-001

3.11665831864199e+004,-2.09952281118205e+001,-7.70502063885278e-001

3.16016524745350e+004,-2.09952355243494e+001,-7.81257538963747e-001

3.20427951035848e+004,-2.09952431452419e+001,-7.92163140744479e-001

3.24900958542493e+004,-2.09952509803537e+001,-8.03220964319470e-001

3.29436406907028e+004,-2.09952590357057e+001,-8.14433133999505e-001

3.34035167771346e+004,-2.09952673174877e+001,-8.25801803723714e-001

3.38698124945009e+004,-2.09952758320633e+001,-8.37329157472319e-001

3.43426174575100e+004,-2.09952845859750e+001,-8.49017409683013e-001

3.48220225318448e+004,-2.09952935859492e+001,-8.60868805675598e-001

3.53081198516260e+004,-2.09953028389012e+001,-8.72885622083245e-001

3.58010028371187e+004,-2.09953123519404e+001,-8.85070167285961e-001

3.63007662126863e+004,-2.09953221323762e+001,-8.97424781853858e-001

3.68075060249948e+004,-2.09953321877233e+001,-9.09951838994257e-001

3.73213196614721e+004,-2.09953425257072e+001,-9.22653745007518e-001

3.78423058690237e+004,-2.09953531542708e+001,-9.35532939744575e-001

3.83705647730104e+004,-2.09953640815798e+001,-9.48591897076098e-001

3.89061978964912e+004,-2.09953753160296e+001,-9.61833125364411e-001

3.94493081797342e+004,-2.09953868662511e+001,-9.75259167943806e-001

3.99999999999998e+004,-2.09953987411179e+001,-9.88872603606623e-001

4.05583791916010e+004,-2.09954109497526e+001,-1.00267604709608e+000

4.11245530662425e+004,-2.09954235015342e+001,-1.01667214960687e+000

4.16986304336447e+004,-2.09954364061050e+001,-1.03086359929109e+000

4.22807216224550e+004,-2.09954496733781e+001,-1.04525312177211e+000

4.28709385014515e+004,-2.09954633135453e+001,-1.05984348066551e+000

4.34693945010421e+004,-2.09954773370842e+001,-1.07463747810746e+000

4.40762046350642e+004,-2.09954917547668e+001,-1.08963795528960e+000

4.46914855228886e+004,-2.09955065776678e+001,-1.10484779300110e+000

4.53153554118317e+004,-2.09955218171725e+001,-1.12026991217979e+000

4.59479341998812e+004,-2.09955374849864e+001,-1.13590727446902e+000

4.65893434587380e+004,-2.09955535931432e+001,-1.15176288278322e+000

4.72397064571810e+004,-2.09955701540147e+001,-1.16783978188145e+000

4.78991481847569e+004,-2.09955871803201e+001,-1.18414105894702e+000

4.85677953758016e+004,-2.09956046851357e+001,-1.20066984417830e+000

4.92457765337964e+004,-2.09956226819049e+001,-1.21742931138388e+000

4.99332219560642e+004,-2.09956411844484e+001,-1.23442267858881e+000

5.06302637588109e+004,-2.09956602069752e+001,-1.25165320864821e+000

5.13370359025159e+004,-2.09956797640926e+001,-1.26912420986863e+000

5.20536742176771e+004,-2.09956998708187e+001,-1.28683903663847e+000

5.27803164309155e+004,-2.09957205425924e+001,-1.30480109006741e+000

5.35171021914442e+004,-2.09957417952865e+001,-1.32301381863389e+000

5.42641730979066e+004,-2.09957636452191e+001,-1.34148071884161e+000

5.50216727255895e+004,-2.09957861091662e+001,-1.36020533588611e+000

5.57897466540159e+004,-2.09958092043748e+001,-1.37919126432750e+000

5.65685424949235e+004,-2.09958329485756e+001,-1.39844214877673e+000

5.73582099206328e+004,-2.09958573599971e+001,-1.41796168458704e+000

5.81589006928121e+004,-2.09958824573793e+001,-1.43775361855703e+000

5.89707686916437e+004,-2.09959082599880e+001,-1.45782174964407e+000

5.97939699453972e+004,-2.09959347876293e+001,-1.47816992968439e+000

6.06286626604156e+004,-2.09959620606652e+001,-1.49880206412616e+000

6.14750072515201e+004,-2.09959901000290e+001,-1.51972211277073e+000

6.23331663728396e+004,-2.09960189272411e+001,-1.54093409052408e+000

6.32033049490698e+004,-2.09960485644255e+001,-1.56244206815982e+000

6.40855902071694e+004,-2.09960790343268e+001,-1.58425017309009e+000

6.49801917084985e+004,-2.09961103603275e+001,-1.60636259014995e+000

6.58872813814055e+004,-2.09961425664661e+001,-1.62878356238873e+000

6.68070335542691e+004,-2.09961756774548e+001,-1.65151739187585e+000

6.77396249890018e+004,-2.09962097186989e+001,-1.67456844051560e+000

6.86852349150199e+004,-2.09962447163164e+001,-1.69794113087156e+000

6.96440450636895e+004,-2.09962806971569e+001,-1.72163994700560e+000

7.06162397032520e+004,-2.09963176888233e+001,-1.74566943532538e+000

7.16020056742374e+004,-2.09963557196921e+001,-1.77003420544330e+000

7.26015324253724e+004,-2.09963948189350e+001,-1.79473893104984e+000

7.36150120499896e+004,-2.09964350165415e+001,-1.81978835079460e+000

7.46426393229441e+004,-2.09964763433418e+001,-1.84518726918222e+000

7.56846117380472e+004,-2.09965188310295e+001,-1.87094055747935e+000

7.67411295460207e+004,-2.09965625121868e+001,-1.89705315463324e+000

7.78123957929823e+004,-2.09966074203085e+001,-1.92353006820297e+000

7.88986163594682e+004,-2.09966535898278e+001,-1.95037637530376e+000

7.99999999999995e+004,-2.09967010561426e+001,-1.97759722356231e+000

8.11167583832018e+004,-2.09967498556421e+001,-2.00519783208721e+000

8.22491061324848e+004,-2.09968000257348e+001,-2.03318349244906e+000

8.33972608672892e+004,-2.09968516048766e+001,-2.06155956967755e+000

8.45614432449099e+004,-2.09969046326004e+001,-2.09033150326820e+000

8.57418770029029e+004,-2.09969591495457e+001,-2.11950480820398e+000

8.69387890020841e+004,-2.09970151974900e+001,-2.14908507599064e+000

8.81524092701283e+004,-2.09970728193799e+001,-2.17907797570533e+000

8.93829710457770e+004,-2.09971320593640e+001,-2.20948925505955e+000

9.06307108236633e+004,-2.09971929628265e+001,-2.24032474147463e+000

9.18958683997622e+004,-2.09972555764214e+001,-2.27159034317288e+000

9.31786869174758e+004,-2.09973199481080e+001,-2.30329205028269e+000

9.44794129143618e+004,-2.09973861271869e+001,-2.33543593595812e+000

9.57982963695136e+004,-2.09974541643380e+001,-2.36802815751188e+000

9.71355907516031e+004,-2.09975241116580e+001,-2.40107495756502e+000

9.84915530675926e+004,-2.09975960227008e+001,-2.43458266521029e+000

9.98664439121282e+004,-2.09976699525169e+001,-2.46855769719155e+000

1.01260527517622e+005,-2.09977459576962e+001,-2.50300655909656e+000

1.02674071805032e+005,-2.09978240964097e+001,-2.53793584656809e+000

1.04107348435354e+005,-2.09979044284540e+001,-2.57335224652838e+000

1.05560632861831e+005,-2.09979870152964e+001,-2.60926253841944e+000

1.07034204382888e+005,-2.09980719201212e+001,-2.64567359546169e+000

1.08528346195813e+005,-2.09981592078772e+001,-2.68259238592467e+000

1.10043345451179e+005,-2.09982489453271e+001,-2.72002597441789e+000

1.11579493308032e+005,-2.09983412010971e+001,-2.75798152319617e+000

1.13137084989847e+005,-2.09984360457293e+001,-2.79646629348158e+000

1.14716419841265e+005,-2.09985335517343e+001,-2.83548764680276e+000

1.16317801385624e+005,-2.09986337936457e+001,-2.87505304635051e+000

1.17941537383287e+005,-2.09987368480765e+001,-2.91517005835133e+000

1.19587939890794e+005,-2.09988427937764e+001,-2.95584635345722e+000

1.21257325320831e+005,-2.09989517116906e+001,-2.99708970815384e+000

1.22950014503040e+005,-2.09990636850213e+001,-3.03890800618572e+000

1.24666332745679e+005,-2.09991787992891e+001,-3.08130923999875e+000

1.26406609898139e+005,-2.09992971423980e+001,-3.12430151220128e+000

1.28171180414339e+005,-2.09994188047003e+001,-3.16789303704439e+000

1.29960383416997e+005,-2.09995438790649e+001,-3.21209214191693e+000

1.31774562762811e+005,-2.09996724609464e+001,-3.25690726886289e+000

1.33614067108538e+005,-2.09998046484562e+001,-3.30234697611398e+000

1.35479249978003e+005,-2.09999405424361e+001,-3.34841993964407e+000

1.37370469830040e+005,-2.10000802465331e+001,-3.39513495473937e+000

1.39288090127379e+005,-2.10002238672770e+001,-3.44250093758939e+000

1.41232479406504e+005,-2.10003715141593e+001,-3.49052692689746e+000

1.43204011348474e+005,-2.10005232997149e+001,-3.53922208550794e+000

1.45203064850745e+005,-2.10006793396056e+001,-3.58859570205658e+000

1.47230024099979e+005,-2.10008397527058e+001,-3.63865719263660e+000

1.49285278645888e+005,-2.10010046611909e+001,-3.68941610248763e+000

1.51369223476094e+005,-2.10011741906278e+001,-3.74088210770216e+000

1.53482259092041e+005,-2.10013484700675e+001,-3.79306501695341e+000

1.55624791585964e+005,-2.10015276321409e+001,-3.84597477324211e+000

1.57797232718936e+005,-2.10017118131564e+001,-3.89962145566468e+000

1.59999999999999e+005,-2.10019011532007e+001,-3.95401528120066e+000

1.62233516766403e+005,-2.10020957962421e+001,-4.00916660652056e+000

1.64498212264969e+005,-2.10022958902358e+001,-4.06508592981544e+000

1.66794521734578e+005,-2.10025015872335e+001,-4.12178389264541e+000

1.69122886489819e+005,-2.10027130434947e+001,-4.17927128180982e+000

1.71483754005805e+005,-2.10029304196009e+001,-4.23755903123851e+000

1.73877578004168e+005,-2.10031538805738e+001,-4.29665822390259e+000

1.76304818540256e+005,-2.10033835959956e+001,-4.35658009374759e+000

1.78765942091554e+005,-2.10036197401332e+001,-4.41733602764685e+000

1.81261421647326e+005,-2.10038624920647e+001,-4.47893756737643e+000

1.83791736799524e+005,-2.10041120358104e+001,-4.54139641161027e+000

1.86357373834951e+005,-2.10043685604664e+001,-4.60472441793746e+000

1.88958825828723e+005,-2.10046322603418e+001,-4.66893360490071e+000

1.91596592739027e+005,-2.10049033350997e+001,-4.73403615405468e+000

1.94271181503206e+005,-2.10051819899019e+001,-4.80004441204769e+000

1.96983106135185e+005,-2.10054684355568e+001,-4.86697089272270e+000

1.99732887824256e+005,-2.10057628886715e+001,-4.93482827924112e+000

2.02521055035243e+005,-2.10060655718083e+001,-5.00362942622618e+000

2.05348143610063e+005,-2.10063767136442e+001,-5.07338736192974e+000

2.08214696870707e+005,-2.10066965491351e+001,-5.14411529041781e+000

2.11121265723661e+005,-2.10070253196844e+001,-5.21582659377922e+000

2.14068408765776e+005,-2.10073632733152e+001,-5.28853483435427e+000

2.17056692391625e+005,-2.10077106648477e+001,-5.36225375698474e+000

2.20086690902357e+005,-2.10080677560802e+001,-5.43699729128498e+000

2.23158986616063e+005,-2.10084348159757e+001,-5.51277955393318e+000

2.26274169979693e+005,-2.10088121208521e+001,-5.58961485098432e+000

2.29432839682530e+005,-2.10091999545784e+001,-5.66751768020319e+000

2.32635602771247e+005,-2.10095986087745e+001,-5.74650273341708e+000

2.35883074766574e+005,-2.10100083830170e+001,-5.82658489889068e+000

2.39175879781588e+005,-2.10104295850500e+001,-5.90777926371934e+000

2.42514650641661e+005,-2.10108625310004e+001,-5.99010111624287e+000

2.45900029006080e+005,-2.10113075455995e+001,-6.07356594847921e+000

2.49332665491357e+005,-2.10117649624092e+001,-6.15818945857728e+000

2.52813219796278e+005,-2.10122351240547e+001,-6.24398755328934e+000

2.56342360828676e+005,-2.10127183824621e+001,-6.33097635046204e+000

2.59920766833993e+005,-2.10132150991018e+001,-6.41917218154631e+000

2.63549125525621e+005,-2.10137256452386e+001,-6.50859159412568e+000

2.67228134217075e+005,-2.10142504021871e+001,-6.59925135446225e+000

2.70958499956006e+005,-2.10147897615735e+001,-6.69116845006082e+000

2.74740939660078e+005,-2.10153441256037e+001,-6.78436009225015e+000

2.78576180254757e+005,-2.10159139073380e+001,-6.87884371878092e+000

2.82464958813007e+005,-2.10164995309721e+001,-6.97463699644051e+000

2.86408022696948e+005,-2.10171014321246e+001,-7.07175782368307e+000

2.90406129701488e+005,-2.10177200581317e+001,-7.17022433327690e+000

2.94460048199957e+005,-2.10183558683491e+001,-7.27005489496429e+000

2.98570557291775e+005,-2.10190093344596e+001,-7.37126811813812e+000

3.02738446952187e+005,-2.10196809407897e+001,-7.47388285453145e+000

3.06964518184081e+005,-2.10203711846322e+001,-7.57791820092042e+000

3.11249583171928e+005,-2.10210805765769e+001,-7.68339350184024e+000

3.15594465437872e+005,-2.10218096408483e+001,-7.79032835231331e+000

3.19999999999997e+005,-2.10225589156518e+001,-7.89874260058855e+000

3.24467033532806e+005,-2.10233289535276e+001,-8.00865635089145e+000

3.28996424529938e+005,-2.10241203217117e+001,-8.12008996618465e+000

3.33589043469155e+005,-2.10249336025061e+001,-8.23306407093711e+000

3.38245772979638e+005,-2.10257693936570e+001,-8.34759955390203e+000

3.42967508011610e+005,-2.10266283087410e+001,-8.46371757090266e+000

3.47755156008335e+005,-2.10275109775604e+001,-8.58143954762408e+000

3.52609637080511e+005,-2.10284180465467e+001,-8.70078718241138e+000

3.57531884183106e+005,-2.10293501791733e+001,-8.82178244907308e+000

3.62522843294651e+005,-2.10303080563769e+001,-8.94444759968729e+000

3.67583473599047e+005,-2.10312923769882e+001,-9.06880516741199e+000

3.72714747669902e+005,-2.10323038581718e+001,-9.19487796929618e+000

3.77917651657445e+005,-2.10333432358752e+001,-9.32268910909251e+000

3.83193185478053e+005,-2.10344112652876e+001,-9.45226198006901e+000

3.88542363006410e+005,-2.10355087213086e+001,-9.58362026781962e+000

3.93966212270369e+005,-2.10366363990258e+001,-9.71678795307134e+000

3.99465775648511e+005,-2.10377951142035e+001,-9.85178931448838e+000

4.05042110070485e+005,-2.10389857037805e+001,-9.98864893146955e+000

4.10696287220124e+005,-2.10402090263785e+001,-1.01273916869404e+001

4.16429393741414e+005,-2.10414659628208e+001,-1.02680427701363e+001

4.22242531447321e+005,-2.10427574166616e+001,-1.04106276793762e+001

4.28136817531551e+005,-2.10440843147255e+001,-1.05551722248256e+001

4.34113384783250e+005,-2.10454476076584e+001,-1.07017025312469e+001

4.40173381804713e+005,-2.10468482704883e+001,-1.08502450407359e+001

4.46317973232124e+005,-2.10482873031981e+001,-1.10008265154411e+001

4.52548339959385e+005,-2.10497657313090e+001,-1.11534740402685e+001

4.58865679365059e+005,-2.10512846064750e+001,-1.13082150255638e+001

4.65271205542494e+005,-2.10528450070893e+001,-1.14650772097764e+001

4.71766149533147e+005,-2.10544480389016e+001,-1.16240886620988e+001

4.78351759563174e+005,-2.10560948356479e+001,-1.17852777850824e+001

4.85029301283321e+005,-2.10577865596910e+001,-1.19486733172260e+001

4.91800058012158e+005,-2.10595244026735e+001,-1.21143043355359e+001

4.98665330982714e+005,-2.10613095861832e+001,-1.22822002580549e+001

5.05626439592555e+005,-2.10631433624293e+001,-1.24523908463589e+001

5.12684721657352e+005,-2.10650270149326e+001,-1.26249062080175e+001

5.19841533667984e+005,-2.10669618592265e+001,-1.27997767990180e+001

5.27098251051240e+005,-2.10689492435716e+001,-1.29770334261485e+001

5.34456268434150e+005,-2.10709905496821e+001,-1.31567072493400e+001

5.41916999912011e+005,-2.10730871934653e+001,-1.33388297839626e+001

