Freq.,VOut,OutRef

1.00000000000000e+004,-2.13009284648565e+001,-3.29160815331375e-001

1.01395947979003e+004,-2.13009297999815e+001,-3.33755706727320e-001

1.02811382665607e+004,-2.13009311726413e+001,-3.38414739468191e-001

1.04246576084112e+004,-2.13009325838913e+001,-3.43138808892176e-001

1.05701804056138e+004,-2.13009340348160e+001,-3.47928822836942e-001

1.07177346253629e+004,-2.13009355265311e+001,-3.52785701809056e-001

1.08673486252606e+004,-2.13009370601831e+001,-3.57710379164018e-001

1.10190511587661e+004,-2.13009386369510e+001,-3.62703801284587e-001

1.11728713807222e+004,-2.13009402580472e+001,-3.67766927761385e-001

1.13288388529580e+004,-2.13009419247174e+001,-3.72900731580509e-001

1.14869835499703e+004,-2.13009436382432e+001,-3.78106199306003e-001

1.16473358646846e+004,-2.13009453999417e+001,-3.83384331273293e-001

1.18099266142953e+004,-2.13009472111670e+001,-3.88736141778531e-001

1.19747870461893e+004,-2.13009490733117e+001,-3.94162659274140e-001

1.21419488439505e+004,-2.13009509878071e+001,-3.99664926567551e-001

1.23114441334492e+004,-2.13009529561249e+001,-4.05244001020420e-001

1.24833054890161e+004,-2.13009549797782e+001,-4.10900954750760e-001

1.26575659397028e+004,-2.13009570603227e+001,-4.16636874841330e-001

1.28342589756290e+004,-2.13009591993576e+001,-4.22452863546245e-001

1.30134185544193e+004,-2.13009613985273e+001,-4.28350038502944e-001

1.31950791077289e+004,-2.13009636595223e+001,-4.34329532947461e-001

1.33792755478611e+004,-2.13009659840807e+001,-4.40392495932198e-001

1.35660432744767e+004,-2.13009683739892e+001,-4.46540092545524e-001

1.37554181813974e+004,-2.13009708310852e+001,-4.52773504135995e-001

1.39474366635040e+004,-2.13009733572572e+001,-4.59093928540408e-001

1.41421356237309e+004,-2.13009759544474e+001,-4.65502580310358e-001

1.43395524801583e+004,-2.13009786246519e+001,-4.72000690950722e-001

1.45397251732031e+004,-2.13009813699235e+001,-4.78589509149963e-001

1.47426921729110e+004,-2.13009841923724e+001,-4.85270301025204e-001

1.49484924863494e+004,-2.13009870941682e+001,-4.92044350361980e-001

1.51571656651040e+004,-2.13009900775414e+001,-4.98912958862583e-001

1.53687518128801e+004,-2.13009931447854e+001,-5.05877446393982e-001

1.55832915932100e+004,-2.13009962982580e+001,-5.12939151242603e-001

1.58008262372675e+004,-2.13009995403830e+001,-5.20099430372861e-001

1.60213975517924e+004,-2.13010028736527e+001,-5.27359659682536e-001

1.62450479271247e+004,-2.13010063006293e+001,-5.34721234271961e-001

1.64718203453514e+004,-2.13010098239469e+001,-5.42185568710228e-001

1.67017583885674e+004,-2.13010134463139e+001,-5.49754097305131e-001

1.69349062472505e+004,-2.13010171705147e+001,-5.57428274380281e-001

1.71713087287550e+004,-2.13010209994119e+001,-5.65209574552856e-001

1.74110112659224e+004,-2.13010249359487e+001,-5.73099493018241e-001

1.76540599258131e+004,-2.13010289831508e+001,-5.81099545835751e-001

1.79005014185594e+004,-2.13010331441292e+001,-5.89211270219305e-001

1.81503831063432e+004,-2.13010374220822e+001,-5.97436224833173e-001

1.84037530124975e+004,-2.13010418202982e+001,-6.05775990090893e-001

1.86606598307361e+004,-2.13010463421576e+001,-6.14232168457981e-001

1.89211529345119e+004,-2.13010509911364e+001,-6.22806384759916e-001

1.91852823865052e+004,-2.13010557708077e+001,-6.31500286493741e-001

1.94530989482457e+004,-2.13010606848455e+001,-6.40315544144079e-001

1.97246540898671e+004,-2.13010657370267e+001,-6.49253851503198e-001

1.99999999999999e+004,-2.13010709312347e+001,-6.58316925996715e-001

2.02791895958005e+004,-2.13010762714617e+001,-6.67506509012037e-001

2.05622765331213e+004,-2.13010817618125e+001,-6.76824366233255e-001

2.08493152168224e+004,-2.13010874065070e+001,-6.86272287978421e-001

2.11403608112276e+004,-2.13010932098835e+001,-6.95852089545923e-001

2.14354692507258e+004,-2.13010991764029e+001,-7.05565611557829e-001

2.17346972505211e+004,-2.13011053106507e+001,-7.15414720317933e-001

2.20381023175322e+004,-2.13011116173419e+001,-7.25401308164907e-001

2.23457427614443e+004,-2.13011181013237e+001,-7.35527293838866e-001

2.26576777059159e+004,-2.13011247675794e+001,-7.45794622847427e-001

2.29739670999406e+004,-2.13011316212328e+001,-7.56205267838365e-001

2.32946717293690e+004,-2.13011386675512e+001,-7.66761228979021e-001

2.36198532285905e+004,-2.13011459119502e+001,-7.77464534338527e-001

2.39495740923785e+004,-2.13011533599977e+001,-7.88317240276469e-001

2.42838976879009e+004,-2.13011610174179e+001,-7.99321431837862e-001

2.46228882668982e+004,-2.13011688900957e+001,-8.10479223153279e-001

2.49666109780322e+004,-2.13011769840818e+001,-8.21792757840892e-001

2.53151318794055e+004,-2.13011853055967e+001,-8.33264209420339e-001

2.56685179512580e+004,-2.13011938610357e+001,-8.44895781727565e-001

2.60268371088386e+004,-2.13012026569737e+001,-8.56689709338469e-001

2.63901582154578e+004,-2.13012117001707e+001,-8.68648257994616e-001

2.67585510957221e+004,-2.13012209975764e+001,-8.80773725038240e-001

2.71320865489533e+004,-2.13012305563359e+001,-8.93068439853333e-001

2.75108363627948e+004,-2.13012403837950e+001,-9.05534764310390e-001

2.78948733270080e+004,-2.13012504875059e+001,-9.18175093218854e-001

2.82842712474618e+004,-2.13012608752332e+001,-9.30991854785350e-001

2.86791049603164e+004,-2.13012715549593e+001,-9.43987511079831e-001

2.90794503464061e+004,-2.13012825348915e+001,-9.57164558504257e-001

2.94853843458219e+004,-2.13012938234670e+001,-9.70525528273727e-001

2.98969849726987e+004,-2.13013054293606e+001,-9.84072986898176e-001

3.03143313302078e+004,-2.13013173614906e+001,-9.97809536674036e-001

3.07375036257601e+004,-2.13013296290258e+001,-1.01173781618350e+000

3.11665831864199e+004,-2.13013422413930e+001,-1.02586050079642e+000

3.16016524745350e+004,-2.13013552082833e+001,-1.04018030318615e+000

3.20427951035848e+004,-2.13013685396606e+001,-1.05469997384327e+000

3.24900958542493e+004,-2.13013822457683e+001,-1.06942230160645e+000

3.29436406907028e+004,-2.13013963371378e+001,-1.08435011419203e+000

3.34035167771346e+004,-2.13014108245965e+001,-1.09948627873578e+000

3.38698124945009e+004,-2.13014257192756e+001,-1.11483370234170e+000

3.43426174575100e+004,-2.13014410326193e+001,-1.13039533263617e+000

3.48220225318448e+004,-2.13014567763932e+001,-1.14617415833256e+000

3.53081198516260e+004,-2.13014729626934e+001,-1.16217320980058e+000

3.58010028371187e+004,-2.13014896039558e+001,-1.17839555964649e+000

3.63007662126863e+004,-2.13015067129657e+001,-1.19484432329854e+000

3.68075060249948e+004,-2.13015243028673e+001,-1.21152265960384e+000

3.73213196614721e+004,-2.13015423871742e+001,-1.22843377142929e+000

3.78423058690237e+004,-2.13015609797796e+001,-1.24558090627356e+000

3.83705647730104e+004,-2.13015800949668e+001,-1.26296735688762e+000

3.89061978964912e+004,-2.13015997474202e+001,-1.28059646190228e+000

3.94493081797342e+004,-2.13016199522369e+001,-1.29847160646411e+000

3.99999999999998e+004,-2.13016407249377e+001,-1.31659622288340e+000

4.05583791916010e+004,-2.13016620814796e+001,-1.33497379128568e+000

4.11245530662425e+004,-2.13016840382673e+001,-1.35360784027874e+000

4.16986304336447e+004,-2.13017066121666e+001,-1.37250194762053e+000

4.22807216224550e+004,-2.13017298205166e+001,-1.39165974090529e+000

4.28709385014515e+004,-2.13017536811435e+001,-1.41108489825163e+000

4.34693945010421e+004,-2.13017782123740e+001,-1.43078114900418e+000

4.40762046350642e+004,-2.13018034330494e+001,-1.45075227444371e+000

4.46914855228886e+004,-2.13018293625399e+001,-1.47100210850649e+000

4.53153554118317e+004,-2.13018560207596e+001,-1.49153453851447e+000

4.59479341998812e+004,-2.13018834281819e+001,-1.51235350591294e+000

4.65893434587380e+004,-2.13019116058547e+001,-1.53346300702330e+000

4.72397064571810e+004,-2.13019405754170e+001,-1.55486709380031e+000

4.78991481847569e+004,-2.13019703591151e+001,-1.57656987460296e+000

4.85677953758016e+004,-2.13020009798198e+001,-1.59857551497546e+000

4.92457765337964e+004,-2.13020324610440e+001,-1.62088823843807e+000

4.99332219560642e+004,-2.13020648269605e+001,-1.64351232728988e+000

5.06302637588109e+004,-2.13020981024205e+001,-1.66645212342029e+000

5.13370359025159e+004,-2.13021323129728e+001,-1.68971202913434e+000

5.20536742176771e+004,-2.13021674848832e+001,-1.71329650798719e+000

5.27803164309155e+004,-2.13022036451546e+001,-1.73721008563006e+000

5.35171021914442e+004,-2.13022408215475e+001,-1.76145735066928e+000

5.42641730979066e+004,-2.13022790426015e+001,-1.78604295553467e+000

5.50216727255895e+004,-2.13023183376572e+001,-1.81097161736028e+000

5.57897466540159e+004,-2.13023587368780e+001,-1.83624811887978e+000

5.65685424949235e+004,-2.13024002712740e+001,-1.86187730932843e+000

5.73582099206328e+004,-2.13024429727249e+001,-1.88786410536310e+000

5.81589006928121e+004,-2.13024868740048e+001,-1.91421349198989e+000

5.89707686916437e+004,-2.13025320088074e+001,-1.94093052350726e+000

5.97939699453972e+004,-2.13025784117712e+001,-1.96802032446057e+000

6.06286626604156e+004,-2.13026261185063e+001,-1.99548809061032e+000

6.14750072515201e+004,-2.13026751656216e+001,-2.02333908991078e+000

6.23331663728396e+004,-2.13027255907524e+001,-2.05157866350558e+000

6.32033049490698e+004,-2.13027774325896e+001,-2.08021222673381e+000

6.40855902071694e+004,-2.13028307309088e+001,-2.10924527015018e+000

6.49801917084985e+004,-2.13028855266010e+001,-2.13868336055907e+000

6.58872813814055e+004,-2.13029418617034e+001,-2.16853214206225e+000

6.68070335542691e+004,-2.13029997794318e+001,-2.19879733712067e+000

6.77396249890018e+004,-2.13030593242134e+001,-2.22948474762967e+000

6.86852349150199e+004,-2.13031205417203e+001,-2.26060025600929e+000

6.96440450636895e+004,-2.13031834789049e+001,-2.29214982630862e+000

7.06162397032520e+004,-2.13032481840355e+001,-2.32413950532430e+000

7.16020056742374e+004,-2.13033147067325e+001,-2.35657542373445e+000

7.26015324253724e+004,-2.13033830980071e+001,-2.38946379724764e+000

7.36150120499896e+004,-2.13034534102993e+001,-2.42281092776595e+000

7.46426393229441e+004,-2.13035256975183e+001,-2.45662320456383e+000

7.56846117380472e+004,-2.13036000150831e+001,-2.49090710548362e+000

7.67411295460207e+004,-2.13036764199649e+001,-2.52566919814442e+000

7.78123957929823e+004,-2.13037549707307e+001,-2.56091614116782e+000

7.88986163594682e+004,-2.13038357275869e+001,-2.59665468542060e+000

7.99999999999995e+004,-2.13039187524260e+001,-2.63289167527141e+000

8.11167583832018e+004,-2.13040041088731e+001,-2.66963404986616e+000

8.22491061324848e+004,-2.13040918623342e+001,-2.70688884441737e+000

8.33972608672892e+004,-2.13041820800459e+001,-2.74466319151273e+000

8.45614432449099e+004,-2.13042748311265e+001,-2.78296432243826e+000

8.57418770029029e+004,-2.13043701866282e+001,-2.82179956851945e+000

8.69387890020841e+004,-2.13044682195913e+001,-2.86117636248043e+000

8.81524092701283e+004,-2.13045690050990e+001,-2.90110223981930e+000

8.93829710457770e+004,-2.13046726203349e+001,-2.94158484020026e+000

9.06307108236633e+004,-2.13047791446407e+001,-2.98263190886620e+000

9.18958683997622e+004,-2.13048886595769e+001,-3.02425129806640e+000

9.31786869174758e+004,-2.13050012489843e+001,-3.06645096850354e+000

9.44794129143618e+004,-2.13051169990471e+001,-3.10923899079918e+000

9.57982963695136e+004,-2.13052359983583e+001,-3.15262354697669e+000

9.71355907516031e+004,-2.13053583379866e+001,-3.19661293196367e+000

9.84915530675926e+004,-2.13054841115451e+001,-3.24121555511277e+000

9.98664439121282e+004,-2.13056134152617e+001,-3.28643994174122e+000

1.01260527517622e+005,-2.13057463480523e+001,-3.33229473468949e+000

1.02674071805032e+005,-2.13058830115945e+001,-3.37878869589998e+000

1.04107348435354e+005,-2.13060235104049e+001,-3.42593070801344e+000

1.05560632861831e+005,-2.13061679519176e+001,-3.47372977598698e+000

1.07034204382888e+005,-2.13063164465647e+001,-3.52219502873054e+000

1.08528346195813e+005,-2.13064691078597e+001,-3.57133572076324e+000

1.10043345451179e+005,-2.13066260524829e+001,-3.62116123389019e+000

1.11579493308032e+005,-2.13067874003687e+001,-3.67168107890011e+000

1.13137084989847e+005,-2.13069532747956e+001,-3.72290489728134e+000

1.14716419841265e+005,-2.13071238024791e+001,-3.77484246296109e+000

1.16317801385624e+005,-2.13072991136662e+001,-3.82750368406240e+000

1.17941537383287e+005,-2.13074793422332e+001,-3.88089860468464e+000

1.19587939890794e+005,-2.13076646257860e+001,-3.93503740670245e+000

1.21257325320831e+005,-2.13078551057626e+001,-3.98993041158801e+000

1.22950014503040e+005,-2.13080509275392e+001,-4.04558808225284e+000

1.24666332745679e+005,-2.13082522405387e+001,-4.10202102491093e+000

1.26406609898139e+005,-2.13084591983419e+001,-4.15923999096516e+000

1.28171180414339e+005,-2.13086719588024e+001,-4.21725587891255e+000

1.29960383416997e+005,-2.13088906841637e+001,-4.27607973627376e+000

1.31774562762811e+005,-2.13091155411804e+001,-4.33572276154128e+000

1.33614067108538e+005,-2.13093467012421e+001,-4.39619630615343e+000

1.35479249978003e+005,-2.13095843405002e+001,-4.45751187648594e+000

1.37370469830040e+005,-2.13098286399994e+001,-4.51968113586913e+000

1.39288090127379e+005,-2.13100797858113e+001,-4.58271590662491e+000

1.41232479406504e+005,-2.13103379691726e+001,-4.64662817212703e+000

1.43204011348474e+005,-2.13106033866263e+001,-4.71143007888235e+000

1.45203064850745e+005,-2.13108762401673e+001,-4.77713393863588e+000

1.47230024099979e+005,-2.13111567373909e+001,-4.84375223049731e+000

1.49285278645888e+005,-2.13114450916467e+001,-4.91129760308860e+000

1.51369223476094e+005,-2.13117415221951e+001,-4.97978287671620e+000

1.53482259092041e+005,-2.13120462543689e+001,-5.04922104556400e+000

1.55624791585964e+005,-2.13123595197388e+001,-5.11962527990849e+000

1.57797232718936e+005,-2.13126815562832e+001,-5.19100892835715e+000

1.59999999999999e+005,-2.13130126085630e+001,-5.26338552010798e+000

1.62233516766403e+005,-2.13133529279001e+001,-5.33676876723202e+000

1.64498212264969e+005,-2.13137027725614e+001,-5.41117256697734e+000

1.66794521734578e+005,-2.13140624079473e+001,-5.48661100409533e+000

1.69122886489819e+005,-2.13144321067849e+001,-5.56309835318963e+000

1.71483754005805e+005,-2.13148121493269e+001,-5.64064908108496e+000

1.73877578004168e+005,-2.13152028235546e+001,-5.71927784921930e+000

1.76304818540256e+005,-2.13156044253875e+001,-5.79899951605761e+000

1.78765942091554e+005,-2.13160172588973e+001,-5.87982913952551e+000

1.81261421647326e+005,-2.13164416365277e+001,-5.96178197946536e+000

1.83791736799524e+005,-2.13168778793202e+001,-6.04487350011329e+000

1.86357373834951e+005,-2.13173263171452e+001,-6.12911937259623e+000

1.88958825828723e+005,-2.13177872889395e+001,-6.21453547744954e+000

1.91596592739027e+005,-2.13182611429496e+001,-6.30113790715601e+000

1.94271181503206e+005,-2.13187482369811e+001,-6.38894296870285e+000

1.96983106135185e+005,-2.13192489386549e+001,-6.47796718616026e+000

1.99732887824256e+005,-2.13197636256693e+001,-6.56822730327724e+000

2.02521055035243e+005,-2.13202926860695e+001,-6.65974028609824e+000

2.05348143610063e+005,-2.13208365185227e+001,-6.75252332559666e+000

2.08214696870707e+005,-2.13213955326019e+001,-6.84659384032743e+000

2.11121265723661e+005,-2.13219701490747e+001,-6.94196947909611e+000

2.14068408765776e+005,-2.13225608002011e+001,-7.03866812364624e+000

2.17056692391625e+005,-2.13231679300379e+001,-7.13670789136240e+000

2.20086690902357e+005,-2.13237919947505e+001,-7.23610713798924e+000

2.23158986616063e+005,-2.13244334629327e+001,-7.33688446036630e+000

2.26274169979693e+005,-2.13250928159346e+001,-7.43905869917674e+000

2.29432839682530e+005,-2.13257705481982e+001,-7.54264894171140e+000

2.32635602771247e+005,-2.13264671676010e+001,-7.64767452464484e+000

2.35883074766574e+005,-2.13271831958084e+001,-7.75415503682479e+000

2.39175879781588e+005,-2.13279191686347e+001,-7.86211032207271e+000

2.42514650641661e+005,-2.13286756364123e+001,-7.97156048199603e+000

2.45900029006080e+005,-2.13294531643701e+001,-8.08252587880990e+000

2.49332665491357e+005,-2.13302523330209e+001,-8.19502713816817e+000

2.52813219796278e+005,-2.13310737385582e+001,-8.30908515200213e+000

2.56342360828676e+005,-2.13319179932619e+001,-8.42472108136720e+000

2.59920766833993e+005,-2.13327857259142e+001,-8.54195635929496e+000

2.63549125525621e+005,-2.13336775822245e+001,-8.66081269365001e+000

2.67228134217075e+005,-2.13345942252651e+001,-8.78131206999073e+000

2.70958499956006e+005,-2.13355363359161e+001,-8.90347675443233e+000

2.74740939660078e+005,-2.13365046133212e+001,-9.02732929651159e+000

2.78576180254757e+005,-2.13374997753534e+001,-9.15289253205017e+000

2.82464958813007e+005,-2.13385225590923e+001,-9.28018958601763e+000

2.86408022696948e+005,-2.13395737213108e+001,-9.40924387539029e+000

2.90406129701488e+005,-2.13406540389736e+001,-9.54007911200581e+000

2.94460048199957e+005,-2.13417643097470e+001,-9.67271930541171e+000

2.98570557291775e+005,-2.13429053525193e+001,-9.80718876570505e+000

3.02738446952187e+005,-2.13440780079336e+001,-9.94351210636384e+000

3.06964518184081e+005,-2.13452831389309e+001,-1.00817142470651e+001

3.11249583171928e+005,-2.13465216313065e+001,-1.02218204164909e+001

3.15594465437872e+005,-2.13477943942772e+001,-1.03638561551183e+001

3.19999999999997e+005,-2.13491023610612e+001,-1.05078473179922e+001

3.24467033532806e+005,-2.13504464894705e+001,-1.06538200774778e+001

3.28996424529938e+005,-2.13518277625144e+001,-1.08018009259927e+001

3.33589043469155e+005,-2.13532471890176e+001,-1.09518166787136e+001

3.38245772979638e+005,-2.13547058042492e+001,-1.11038944762569e+001

3.42967508011610e+005,-2.13562046705656e+001,-1.12580617873314e+001

3.47755156008335e+005,-2.13577448780658e+001,-1.14143464113582e+001

3.52609637080511e+005,-2.13593275452605e+001,-1.15727764810569e+001

3.57531884183106e+005,-2.13609538197534e+001,-1.17333804649966e+001

3.62522843294651e+005,-2.13626248789369e+001,-1.18961871701051e+001

3.67583473599047e+005,-2.13643419307006e+001,-1.20612257441369e+001

3.72714747669902e+005,-2.13661062141534e+001,-1.22285256780963e+001

3.77917651657445e+005,-2.13679190003594e+001,-1.23981168086108e+001

3.83193185478053e+005,-2.13697815930872e+001,-1.25700293202540e+001

3.88542363006410e+005,-2.13716953295738e+001,-1.27442937478128e+001

3.93966212270369e+005,-2.13736615813010e+001,-1.29209409784969e+001

3.99465775648511e+005,-2.13756817547868e+001,-1.31000022540865e+001

4.05042110070485e+005,-2.13777572923903e+001,-1.32815091730145e+001

4.10696287220124e+005,-2.13798896731303e+001,-1.34654936923803e+001

4.16429393741414e+005,-2.13820804135184e+001,-1.36519881298898e+001

4.22242531447321e+005,-2.13843310684058e+001,-1.38410251657211e+001

4.28136817531551e+005,-2.13866432318433e+001,-1.40326378443068e+001

4.34113384783250e+005,-2.13890185379569e+001,-1.42268595760346e+001

4.40173381804713e+005,-2.13914586618352e+001,-1.44237241388573e+001

4.46317973232124e+005,-2.13939653204324e+001,-1.46232656798099e+001

4.52548339959385e+005,-2.13965402734833e+001,-1.48255187164314e+001

4.58865679365059e+005,-2.13991853244338e+001,-1.50305181380818e+001

4.65271205542494e+005,-2.14019023213827e+001,-1.52382992071551e+001

4.71766149533147e+005,-2.14046931580389e+001,-1.54488975601801e+001

4.78351759563174e+005,-2.14075597746903e+001,-1.56623492088055e+001

4.85029301283321e+005,-2.14105041591859e+001,-1.58786905406649e+001

4.91800058012158e+005,-2.14135283479317e+001,-1.60979583201148e+001

4.98665330982714e+005,-2.14166344268977e+001,-1.63201896888431e+001

5.05626439592555e+005,-2.14198245326380e+001,-1.65454221663408e+001

5.12684721657352e+005,-2.14231008533227e+001,-1.67736936502330e+001

5.19841533667984e+005,-2.14264656297813e+001,-1.70050424164620e+001

5.27098251051240e+005,-2.14299211565580e+001,-1.72395071193198e+001

5.34456268434150e+005,-2.14334697829771e+001,-1.74771267913219e+001

5.41916999912011e+005,-2.14371139142191e+001,-1.77179408429175e+001

