Freq.,VOut,OutRef

1.00000000000000e+004,-2.15211962905913e+001,-2.98043313239384e-001

1.01395947979003e+004,-2.15211974273728e+001,-3.02203824229639e-001

1.02811382665607e+004,-2.15211985961130e+001,-3.06422412998533e-001

1.04246576084112e+004,-2.15211997977104e+001,-3.10699890247825e-001

1.05701804056138e+004,-2.15212010330886e+001,-3.15037077995272e-001

1.07177346253629e+004,-2.15212023031974e+001,-3.19434809731154e-001

1.08673486252606e+004,-2.15212036090130e+001,-3.23893930581575e-001

1.10190511587661e+004,-2.15212049515395e+001,-3.28415297464974e-001

1.11728713807222e+004,-2.15212063318086e+001,-3.32999779264135e-001

1.13288388529580e+004,-2.15212077508815e+001,-3.37648256986988e-001

1.14869835499703e+004,-2.15212092098491e+001,-3.42361623936986e-001

1.16473358646846e+004,-2.15212107098330e+001,-3.47140785888572e-001

1.18099266142953e+004,-2.15212122519861e+001,-3.51986661256455e-001

1.19747870461893e+004,-2.15212138374940e+001,-3.56900181274830e-001

1.21419488439505e+004,-2.15212154675755e+001,-3.61882290174006e-001

1.23114441334492e+004,-2.15212171434835e+001,-3.66933945364572e-001

1.24833054890161e+004,-2.15212188665066e+001,-3.72056117618215e-001

1.26575659397028e+004,-2.15212206379692e+001,-3.77249791256371e-001

1.28342589756290e+004,-2.15212224592329e+001,-3.82515964339273e-001

1.30134185544193e+004,-2.15212243316978e+001,-3.87855648855426e-001

1.31950791077289e+004,-2.15212262568033e+001,-3.93269870918417e-001

1.33792755478611e+004,-2.15212282360292e+001,-3.98759670963250e-001

1.35660432744767e+004,-2.15212302708970e+001,-4.04326103944231e-001

1.37554181813974e+004,-2.15212323629710e+001,-4.09970239539840e-001

1.39474366635040e+004,-2.15212345138591e+001,-4.15693162359683e-001

1.41421356237309e+004,-2.15212367252149e+001,-4.21495972146657e-001

1.43395524801583e+004,-2.15212389987382e+001,-4.27379783994879e-001

1.45397251732031e+004,-2.15212413361767e+001,-4.33345728559645e-001

1.47426921729110e+004,-2.15212437393271e+001,-4.39394952276195e-001

1.49484924863494e+004,-2.15212462100366e+001,-4.45528617579019e-001

1.51571656651040e+004,-2.15212487502046e+001,-4.51747903125229e-001

1.53687518128801e+004,-2.15212513617835e+001,-4.58054004021996e-001

1.55832915932100e+004,-2.15212540467809e+001,-4.64448132053626e-001

1.58008262372675e+004,-2.15212568072605e+001,-4.70931515917198e-001

1.60213975517924e+004,-2.15212596453446e+001,-4.77505401454787e-001

1.62450479271247e+004,-2.15212625632143e+001,-4.84171051896282e-001

1.64718203453514e+004,-2.15212655631128e+001,-4.90929748099515e-001

1.67017583885674e+004,-2.15212686473459e+001,-4.97782788797064e-001

1.69349062472505e+004,-2.15212718182844e+001,-5.04731490844187e-001

1.71713087287550e+004,-2.15212750783656e+001,-5.11777189474481e-001

1.74110112659224e+004,-2.15212784300955e+001,-5.18921238553124e-001

1.76540599258131e+004,-2.15212818760504e+001,-5.26165010837807e-001

1.79005014185594e+004,-2.15212854188789e+001,-5.33509898243703e-001

1.81503831063432e+004,-2.15212890613043e+001,-5.40957312107036e-001

1.84037530124975e+004,-2.15212928061263e+001,-5.48508683459726e-001

1.86606598307361e+004,-2.15212966562234e+001,-5.56165463301610e-001

1.89211529345119e+004,-2.15213006145549e+001,-5.63929122879066e-001

1.91852823865052e+004,-2.15213046841632e+001,-5.71801153969619e-001

1.94530989482457e+004,-2.15213088681764e+001,-5.79783069164471e-001

1.97246540898671e+004,-2.15213131698105e+001,-5.87876402160533e-001

1.99999999999999e+004,-2.15213175923718e+001,-5.96082708056698e-001

2.02791895958005e+004,-2.15213221392595e+001,-6.04403563647580e-001

2.05622765331213e+004,-2.15213268139684e+001,-6.12840567730686e-001

2.08493152168224e+004,-2.15213316200916e+001,-6.21395341409269e-001

2.11403608112276e+004,-2.15213365613230e+001,-6.30069528405978e-001

2.14354692507258e+004,-2.15213416414604e+001,-6.38864795377643e-001

2.17346972505211e+004,-2.15213468644085e+001,-6.47782832232378e-001

2.20381023175322e+004,-2.15213522341816e+001,-6.56825352457400e-001

2.23457427614443e+004,-2.15213577549068e+001,-6.65994093444833e-001

2.26576777059159e+004,-2.15213634308270e+001,-6.75290816827172e-001

2.29739670999406e+004,-2.15213692663048e+001,-6.84717308811982e-001

2.32946717293690e+004,-2.15213752658252e+001,-6.94275380527162e-001

2.36198532285905e+004,-2.15213814339989e+001,-7.03966868367646e-001

2.39495740923785e+004,-2.15213877755667e+001,-7.13793634345348e-001

2.42838976879009e+004,-2.15213942954024e+001,-7.23757566449289e-001

2.46228882668982e+004,-2.15214009985168e+001,-7.33860579004121e-001

2.49666109780322e+004,-2.15214078900613e+001,-7.44104613040356e-001

2.53151318794055e+004,-2.15214149753325e+001,-7.54491636663764e-001

2.56685179512580e+004,-2.15214222597755e+001,-7.65023645433267e-001

2.60268371088386e+004,-2.15214297489884e+001,-7.75702662744788e-001

2.63901582154578e+004,-2.15214374487268e+001,-7.86530740215965e-001

2.67585510957221e+004,-2.15214453649081e+001,-7.97509958081697e-001

2.71320865489533e+004,-2.15214535036156e+001,-8.08642425591985e-001

2.75108363627948e+004,-2.15214618711039e+001,-8.19930281415369e-001

2.78948733270080e+004,-2.15214704738032e+001,-8.31375694048838e-001

2.82842712474618e+004,-2.15214793183245e+001,-8.42980862233688e-001

2.86791049603164e+004,-2.15214884114643e+001,-8.54748015375781e-001

2.90794503464061e+004,-2.15214977602103e+001,-8.66679413972534e-001

2.94853843458219e+004,-2.15215073717465e+001,-8.78777350045348e-001

2.98969849726987e+004,-2.15215172534588e+001,-8.91044147580145e-001

3.03143313302078e+004,-2.15215274129404e+001,-9.03482162969613e-001

3.07375036257601e+004,-2.15215378579981e+001,-9.16093785466596e-001

3.11665831864199e+004,-2.15215485966579e+001,-9.28881437638926e-001

3.16016524745350e+004,-2.15215596371712e+001,-9.41847575835315e-001

3.20427951035848e+004,-2.15215709880214e+001,-9.54994690653402e-001

3.24900958542493e+004,-2.15215826579303e+001,-9.68325307417169e-001

3.29436406907028e+004,-2.15215946558644e+001,-9.81841986660168e-001

3.34035167771346e+004,-2.15216069910425e+001,-9.95547324613613e-001

3.38698124945009e+004,-2.15216196729420e+001,-1.00944395370457e+000

3.43426174575100e+004,-2.15216327113068e+001,-1.02353454305940e+000

3.48220225318448e+004,-2.15216461161544e+001,-1.03782179901157e+000

3.53081198516260e+004,-2.15216598977838e+001,-1.05230846562208e+000

3.58010028371187e+004,-2.15216740667831e+001,-1.06699732520128e+000

3.63007662126863e+004,-2.15216886340381e+001,-1.08189119884196e+000

3.68075060249948e+004,-2.15217036107400e+001,-1.09699294695745e+000

3.73213196614721e+004,-2.15217190083947e+001,-1.11230546982892e+000

3.78423058690237e+004,-2.15217348388312e+001,-1.12783170815738e+000

3.83705647730104e+004,-2.15217511142104e+001,-1.14357464362838e+000

3.89061978964912e+004,-2.15217678470353e+001,-1.15953729947745e+000

3.94493081797342e+004,-2.15217850501595e+001,-1.17572274107038e+000

3.99999999999998e+004,-2.15218027367979e+001,-1.19213407648607e+000

4.05583791916010e+004,-2.15218209205365e+001,-1.20877445710990e+000

4.11245530662425e+004,-2.15218396153427e+001,-1.22564707823612e+000

4.16986304336447e+004,-2.15218588355762e+001,-1.24275517967565e+000

4.22807216224550e+004,-2.15218785960000e+001,-1.26010204637462e+000

4.28709385014515e+004,-2.15218989117914e+001,-1.27769100904056e+000

4.34693945010421e+004,-2.15219197985544e+001,-1.29552544477653e+000

4.40762046350642e+004,-2.15219412723303e+001,-1.31360877772614e+000

4.46914855228886e+004,-2.15219633496115e+001,-1.33194447972380e+000

4.53153554118317e+004,-2.15219860473531e+001,-1.35053607095724e+000

4.59479341998812e+004,-2.15220093829864e+001,-1.36938712063742e+000

4.65893434587380e+004,-2.15220333744318e+001,-1.38850124767847e+000

4.72397064571810e+004,-2.15220580401130e+001,-1.40788212138487e+000

4.78991481847569e+004,-2.15220833989707e+001,-1.42753346215115e+000

4.85677953758016e+004,-2.15221094704775e+001,-1.44745904216837e+000

4.92457765337964e+004,-2.15221362746523e+001,-1.46766268614192e+000

4.99332219560642e+004,-2.15221638320760e+001,-1.48814827201844e+000

5.06302637588109e+004,-2.15221921639072e+001,-1.50891973172226e+000

5.13370359025159e+004,-2.15222212918983e+001,-1.52998105190285e+000

5.20536742176771e+004,-2.15222512384121e+001,-1.55133627469163e+000

5.27803164309155e+004,-2.15222820264388e+001,-1.57298949846906e+000

5.35171021914442e+004,-2.15223136796141e+001,-1.59494487864268e+000

5.42641730979066e+004,-2.15223462222364e+001,-1.61720662843569e+000

5.50216727255895e+004,-2.15223796792864e+001,-1.63977901968461e+000

5.57897466540159e+004,-2.15224140764452e+001,-1.66266638365051e+000

5.65685424949235e+004,-2.15224494401147e+001,-1.68587311183914e+000

5.73582099206328e+004,-2.15224857974372e+001,-1.70940365683196e+000

5.81589006928121e+004,-2.15225231763166e+001,-1.73326253313087e+000

5.89707686916437e+004,-2.15225616054392e+001,-1.75745431801057e+000

5.97939699453972e+004,-2.15226011142962e+001,-1.78198365238594e+000

6.06286626604156e+004,-2.15226417332057e+001,-1.80685524168859e+000

6.14750072515201e+004,-2.15226834933362e+001,-1.83207385675658e+000

6.23331663728396e+004,-2.15227264267299e+001,-1.85764433473616e+000

6.32033049490698e+004,-2.15227705663277e+001,-1.88357157999433e+000

6.40855902071694e+004,-2.15228159459942e+001,-1.90986056504394e+000

6.49801917084985e+004,-2.15228626005433e+001,-1.93651633148323e+000

6.58872813814055e+004,-2.15229105657645e+001,-1.96354399094516e+000

6.68070335542691e+004,-2.15229598784512e+001,-1.99094872606042e+000

6.77396249890018e+004,-2.15230105764276e+001,-2.01873579143388e+000

6.86852349150199e+004,-2.15230626985781e+001,-2.04691051463339e+000

6.96440450636895e+004,-2.15231162848767e+001,-2.07547829719244e+000

7.06162397032520e+004,-2.15231713764178e+001,-2.10444461562406e+000

7.16020056742374e+004,-2.15232280154470e+001,-2.13381502245148e+000

7.26015324253724e+004,-2.15232862453935e+001,-2.16359514724944e+000

7.36150120499896e+004,-2.15233461109031e+001,-2.19379069770064e+000

7.46426393229441e+004,-2.15234076578723e+001,-2.22440746066616e+000

7.56846117380472e+004,-2.15234709334829e+001,-2.25545130326953e+000

7.67411295460207e+004,-2.15235359862381e+001,-2.28692817399516e+000

7.78123957929823e+004,-2.15236028659992e+001,-2.31884410380158e+000

7.88986163594682e+004,-2.15236716240237e+001,-2.35120520724856e+000

7.99999999999995e+004,-2.15237423130040e+001,-2.38401768363948e+000

8.11167583832018e+004,-2.15238149871075e+001,-2.41728781817844e+000

8.22491061324848e+004,-2.15238897020175e+001,-2.45102198314293e+000

8.33972608672892e+004,-2.15239665149760e+001,-2.48522663907021e+000

8.45614432449099e+004,-2.15240454848264e+001,-2.51990833596098e+000

8.57418770029029e+004,-2.15241266720585e+001,-2.55507371449772e+000

8.69387890020841e+004,-2.15242101388544e+001,-2.59072950727878e+000

8.81524092701283e+004,-2.15242959491354e+001,-2.62688254006762e+000

8.93829710457770e+004,-2.15243841686103e+001,-2.66353973306021e+000

9.06307108236633e+004,-2.15244748648254e+001,-2.70070810216638e+000

9.18958683997622e+004,-2.15245681072156e+001,-2.73839476030897e+000

9.31786869174758e+004,-2.15246639671564e+001,-2.77660691873886e+000

9.44794129143618e+004,-2.15247625180185e+001,-2.81535188836721e+000

9.57982963695136e+004,-2.15248638352229e+001,-2.85463708111397e+000

9.71355907516031e+004,-2.15249679962977e+001,-2.89447001127421e+000

9.84915530675926e+004,-2.15250750809369e+001,-2.93485829690125e+000

9.98664439121282e+004,-2.15251851710604e+001,-2.97580966120721e+000

1.01260527517622e+005,-2.15252983508755e+001,-3.01733193398092e+000

1.02674071805032e+005,-2.15254147069408e+001,-3.05943305302389e+000

1.04107348435354e+005,-2.15255343282310e+001,-3.10212106560399e+000

1.05560632861831e+005,-2.15256573062040e+001,-3.14540412992754e+000

1.07034204382888e+005,-2.15257837348698e+001,-3.18929051662883e+000

1.08528346195813e+005,-2.15259137108607e+001,-3.23378861027834e+000

1.10043345451179e+005,-2.15260473335046e+001,-3.27890691091012e+000

1.11579493308032e+005,-2.15261847048990e+001,-3.32465403556640e+000

1.13137084989847e+005,-2.15263259299876e+001,-3.37103871986305e+000

1.14716419841265e+005,-2.15264711166395e+001,-3.41806981957163e+000

1.16317801385624e+005,-2.15266203757292e+001,-3.46575631222216e+000

1.17941537383287e+005,-2.15267738212203e+001,-3.51410729872516e+000

1.19587939890794e+005,-2.15269315702505e+001,-3.56313200501221e+000

1.21257325320831e+005,-2.15270937432189e+001,-3.61283978369668e+000

1.22950014503040e+005,-2.15272604638763e+001,-3.66324011575323e+000

1.24666332745679e+005,-2.15274318594175e+001,-3.71434261221944e+000

1.26406609898139e+005,-2.15276080605757e+001,-3.76615701591390e+000

1.28171180414339e+005,-2.15277892017206e+001,-3.81869320317722e+000

1.29960383416997e+005,-2.15279754209578e+001,-3.87196118563212e+000

1.31774562762811e+005,-2.15281668602319e+001,-3.92597111196370e+000

1.33614067108538e+005,-2.15283636654317e+001,-3.98073326972041e+000

1.35479249978003e+005,-2.15285659864986e+001,-4.03625808713491e+000

1.37370469830040e+005,-2.15287739775378e+001,-4.09255613496664e+000

1.39288090127379e+005,-2.15289877969326e+001,-4.14963812836413e+000

1.41232479406504e+005,-2.15292076074613e+001,-4.20751492874845e+000

1.43204011348474e+005,-2.15294335764179e+001,-4.26619754571742e+000

1.45203064850745e+005,-2.15296658757351e+001,-4.32569713897084e+000

1.47230024099979e+005,-2.15299046821118e+001,-4.38602502025667e+000

1.49285278645888e+005,-2.15301501771429e+001,-4.44719265533799e+000

1.51369223476094e+005,-2.15304025474529e+001,-4.50921166598205e+000

1.53482259092041e+005,-2.15306619848333e+001,-4.57209383196876e+000

1.55624791585964e+005,-2.15309286863832e+001,-4.63585109312217e+000

1.57797232718936e+005,-2.15312028546538e+001,-4.70049555136182e+000

1.59999999999999e+005,-2.15314846977971e+001,-4.76603947277631e+000

1.62233516766403e+005,-2.15317744297175e+001,-4.83249528971668e+000

1.64498212264969e+005,-2.15320722702285e+001,-4.89987560291282e+000

1.66794521734578e+005,-2.15323784452127e+001,-4.96819318360966e+000

1.69122886489819e+005,-2.15326931867864e+001,-5.03746097572473e+000

1.71483754005805e+005,-2.15330167334684e+001,-5.10769209802760e+000

1.73877578004168e+005,-2.15333493303529e+001,-5.17889984633937e+000

1.76304818540256e+005,-2.15336912292875e+001,-5.25109769575365e+000

1.78765942091554e+005,-2.15340426890551e+001,-5.32429930287893e+000

1.81261421647326e+005,-2.15344039755610e+001,-5.39851850809984e+000

1.83791736799524e+005,-2.15347753620247e+001,-5.47376933786156e+000

1.86357373834951e+005,-2.15351571291762e+001,-5.55006600697339e+000

1.88958825828723e+005,-2.15355495654586e+001,-5.62742292093206e+000

1.91596592739027e+005,-2.15359529672340e+001,-5.70585467826675e+000

1.94271181503206e+005,-2.15363676389960e+001,-5.78537607290371e+000

1.96983106135185e+005,-2.15367938935877e+001,-5.86600209654937e+000

1.99732887824256e+005,-2.15372320524240e+001,-5.94774794109488e+000

2.02521055035243e+005,-2.15376824457210e+001,-6.03062900103889e+000

2.05348143610063e+005,-2.15381454127299e+001,-6.11466087592963e+000

2.08214696870707e+005,-2.15386213019779e+001,-6.19985937282588e+000

2.11121265723661e+005,-2.15391104715139e+001,-6.28624050877605e+000

2.14068408765776e+005,-2.15396132891619e+001,-6.37382051331581e+000

2.17056692391625e+005,-2.15401301327789e+001,-6.46261583098346e+000

2.20086690902357e+005,-2.15406613905210e+001,-6.55264312385183e+000

2.23158986616063e+005,-2.15412074611144e+001,-6.64391927407829e+000

2.26274169979693e+005,-2.15417687541346e+001,-6.73646138647037e+000

2.29432839682530e+005,-2.15423456902909e+001,-6.83028679106804e+000

2.32635602771247e+005,-2.15429387017196e+001,-6.92541304574086e+000

2.35883074766574e+005,-2.15435482322826e+001,-7.02185793880022e+000

2.39175879781588e+005,-2.15441747378746e+001,-7.11963949162676e+000

2.42514650641661e+005,-2.15448186867366e+001,-7.21877596131023e+000

2.45900029006080e+005,-2.15454805597780e+001,-7.31928584330416e+000

2.49332665491357e+005,-2.15461608509056e+001,-7.42118787409119e+000

2.52813219796278e+005,-2.15468600673610e+001,-7.52450103386185e+000

2.56342360828676e+005,-2.15475787300652e+001,-7.62924454920302e+000

2.59920766833993e+005,-2.15483173739724e+001,-7.73543789579780e+000

2.63549125525621e+005,-2.15490765484313e+001,-7.84310080113426e+000

2.67228134217075e+005,-2.15498568175548e+001,-7.95225324722249e+000

2.70958499956006e+005,-2.15506587605994e+001,-8.06291547331987e+000

2.74740939660078e+005,-2.15514829723515e+001,-8.17510797866287e+000

2.78576180254757e+005,-2.15523300635244e+001,-8.28885152520444e+000

2.82464958813007e+005,-2.15532006611631e+001,-8.40416714035656e+000

2.86408022696948e+005,-2.15540954090592e+001,-8.52107611973549e+000

2.90406129701488e+005,-2.15550149681742e+001,-8.63960002991103e+000

2.94460048199957e+005,-2.15559600170734e+001,-8.75976071115517e+000

2.98570557291775e+005,-2.15569312523683e+001,-8.88158028019284e+000

3.02738446952187e+005,-2.15579293891698e+001,-9.00508113294987e+000

3.06964518184081e+005,-2.15589551615509e+001,-9.13028594729949e+000

3.11249583171928e+005,-2.15600093230194e+001,-9.25721768580428e+000

3.15594465437872e+005,-2.15610926470009e+001,-9.38589959845338e+000

3.19999999999997e+005,-2.15622059273328e+001,-9.51635522539232e+000

3.24467033532806e+005,-2.15633499787676e+001,-9.64860839964522e+000

3.28996424529938e+005,-2.15645256374884e+001,-9.78268324982594e+000

3.33589043469155e+005,-2.15657337616335e+001,-9.91860420283916e+000

3.38245772979638e+005,-2.15669752318336e+001,-1.00563959865667e+001

3.42967508011610e+005,-2.15682509517592e+001,-1.01960836325392e+001

3.47755156008335e+005,-2.15695618486790e+001,-1.03376924785919e+001

3.52609637080511e+005,-2.15709088740305e+001,-1.04812481714995e+001

3.57531884183106e+005,-2.15722930040012e+001,-1.06267766695921e+001

3.62522843294651e+005,-2.15737152401218e+001,-1.07743042453478e+001

3.67583473599047e+005,-2.15751766098712e+001,-1.09238574879595e+001

3.72714747669902e+005,-2.15766781672929e+001,-1.10754633058756e+001

3.77917651657445e+005,-2.15782209936238e+001,-1.12291489293113e+001

3.83193185478053e+005,-2.15798061979345e+001,-1.13849419127283e+001

3.88542363006410e+005,-2.15814349177821e+001,-1.15428701372797e+001

3.93966212270369e+005,-2.15831083198749e+001,-1.17029618132199e+001

3.99465775648511e+005,-2.15848276007497e+001,-1.18652454822748e+001

4.05042110070485e+005,-2.15865939874610e+001,-1.20297500199704e+001

4.10696287220124e+005,-2.15884087382831e+001,-1.21965046379181e+001

4.16429393741414e+005,-2.15902731434240e+001,-1.23655388860530e+001

4.22242531447321e+005,-2.15921885257529e+001,-1.25368826548219e+001

4.28136817531551e+005,-2.15941562415388e+001,-1.27105661773199e+001

4.34113384783250e+005,-2.15961776812031e+001,-1.28866200313715e+001

4.40173381804713e+005,-2.15982542700842e+001,-1.30650751415528e+001

4.46317973232124e+005,-2.16003874692143e+001,-1.32459627811527e+001

4.52548339959385e+005,-2.16025787761098e+001,-1.34293145740706e+001

4.58865679365059e+005,-2.16048297255736e+001,-1.36151624966440e+001

4.65271205542494e+005,-2.16071418905106e+001,-1.38035388794079e+001

4.71766149533147e+005,-2.16095168827551e+001,-1.39944764087770e+001

4.78351759563174e+005,-2.16119563539117e+001,-1.41880081286529e+001

4.85029301283321e+005,-2.16144619962077e+001,-1.43841674419475e+001

4.91800058012158e+005,-2.16170355433590e+001,-1.45829881120226e+001

4.98665330982714e+005,-2.16196787714478e+001,-1.47845042640410e+001

5.05626439592555e+005,-2.16223934998125e+001,-1.49887503862249e+001

5.12684721657352e+005,-2.16251815919502e+001,-1.51957613310172e+001

5.19841533667984e+005,-2.16280449564315e+001,-1.54055723161441e+001

5.27098251051240e+005,-2.16309855478265e+001,-1.56182189255725e+001

5.34456268434150e+005,-2.16340053676433e+001,-1.58337371103589e+001

5.41916999912011e+005,-2.16371064652780e+001,-1.60521631893865e+001

