Freq.,VOut,OutRef

1.00000000000000e+004,-1.60921619663132e+001,-1.38895504993095e-001

1.01395947979003e+004,-1.60921621745775e+001,-1.40834409081999e-001

1.02811382665607e+004,-1.60921623886964e+001,-1.42800379055918e-001

1.04246576084112e+004,-1.60921626088350e+001,-1.44793792729506e-001

1.05701804056138e+004,-1.60921628351621e+001,-1.46815033195628e-001

1.07177346253629e+004,-1.60921630678521e+001,-1.48864488889752e-001

1.08673486252606e+004,-1.60921633070833e+001,-1.50942553674740e-001

1.10190511587661e+004,-1.60921635530401e+001,-1.53049626905469e-001

1.11728713807222e+004,-1.60921638059111e+001,-1.55186113516129e-001

1.13288388529580e+004,-1.60921640658912e+001,-1.57352424088510e-001

1.14869835499703e+004,-1.60921643331798e+001,-1.59548974939480e-001

1.16473358646846e+004,-1.60921646079824e+001,-1.61776188195353e-001

1.18099266142953e+004,-1.60921648905104e+001,-1.64034491873870e-001

1.19747870461893e+004,-1.60921651809809e+001,-1.66324319967588e-001

1.21419488439505e+004,-1.60921654796171e+001,-1.68646112527265e-001

1.23114441334492e+004,-1.60921657866488e+001,-1.71000315744676e-001

1.24833054890161e+004,-1.60921661023117e+001,-1.73387382042053e-001

1.26575659397028e+004,-1.60921664268485e+001,-1.75807770154214e-001

1.28342589756290e+004,-1.60921667605086e+001,-1.78261945221367e-001

1.30134185544193e+004,-1.60921671035487e+001,-1.80750378871466e-001

1.31950791077289e+004,-1.60921674562321e+001,-1.83273549321771e-001

1.33792755478611e+004,-1.60921678188302e+001,-1.85831941459574e-001

1.35660432744767e+004,-1.60921681916215e+001,-1.88426046942434e-001

1.37554181813974e+004,-1.60921685748928e+001,-1.91056364288728e-001

1.39474366635040e+004,-1.60921689689383e+001,-1.93723398977505e-001

1.41421356237309e+004,-1.60921693740611e+001,-1.96427663540305e-001

1.43395524801583e+004,-1.60921697905726e+001,-1.99169677664746e-001

1.45397251732031e+004,-1.60921702187928e+001,-2.01949968290401e-001

1.47426921729110e+004,-1.60921706590507e+001,-2.04769069714050e-001

1.49484924863494e+004,-1.60921711116851e+001,-2.07627523685630e-001

1.51571656651040e+004,-1.60921715770435e+001,-2.10525879520150e-001

1.53687518128801e+004,-1.60921720554836e+001,-2.13464694199815e-001

1.55832915932100e+004,-1.60921725473733e+001,-2.16444532477208e-001

1.58008262372675e+004,-1.60921730530905e+001,-2.19465966991326e-001

1.60213975517924e+004,-1.60921735730239e+001,-2.22529578370296e-001

1.62450479271247e+004,-1.60921741075731e+001,-2.25635955349858e-001

1.64718203453514e+004,-1.60921746571489e+001,-2.28785694879150e-001

1.67017583885674e+004,-1.60921752221736e+001,-2.31979402240646e-001

1.69349062472505e+004,-1.60921758030816e+001,-2.35217691164969e-001

1.71713087287550e+004,-1.60921764003191e+001,-2.38501183948002e-001

1.74110112659224e+004,-1.60921770143453e+001,-2.41830511570145e-001

1.76540599258131e+004,-1.60921776456321e+001,-2.45206313819112e-001

1.79005014185594e+004,-1.60921782946644e+001,-2.48629239412288e-001

1.81503831063432e+004,-1.60921789619411e+001,-2.52099946120491e-001

1.84037530124975e+004,-1.60921796479750e+001,-2.55619100894476e-001

1.86606598307361e+004,-1.60921803532933e+001,-2.59187379992591e-001

1.89211529345119e+004,-1.60921810784380e+001,-2.62805469112760e-001

1.91852823865052e+004,-1.60921818239662e+001,-2.66474063521916e-001

1.94530989482457e+004,-1.60921825904509e+001,-2.70193868189931e-001

1.97246540898671e+004,-1.60921833784811e+001,-2.73965597925266e-001

1.99999999999999e+004,-1.60921841886624e+001,-2.77789977512289e-001

2.02791895958005e+004,-1.60921850216173e+001,-2.81667741850818e-001

2.05622765331213e+004,-1.60921858779857e+001,-2.85599636096395e-001

2.08493152168224e+004,-1.60921867584259e+001,-2.89586415803495e-001

2.11403608112276e+004,-1.60921876636142e+001,-2.93628847070663e-001

2.14354692507258e+004,-1.60921885942461e+001,-2.97727706688495e-001

2.17346972505211e+004,-1.60921895510368e+001,-3.01883782286903e-001

2.20381023175322e+004,-1.60921905347211e+001,-3.06097872488400e-001

2.23457427614443e+004,-1.60921915460554e+001,-3.10370787057719e-001

2.26576777059159e+004,-1.60921925858162e+001,-3.14703347063933e-001

2.29739670999406e+004,-1.60921936548025e+001,-3.19096385030768e-001

2.32946717293690e+004,-1.60921947538358e+001,-3.23550745099414e-001

2.36198532285905e+004,-1.60921958837601e+001,-3.28067283193536e-001

2.39495740923785e+004,-1.60921970454438e+001,-3.32646867177361e-001

2.42838976879009e+004,-1.60921982397791e+001,-3.37290377028199e-001

2.46228882668982e+004,-1.60921994676838e+001,-3.41998705000690e-001

2.49666109780322e+004,-1.60922007301010e+001,-3.46772755800838e-001

2.53151318794055e+004,-1.60922020280005e+001,-3.51613446758618e-001

2.56685179512580e+004,-1.60922033623794e+001,-3.56521708004329e-001

2.60268371088386e+004,-1.60922047342627e+001,-3.61498482646397e-001

2.63901582154578e+004,-1.60922061447043e+001,-3.66544726952559e-001

2.67585510957221e+004,-1.60922075947875e+001,-3.71661410533631e-001

2.71320865489533e+004,-1.60922090856261e+001,-3.76849516530251e-001

2.75108363627948e+004,-1.60922106183655e+001,-3.82110041798599e-001

2.78948733270080e+004,-1.60922121941825e+001,-3.87443997106612e-001

2.82842712474618e+004,-1.60922138142879e+001,-3.92852407320904e-001

2.86791049603164e+004,-1.60922154799257e+001,-3.98336311610616e-001

2.90794503464061e+004,-1.60922171923753e+001,-4.03896763641230e-001

2.94853843458219e+004,-1.60922189529517e+001,-4.09534831780573e-001

2.98969849726987e+004,-1.60922207630071e+001,-4.15251599300556e-001

3.03143313302078e+004,-1.60922226239315e+001,-4.21048164585484e-001

3.07375036257601e+004,-1.60922245371540e+001,-4.26925641345061e-001

3.11665831864199e+004,-1.60922265041439e+001,-4.32885158824817e-001

3.16016524745350e+004,-1.60922285264114e+001,-4.38927862024886e-001

3.20427951035848e+004,-1.60922306055095e+001,-4.45054911918254e-001

3.24900958542493e+004,-1.60922327430344e+001,-4.51267485674134e-001

3.29436406907028e+004,-1.60922349406275e+001,-4.57566776880970e-001

3.34035167771346e+004,-1.60922371999760e+001,-4.63953995780369e-001

3.38698124945009e+004,-1.60922395228145e+001,-4.70430369493135e-001

3.43426174575100e+004,-1.60922419109263e+001,-4.76997142259929e-001

3.48220225318448e+004,-1.60922443661448e+001,-4.83655575673700e-001

3.53081198516260e+004,-1.60922468903547e+001,-4.90406948928008e-001

3.58010028371187e+004,-1.60922494854938e+001,-4.97252559056076e-001

3.63007662126863e+004,-1.60922521535540e+001,-5.04193721183836e-001

3.68075060249948e+004,-1.60922548965833e+001,-5.11231768778378e-001

3.73213196614721e+004,-1.60922577166870e+001,-5.18368053906257e-001

3.78423058690237e+004,-1.60922606160295e+001,-5.25603947489770e-001

3.83705647730104e+004,-1.60922635968361e+001,-5.32940839570886e-001

3.89061978964912e+004,-1.60922666613943e+001,-5.40380139577692e-001

3.94493081797342e+004,-1.60922698120557e+001,-5.47923276593950e-001

3.99999999999998e+004,-1.60922730512382e+001,-5.55571699631369e-001

4.05583791916010e+004,-1.60922763814269e+001,-5.63326877908999e-001

4.11245530662425e+004,-1.60922798051772e+001,-5.71190301133037e-001

4.16986304336447e+004,-1.60922833251159e+001,-5.79163479782169e-001

4.22807216224550e+004,-1.60922869439434e+001,-5.87247945396624e-001

4.28709385014515e+004,-1.60922906644358e+001,-5.95445250871029e-001

4.34693945010421e+004,-1.60922944894471e+001,-6.03756970752588e-001

4.40762046350642e+004,-1.60922984219112e+001,-6.12184701540576e-001

4.46914855228886e+004,-1.60923024648445e+001,-6.20730061991962e-001

4.53153554118317e+004,-1.60923066213475e+001,-6.29394693432027e-001

4.59479341998812e+004,-1.60923108946080e+001,-6.38180260066684e-001

4.65893434587380e+004,-1.60923152879027e+001,-6.47088449302696e-001

4.72397064571810e+004,-1.60923198046005e+001,-6.56120972066948e-001

4.78991481847569e+004,-1.60923244481645e+001,-6.65279563136990e-001

4.85677953758016e+004,-1.60923292221547e+001,-6.74565981470299e-001

4.92457765337964e+004,-1.60923341302311e+001,-6.83982010539655e-001

4.99332219560642e+004,-1.60923391761559e+001,-6.93529458676522e-001

5.06302637588109e+004,-1.60923443637969e+001,-7.03210159413402e-001

5.13370359025159e+004,-1.60923496971299e+001,-7.13025971836769e-001

5.20536742176771e+004,-1.60923551802424e+001,-7.22978780938503e-001

5.27803164309155e+004,-1.60923608173360e+001,-7.33070497979316e-001

5.35171021914442e+004,-1.60923666127299e+001,-7.43303060851560e-001

5.42641730979066e+004,-1.60923725708645e+001,-7.53678434448371e-001

5.50216727255895e+004,-1.60923786963042e+001,-7.64198611039494e-001

5.57897466540159e+004,-1.60923849937410e+001,-7.74865610651651e-001

5.65685424949235e+004,-1.60923914679984e+001,-7.85681481452630e-001

5.73582099206328e+004,-1.60923981240349e+001,-7.96648300141816e-001

5.81589006928121e+004,-1.60924049669472e+001,-8.07768172347117e-001

5.89707686916437e+004,-1.60924120019751e+001,-8.19043233024889e-001

5.97939699453972e+004,-1.60924192345044e+001,-8.30475646866912e-001

6.06286626604156e+004,-1.60924266700719e+001,-8.42067608713235e-001

6.14750072515201e+004,-1.60924343143688e+001,-8.53821343969509e-001

6.23331663728396e+004,-1.60924421732455e+001,-8.65739109030734e-001

6.32033049490698e+004,-1.60924502527159e+001,-8.77823191711208e-001

6.40855902071694e+004,-1.60924585589618e+001,-8.90075911678134e-001

6.49801917084985e+004,-1.60924670983378e+001,-9.02499620895179e-001

6.58872813814055e+004,-1.60924758773758e+001,-9.15096704067053e-001

6.68070335542691e+004,-1.60924849027902e+001,-9.27869579095777e-001

6.77396249890018e+004,-1.60924941814828e+001,-9.40820697537046e-001

6.86852349150199e+004,-1.60925037205480e+001,-9.53952545068691e-001

6.96440450636895e+004,-1.60925135272781e+001,-9.67267641960359e-001

7.06162397032520e+004,-1.60925236091691e+001,-9.80768543553476e-001

7.16020056742374e+004,-1.60925339739259e+001,-9.94457840745726e-001

7.26015324253724e+004,-1.60925446294681e+001,-1.00833816048335e+000

7.36150120499896e+004,-1.60925555839363e+001,-1.02241216625754e+000

7.46426393229441e+004,-1.60925668456980e+001,-1.03668255861108e+000

7.56846117380472e+004,-1.60925784233540e+001,-1.05115207564864e+000

7.67411295460207e+004,-1.60925903257443e+001,-1.06582349355706e+000

7.78123957929823e+004,-1.60926025619554e+001,-1.08069962713039e+000

7.88986163594682e+004,-1.60926151413269e+001,-1.09578333030131e+000

7.99999999999995e+004,-1.60926280734582e+001,-1.11107749668387e+000

8.11167583832018e+004,-1.60926413682160e+001,-1.12658506011718e+000

8.22491061324848e+004,-1.60926550357413e+001,-1.14230899522381e+000

8.33972608672892e+004,-1.60926690864574e+001,-1.15825231796889e+000

8.45614432449099e+004,-1.60926835310772e+001,-1.17441808623090e+000

8.57418770029029e+004,-1.60926983806116e+001,-1.19080940037853e+000

8.69387890020841e+004,-1.60927136463774e+001,-1.20742940385606e+000

8.81524092701283e+004,-1.60927293400057e+001,-1.22428128377598e+000

8.93829710457770e+004,-1.60927454734505e+001,-1.24136827151965e+000

9.06307108236633e+004,-1.60927620589980e+001,-1.25869364334560e+000

9.18958683997622e+004,-1.60927791092749e+001,-1.27626072100717e+000

9.31786869174758e+004,-1.60927966372584e+001,-1.29407287237712e+000

9.44794129143618e+004,-1.60928146562857e+001,-1.31213351208028e+000

9.57982963695136e+004,-1.60928331800635e+001,-1.33044610213710e+000

9.71355907516031e+004,-1.60928522226781e+001,-1.34901415261228e+000

9.84915530675926e+004,-1.60928717986063e+001,-1.36784122227455e+000

9.98664439121282e+004,-1.60928919227254e+001,-1.38693091926417e+000

1.01260527517622e+005,-1.60929126103247e+001,-1.40628690176873e+000

1.02674071805032e+005,-1.60929338771161e+001,-1.42591287870958e+000

1.04107348435354e+005,-1.60929557392461e+001,-1.44581261043467e+000

1.05560632861831e+005,-1.60929782133074e+001,-1.46598990942450e+000

1.07034204382888e+005,-1.60930013163509e+001,-1.48644864100220e+000

1.08528346195813e+005,-1.60930250658984e+001,-1.50719272405731e+000

1.10043345451179e+005,-1.60930494799550e+001,-1.52822613177638e+000

1.11579493308032e+005,-1.60930745770225e+001,-1.54955289238497e+000

1.13137084989847e+005,-1.60931003761128e+001,-1.57117708989780e+000

1.14716419841265e+005,-1.60931268967614e+001,-1.59310286487890e+000

1.16317801385624e+005,-1.60931541590418e+001,-1.61533441521283e+000

1.17941537383287e+005,-1.60931821835798e+001,-1.63787599688436e+000

1.19587939890794e+005,-1.60932109915684e+001,-1.66073192476961e+000

1.21257325320831e+005,-1.60932406047833e+001,-1.68390657343607e+000

1.22950014503040e+005,-1.60932710455980e+001,-1.70740437795398e+000

1.24666332745679e+005,-1.60933023370004e+001,-1.73122983471728e+000

1.26406609898139e+005,-1.60933345026088e+001,-1.75538750227632e+000

1.28171180414339e+005,-1.60933675666891e+001,-1.77988200217995e+000

1.29960383416997e+005,-1.60934015541717e+001,-1.80471801982842e+000

1.31774562762811e+005,-1.60934364906695e+001,-1.82990030533897e+000

1.33614067108538e+005,-1.60934724024960e+001,-1.85543367441943e+000

1.35479249978003e+005,-1.60935093166839e+001,-1.88132300925571e+000

1.37370469830040e+005,-1.60935472610040e+001,-1.90757325940917e+000

1.39288090127379e+005,-1.60935862639850e+001,-1.93418944272479e+000

1.41232479406504e+005,-1.60936263549335e+001,-1.96117664625151e+000

1.43204011348474e+005,-1.60936675639542e+001,-1.98854002717549e+000

1.45203064850745e+005,-1.60937099219715e+001,-2.01628481376153e+000

1.47230024099979e+005,-1.60937534607503e+001,-2.04441630631001e+000

1.49285278645888e+005,-1.60937982129188e+001,-2.07293987812286e+000

1.51369223476094e+005,-1.60938442119907e+001,-2.10186097648336e+000

1.53482259092041e+005,-1.60938914923883e+001,-2.13118512364733e+000

1.55624791585964e+005,-1.60939400894664e+001,-2.16091791784669e+000

1.57797232718936e+005,-1.60939900395364e+001,-2.19106503430476e+000

1.59999999999999e+005,-1.60940413798913e+001,-2.22163222626508e+000

1.62233516766403e+005,-1.60940941488308e+001,-2.25262532603195e+000

1.64498212264969e+005,-1.60941483856879e+001,-2.28405024602466e+000

1.66794521734578e+005,-1.60942041308548e+001,-2.31591297984256e+000

1.69122886489819e+005,-1.60942614258108e+001,-2.34821960334483e+000

1.71483754005805e+005,-1.60943203131498e+001,-2.38097627574341e+000

1.73877578004168e+005,-1.60943808366090e+001,-2.41418924070738e+000

1.76304818540256e+005,-1.60944430410978e+001,-2.44786482748152e+000

1.78765942091554e+005,-1.60945069727280e+001,-2.48200945201893e+000

1.81261421647326e+005,-1.60945726788440e+001,-2.51662961812570e+000

1.83791736799524e+005,-1.60946402080543e+001,-2.55173191862009e+000

1.86357373834951e+005,-1.60947096102630e+001,-2.58732303650502e+000

1.88958825828723e+005,-1.60947809367024e+001,-2.62340974615427e+000

1.91596592739027e+005,-1.60948542399668e+001,-2.65999891451362e+000

1.94271181503206e+005,-1.60949295740458e+001,-2.69709750231306e+000

1.96983106135185e+005,-1.60950069943596e+001,-2.73471256529701e+000

1.99732887824256e+005,-1.60950865577941e+001,-2.77285125546593e+000

2.02521055035243e+005,-1.60951683227374e+001,-2.81152082233363e+000

2.05348143610063e+005,-1.60952523491166e+001,-2.85072861419723e+000

2.08214696870707e+005,-1.60953386984355e+001,-2.89048207942462e+000

2.11121265723661e+005,-1.60954274338133e+001,-2.93078876775316e+000

2.14068408765776e+005,-1.60955186200239e+001,-2.97165633160616e+000

2.17056692391625e+005,-1.60956123235357e+001,-3.01309252742170e+000

2.20086690902357e+005,-1.60957086125528e+001,-3.05510521699760e+000

2.23158986616063e+005,-1.60958075570565e+001,-3.09770236885205e+000

2.26274169979693e+005,-1.60959092288480e+001,-3.14089205959750e+000

2.29432839682530e+005,-1.60960137015913e+001,-3.18468247533175e+000

2.32635602771247e+005,-1.60961210508576e+001,-3.22908191304286e+000

2.35883074766574e+005,-1.60962313541704e+001,-3.27409878203088e+000

2.39175879781588e+005,-1.60963446910506e+001,-3.31974160534394e+000

2.42514650641661e+005,-1.60964611430638e+001,-3.36601902123064e+000

2.45900029006080e+005,-1.60965807938674e+001,-3.41293978460767e+000

2.49332665491357e+005,-1.60967037292585e+001,-3.46051276854519e+000

2.52813219796278e+005,-1.60968300372237e+001,-3.50874696576452e+000

2.56342360828676e+005,-1.60969598079881e+001,-3.55765149015639e+000

2.59920766833993e+005,-1.60970931340667e+001,-3.60723557831170e+000

2.63549125525621e+005,-1.60972301103156e+001,-3.65750859107086e+000

2.67228134217075e+005,-1.60973708339843e+001,-3.70848001508853e+000

2.70958499956006e+005,-1.60975154047688e+001,-3.76015946441573e+000

2.74740939660078e+005,-1.60976639248657e+001,-3.81255668209813e+000

2.78576180254757e+005,-1.60978164990271e+001,-3.86568154179062e+000

2.82464958813007e+005,-1.60979732346156e+001,-3.91954404939090e+000

2.86408022696948e+005,-1.60981342416609e+001,-3.97415434468775e+000

2.90406129701488e+005,-1.60982996329171e+001,-4.02952270302835e+000

2.94460048199957e+005,-1.60984695239199e+001,-4.08565953700279e+000

2.98570557291775e+005,-1.60986440330458e+001,-4.14257539814487e+000

3.02738446952187e+005,-1.60988232815708e+001,-4.20028097865257e+000

3.06964518184081e+005,-1.60990073937310e+001,-4.25878711312512e+000

3.11249583171928e+005,-1.60991964967825e+001,-4.31810478031916e+000

3.15594465437872e+005,-1.60993907210634e+001,-4.37824510492279e+000

3.19999999999997e+005,-1.60995902000553e+001,-4.43921935934766e+000

3.24467033532806e+005,-1.60997950704462e+001,-4.50103896554168e+000

3.28996424529938e+005,-1.61000054721934e+001,-4.56371549681839e+000

3.33589043469155e+005,-1.61002215485875e+001,-4.62726067970749e+000

3.38245772979638e+005,-1.61004434463164e+001,-4.69168639582458e+000

3.42967508011610e+005,-1.61006713155305e+001,-4.75700468375929e+000

3.47755156008335e+005,-1.61009053099074e+001,-4.82322774098652e+000

3.52609637080511e+005,-1.61011455867180e+001,-4.89036792579514e+000

3.57531884183106e+005,-1.61013923068926e+001,-4.95843775923957e+000

3.62522843294651e+005,-1.61016456350872e+001,-5.02744992711146e+000

3.67583473599047e+005,-1.61019057397506e+001,-5.09741728193376e+000

3.72714747669902e+005,-1.61021727931913e+001,-5.16835284497629e+000

3.77917651657445e+005,-1.61024469716447e+001,-5.24026980829437e+000

3.83193185478053e+005,-1.61027284553412e+001,-5.31318153678971e+000

3.88542363006410e+005,-1.61030174285736e+001,-5.38710157029483e+000

3.93966212270369e+005,-1.61033140797650e+001,-5.46204362568258e+000

3.99465775648511e+005,-1.61036186015370e+001,-5.53802159899897e+000

4.05042110070485e+005,-1.61039311907776e+001,-5.61504956762142e+000

4.10696287220124e+005,-1.61042520487092e+001,-5.69314179244351e+000

4.16429393741414e+005,-1.61045813809564e+001,-5.77231272008593e+000

4.22242531447321e+005,-1.61049193976144e+001,-5.85257698513382e+000

4.28136817531551e+005,-1.61052663133164e+001,-5.93394941240364e+000

4.34113384783250e+005,-1.61056223473011e+001,-6.01644501923816e+000

4.40173381804713e+005,-1.61059877234804e+001,-6.10007901783017e+000

4.46317973232124e+005,-1.61063626705063e+001,-6.18486681757864e+000

4.52548339959385e+005,-1.61067474218377e+001,-6.27082402747526e+000

4.58865679365059e+005,-1.61071422158071e+001,-6.35796645852328e+000

4.65271205542494e+005,-1.61075472956864e+001,-6.44631012619149e+000

4.71766149533147e+005,-1.61079629097529e+001,-6.53587125290061e+000

4.78351759563174e+005,-1.61083893113546e+001,-6.62666627054829e+000

4.85029301283321e+005,-1.61088267589752e+001,-6.71871182306864e+000

4.91800058012158e+005,-1.61092755162982e+001,-6.81202476903247e+000

4.98665330982714e+005,-1.61097358522710e+001,-6.90662218428546e+000

5.05626439592555e+005,-1.61102080411686e+001,-7.00252136462909e+000

5.12684721657352e+005,-1.61106923626567e+001,-7.09973982854304e+000

5.19841533667984e+005,-1.61111891018540e+001,-7.19829531995203e+000

5.27098251051240e+005,-1.61116985493943e+001,-7.29820581103921e+000

5.34456268434150e+005,-1.61122210014891e+001,-7.39948950510573e+000

5.41916999912011e+005,-1.61127567599878e+001,-7.50216483948088e+000

