Freq.,VOut,OutRef

1.00000000000000e+004,-8.99139560836014e+000,-1.92742831671914e-002

1.01395947979003e+004,-8.99139578491925e+000,-1.95433346269003e-002

1.02811382665607e+004,-8.99139596644093e+000,-1.98161415910656e-002

1.04246576084112e+004,-8.99139615306616e+000,-2.00927564617951e-002

1.05701804056138e+004,-8.99139634493693e+000,-2.03732323908743e-002

1.07177346253629e+004,-8.99139654220186e+000,-2.06576232542717e-002

1.08673486252606e+004,-8.99139674501237e+000,-2.09459836883634e-002

1.10190511587661e+004,-8.99139695352354e+000,-2.12383690955291e-002

1.11728713807222e+004,-8.99139716789633e+000,-2.15348356407667e-002

1.13288388529580e+004,-8.99139738829536e+000,-2.18354402785981e-002

1.14869835499703e+004,-8.99139761489046e+000,-2.21402407534215e-002

1.16473358646846e+004,-8.99139784785504e+000,-2.24492956227038e-002

1.18099266142953e+004,-8.99139808736805e+000,-2.27626642566228e-002

1.19747870461893e+004,-8.99139833361453e+000,-2.30804068464842e-002

1.21419488439505e+004,-8.99139858678261e+000,-2.34025844360200e-002

1.23114441334492e+004,-8.99139884706757e+000,-2.37292589087242e-002

1.24833054890161e+004,-8.99139911466982e+000,-2.40604930129265e-002

1.26575659397028e+004,-8.99139938979367e+000,-2.43963503832481e-002

1.28342589756290e+004,-8.99139967265127e+000,-2.47368955279829e-002

1.30134185544193e+004,-8.99139996346033e+000,-2.50821938578963e-002

1.31950791077289e+004,-8.99140026244410e+000,-2.54323116987310e-002

1.33792755478611e+004,-8.99140056983189e+000,-2.57873163025552e-002

1.35660432744767e+004,-8.99140088586058e+000,-2.61472758519386e-002

1.37554181813974e+004,-8.99140121077281e+000,-2.65122594857458e-002

1.39474366635040e+004,-8.99140154481768e+000,-2.68823373090753e-002

1.41421356237309e+004,-8.99140188825277e+000,-2.72575803939863e-002

1.43395524801583e+004,-8.99140224134142e+000,-2.76380608137405e-002

1.45397251732031e+004,-8.99140260435533e+000,-2.80238516396048e-002

1.47426921729110e+004,-8.99140297757286e+000,-2.84150269672618e-002

1.49484924863494e+004,-8.99140336128114e+000,-2.88116619197369e-002

1.51571656651040e+004,-8.99140375577511e+000,-2.92138326677930e-002

1.53687518128801e+004,-8.99140416135771e+000,-2.96216164463065e-002

1.55832915932100e+004,-8.99140457834068e+000,-3.00350915643372e-002

1.58008262372675e+004,-8.99140500704391e+000,-3.04543374261399e-002

1.60213975517924e+004,-8.99140544779768e+000,-3.08794345331932e-002

1.62450479271247e+004,-8.99140590093952e+000,-3.13104645219035e-002

1.64718203453514e+004,-8.99140636681896e+000,-3.17475101498754e-002

1.67017583885674e+004,-8.99140684579260e+000,-3.21906553452675e-002

1.69349062472505e+004,-8.99140733822918e+000,-3.26399851919919e-002

1.71713087287550e+004,-8.99140784450686e+000,-3.30955859650385e-002

1.74110112659224e+004,-8.99140836501435e+000,-3.35575451417948e-002

1.76540599258131e+004,-8.99140890015172e+000,-3.40259514153172e-002

1.79005014185594e+004,-8.99140945033024e+000,-3.45008947140949e-002

1.81503831063432e+004,-8.99141001597209e+000,-3.49824662231343e-002

1.84037530124975e+004,-8.99141059751206e+000,-3.54707583925687e-002

1.86606598307361e+004,-8.99141119539721e+000,-3.59658649594219e-002

1.89211529345119e+004,-8.99141181008572e+000,-3.64678809757463e-002

1.91852823865052e+004,-8.99141244205086e+000,-3.69769028018781e-002

1.94530989482457e+004,-8.99141309177779e+000,-3.74930281491225e-002

1.97246540898671e+004,-8.99141375976519e+000,-3.80163560897862e-002

1.99999999999999e+004,-8.99141444652660e+000,-3.85469870697612e-002

2.02791895958005e+004,-8.99141515258909e+000,-3.90850229384594e-002

2.05622765331213e+004,-8.99141587849484e+000,-3.96305669614491e-002

2.08493152168224e+004,-8.99141662480173e+000,-4.01837238376195e-002

2.11403608112276e+004,-8.99141739208265e+000,-4.07445997275972e-002

2.14354692507258e+004,-8.99141818092694e+000,-4.13133022667185e-002

2.17346972505211e+004,-8.99141899194039e+000,-4.18899405879979e-002

2.20381023175322e+004,-8.99141982574592e+000,-4.24746253425846e-002

2.23457427614443e+004,-8.99142068298353e+000,-4.30674687228049e-002

2.26576777059159e+004,-8.99142156431172e+000,-4.36685844787109e-002

2.29739670999406e+004,-8.99142247040695e+000,-4.42780879449325e-002

2.32946717293690e+004,-8.99142340196492e+000,-4.48960960590965e-002

2.36198532285905e+004,-8.99142435970145e+000,-4.55227273802979e-002

2.39495740923785e+004,-8.99142534435080e+000,-4.61581021271726e-002

2.42838976879009e+004,-8.99142635666977e+000,-4.68023421771583e-002

2.46228882668982e+004,-8.99142739743541e+000,-4.74555711072549e-002

2.49666109780322e+004,-8.99142846744614e+000,-4.81179142160096e-002

2.53151318794055e+004,-8.99142956752393e+000,-4.87894985347938e-002

2.56685179512580e+004,-8.99143069851316e+000,-4.94704528649368e-002

2.60268371088386e+004,-8.99143186128176e+000,-5.01609077978417e-002

2.63901582154578e+004,-8.99143305672201e+000,-5.08609957384153e-002

2.67585510957221e+004,-8.99143428575143e+000,-5.15708509306785e-002

2.71320865489533e+004,-8.99143554931358e+000,-5.22906094793041e-002

2.75108363627948e+004,-8.99143684837821e+000,-5.30204093819191e-002

2.78948733270080e+004,-8.99143818394194e+000,-5.37603905528314e-002

2.82842712474618e+004,-8.99143955702968e+000,-5.45106948477059e-002

2.86791049603164e+004,-8.99144096869529e+000,-5.52714660885340e-002

2.90794503464061e+004,-8.99144242002136e+000,-5.60428500989648e-002

2.94853843458219e+004,-8.99144391212181e+000,-5.68249947190093e-002

2.98969849726987e+004,-8.99144544614138e+000,-5.76180498426658e-002

3.03143313302078e+004,-8.99144702325659e+000,-5.84221674450226e-002

3.07375036257601e+004,-8.99144864467753e+000,-5.92375016036942e-002

3.11665831864199e+004,-8.99145031164769e+000,-6.00642085370222e-002

3.16016524745350e+004,-8.99145202544569e+000,-6.09024466262711e-002

3.20427951035848e+004,-8.99145378738599e+000,-6.17523764479147e-002

3.24900958542493e+004,-8.99145559881995e+000,-6.26141608028625e-002

3.29436406907028e+004,-8.99145746113633e+000,-6.34879647501716e-002

3.34035167771346e+004,-8.99145937576357e+000,-6.43739556302299e-002

3.38698124945009e+004,-8.99146134416908e+000,-6.52723031073467e-002

3.43426174575100e+004,-8.99146336786274e+000,-6.61831791853233e-002

3.48220225318448e+004,-8.99146544839540e+000,-6.71067582578590e-002

3.53081198516260e+004,-8.99146758736220e+000,-6.80432171256451e-002

3.58010028371187e+004,-8.99146978640274e+000,-6.89927350367436e-002

3.63007662126863e+004,-8.99147204720204e+000,-6.99554937215379e-002

3.68075060249948e+004,-8.99147437149285e+000,-7.09316774191867e-002

3.73213196614721e+004,-8.99147676105656e+000,-7.19214729152231e-002

3.78423058690237e+004,-8.99147921772398e+000,-7.29250695785531e-002

3.83705647730104e+004,-8.99148174337726e+000,-7.39426593940528e-002

3.89061978964912e+004,-8.99148433995111e+000,-7.49744369987270e-002

3.94493081797342e+004,-8.99148700943503e+000,-7.60205997124742e-002

3.99999999999998e+004,-8.99148975387310e+000,-7.70813475855784e-002

4.05583791916010e+004,-8.99149257536764e+000,-7.81568834222946e-002

4.11245530662425e+004,-8.99149547607918e+000,-7.92474128274912e-002

4.16986304336447e+004,-8.99149845822837e+000,-8.03531442430658e-002

4.22807216224550e+004,-8.99150152409902e+000,-8.14742889777003e-002

4.28709385014515e+004,-8.99150467603737e+000,-8.26110612601945e-002

4.34693945010421e+004,-8.99150791645644e+000,-8.37636782626837e-002

4.40762046350642e+004,-8.99151124783623e+000,-8.49323601506586e-002

4.46914855228886e+004,-8.99151467272598e+000,-8.61173301199727e-002

4.53153554118317e+004,-8.99151819374594e+000,-8.73188144384522e-002

4.59479341998812e+004,-8.99152181359020e+000,-8.85370424816301e-002

4.65893434587380e+004,-8.99152553502736e+000,-8.97722467827632e-002

4.72397064571810e+004,-8.99152936090359e+000,-9.10246630684754e-002

4.78991481847569e+004,-8.99153329414492e+000,-9.22945303003470e-002

4.85677953758016e+004,-8.99153733775852e+000,-9.35820907237610e-002

4.92457765337964e+004,-8.99154149483537e+000,-9.48875899091427e-002

4.99332219560642e+004,-8.99154576855314e+000,-9.62112767912412e-002

5.06302637588109e+004,-8.99155016217812e+000,-9.75534037179704e-002

5.13370359025159e+004,-8.99155467906735e+000,-9.89142264958919e-002

5.20536742176771e+004,-8.99155932267142e+000,-1.00294004435947e-001

5.27803164309155e+004,-8.99156409653762e+000,-1.01693000393812e-001

5.35171021914442e+004,-8.99156900431145e+000,-1.03111480825054e-001

5.42641730979066e+004,-8.99157404974046e+000,-1.04549715824450e-001

5.50216727255895e+004,-8.99157923667634e+000,-1.06007979179245e-001

5.57897466540159e+004,-8.99158456907824e+000,-1.07486548412378e-001

5.65685424949235e+004,-8.99159005101500e+000,-1.08985704838059e-001

5.73582099206328e+004,-8.99159568666901e+000,-1.10505733604502e-001

5.81589006928121e+004,-8.99160148033958e+000,-1.12046923742170e-001

5.89707686916437e+004,-8.99160743644454e+000,-1.13609568223893e-001

5.97939699453972e+004,-8.99161355952539e+000,-1.15193964004995e-001

6.06286626604156e+004,-8.99161985424929e+000,-1.16800412082069e-001

6.14750072515201e+004,-8.99162632541335e+000,-1.18429217540758e-001

6.23331663728396e+004,-8.99163297794818e+000,-1.20080689606949e-001

6.32033049490698e+004,-8.99163981692071e+000,-1.21755141706395e-001

6.40855902071694e+004,-8.99164684753914e+000,-1.23452891509578e-001

6.49801917084985e+004,-8.99165407515573e+000,-1.25174260992864e-001

6.58872813814055e+004,-8.99166150527122e+000,-1.26919576489934e-001

6.68070335542691e+004,-8.99166914353925e+000,-1.28689168744906e-001

6.77396249890018e+004,-8.99167699576965e+000,-1.30483372972996e-001

6.86852349150199e+004,-8.99168506793371e+000,-1.32302528910672e-001

6.96440450636895e+004,-8.99169336616757e+000,-1.34146980878256e-001

7.06162397032520e+004,-8.99170189677761e+000,-1.36017077832561e-001

7.16020056742374e+004,-8.99171066624479e+000,-1.37913173424902e-001

7.26015324253724e+004,-8.99171968122861e+000,-1.39835626065001e-001

7.36150120499896e+004,-8.99172894857365e+000,-1.41784798969517e-001

7.46426393229441e+004,-8.99173847531282e+000,-1.43761060231576e-001

7.56846117380472e+004,-8.99174826867351e+000,-1.45764782874517e-001

7.67411295460207e+004,-8.99175833608296e+000,-1.47796344910790e-001

7.78123957929823e+004,-8.99176868517242e+000,-1.49856129411438e-001

7.88986163594682e+004,-8.99177932378484e+000,-1.51944524552537e-001

7.99999999999995e+004,-8.99179025997785e+000,-1.54061923694771e-001

8.11167583832018e+004,-8.99180150203233e+000,-1.56208725427806e-001

8.22491061324848e+004,-8.99181305845642e+000,-1.58385333644764e-001

8.33972608672892e+004,-8.99182493799217e+000,-1.60592157603081e-001

8.45614432449099e+004,-8.99183714962236e+000,-1.62829611983070e-001

8.57418770029029e+004,-8.99184970257634e+000,-1.65098116956950e-001

8.69387890020841e+004,-8.99186260633708e+000,-1.67398098249124e-001

8.81524092701283e+004,-8.99187587064779e+000,-1.69729987202283e-001

8.93829710457770e+004,-8.99188950551835e+000,-1.72094220845805e-001

9.06307108236633e+004,-8.99190352123344e+000,-1.74491241954222e-001

9.18958683997622e+004,-8.99191792835915e+000,-1.76921499117450e-001

9.31786869174758e+004,-8.99193273775036e+000,-1.79385446807314e-001

9.44794129143618e+004,-8.99194796055936e+000,-1.81883545438471e-001

9.57982963695136e+004,-8.99196360824259e+000,-1.84416261440484e-001

9.71355907516031e+004,-8.99197969256891e+000,-1.86984067325246e-001

9.84915530675926e+004,-8.99199622562899e+000,-1.89587441744785e-001

9.98664439121282e+004,-8.99201321984214e+000,-1.92226869570485e-001

1.01260527517622e+005,-8.99203068796601e+000,-1.94902841952799e-001

1.02674071805032e+005,-8.99204864310523e+000,-1.97615856390932e-001

1.04107348435354e+005,-8.99206709872055e+000,-2.00366416799477e-001

1.05560632861831e+005,-8.99208606863802e+000,-2.03155033577823e-001

1.07034204382888e+005,-8.99210556705869e+000,-2.05982223676261e-001

1.08528346195813e+005,-8.99212560856813e+000,-2.08848510665608e-001

1.10043345451179e+005,-8.99214620814667e+000,-2.11754424803489e-001

1.11579493308032e+005,-8.99216738117964e+000,-2.14700503101939e-001

1.13137084989847e+005,-8.99218914346765e+000,-2.17687289395761e-001

1.14716419841265e+005,-8.99221151123750e+000,-2.20715334410025e-001

1.16317801385624e+005,-8.99223450115296e+000,-2.23785195827621e-001

1.17941537383287e+005,-8.99225813032617e+000,-2.26897438355286e-001

1.19587939890794e+005,-8.99228241632897e+000,-2.30052633791454e-001

1.21257325320831e+005,-8.99230737720469e+000,-2.33251361093018e-001

1.22950014503040e+005,-8.99233303148029e+000,-2.36494206439475e-001

1.24666332745679e+005,-8.99235939817823e+000,-2.39781763302570e-001

1.26406609898139e+005,-8.99238649682932e+000,-2.43114632507834e-001

1.28171180414339e+005,-8.99241434748573e+000,-2.46493422299779e-001

1.29960383416997e+005,-8.99244297073339e+000,-2.49918748409373e-001

1.31774562762811e+005,-8.99247238770618e+000,-2.53391234112403e-001

1.33614067108538e+005,-8.99250262009895e+000,-2.56911510296735e-001

1.35479249978003e+005,-8.99253369018174e+000,-2.60480215522161e-001

1.37370469830040e+005,-8.99256562081404e+000,-2.64097996081044e-001

1.39288090127379e+005,-8.99259843545920e+000,-2.67765506059620e-001

1.41232479406504e+005,-8.99263215819921e+000,-2.71483407397324e-001

1.43204011348474e+005,-8.99266681375022e+000,-2.75252369942066e-001

1.45203064850745e+005,-8.99270242747763e+000,-2.79073071509312e-001

1.47230024099979e+005,-8.99273902541142e+000,-2.82946197939503e-001

1.49285278645888e+005,-8.99277663426302e+000,-2.86872443147822e-001

1.51369223476094e+005,-8.99281528144136e+000,-2.90852509177714e-001

1.53482259092041e+005,-8.99285499506904e+000,-2.94887106255777e-001

1.55624791585964e+005,-8.99289580399992e+000,-2.98976952836230e-001

1.57797232718936e+005,-8.99293773783592e+000,-3.03122775651644e-001

1.59999999999999e+005,-8.99298082694511e+000,-3.07325309755823e-001

1.62233516766403e+005,-8.99302510247873e+000,-3.11585298571941e-001

1.64498212264969e+005,-8.99307059639030e+000,-3.15903493928987e-001

1.66794521734578e+005,-8.99311734145344e+000,-3.20280656104211e-001

1.69122886489819e+005,-8.99316537128117e+000,-3.24717553857706e-001

1.71483754005805e+005,-8.99321472034434e+000,-3.29214964470122e-001

1.73877578004168e+005,-8.99326542399155e+000,-3.33773673771108e-001

1.76304818540256e+005,-8.99331751846884e+000,-3.38394476167936e-001

1.78765942091554e+005,-8.99337104093895e+000,-3.43078174675983e-001

1.81261421647326e+005,-8.99342602950255e+000,-3.47825580934846e-001

1.83791736799524e+005,-8.99348252321755e+000,-3.52637515235496e-001

1.86357373834951e+005,-8.99354056212122e+000,-3.57514806528065e-001

1.88958825828723e+005,-8.99360018725000e+000,-3.62458292442353e-001

1.91596592739027e+005,-8.99366144066157e+000,-3.67468819290561e-001

1.94271181503206e+005,-8.99372436545569e+000,-3.72547242077670e-001

1.96983106135185e+005,-8.99378900579664e+000,-3.77694424496940e-001

1.99732887824256e+005,-8.99385540693444e+000,-3.82911238931289e-001

2.02521055035243e+005,-8.99392361522775e+000,-3.88198566441008e-001

2.05348143610063e+005,-8.99399367816529e+000,-3.93557296756212e-001

2.08214696870707e+005,-8.99406564438926e+000,-3.98988328254023e-001

2.11121265723661e+005,-8.99413956371708e+000,-4.04492567942085e-001

2.14068408765776e+005,-8.99421548716493e+000,-4.10070931425180e-001

2.17056692391625e+005,-8.99429346696991e+000,-4.15724342877560e-001

2.20086690902357e+005,-8.99437355661342e+000,-4.21453735000752e-001

2.23158986616063e+005,-8.99445581084433e+000,-4.27260048978720e-001

2.26274169979693e+005,-8.99454028570135e+000,-4.33144234430360e-001

2.29432839682530e+005,-8.99462703853674e+000,-4.39107249349573e-001

2.32635602771247e+005,-8.99471612803879e+000,-4.45150060043869e-001

2.35883074766574e+005,-8.99480761425525e+000,-4.51273641061923e-001

2.39175879781588e+005,-8.99490155861567e+000,-4.57478975119238e-001

2.42514650641661e+005,-8.99499802395470e+000,-4.63767053010656e-001

2.45900029006080e+005,-8.99509707453395e+000,-4.70138873521429e-001

2.49332665491357e+005,-8.99519877606492e+000,-4.76595443325500e-001

2.52813219796278e+005,-8.99530319573081e+000,-4.83137776878489e-001

2.56342360828676e+005,-8.99541040220799e+000,-4.89766896304437e-001

2.59920766833993e+005,-8.99552046568812e+000,-4.96483831267263e-001

2.63549125525621e+005,-8.99563345789832e+000,-5.03289618843349e-001

2.67228134217075e+005,-8.99574945212228e+000,-5.10185303376132e-001

2.70958499956006e+005,-8.99586852321977e+000,-5.17171936328969e-001

2.74740939660078e+005,-8.99599074764646e+000,-5.24250576122290e-001

2.78576180254757e+005,-8.99611620347217e+000,-5.31422287968253e-001

2.82464958813007e+005,-8.99624497039940e+000,-5.38688143687471e-001

2.86408022696948e+005,-8.99637712978002e+000,-5.46049221523804e-001

2.90406129701488e+005,-8.99651276463161e+000,-5.53506605945512e-001

2.94460048199957e+005,-8.99665195965325e+000,-5.61061387433089e-001

2.98570557291775e+005,-8.99679480123911e+000,-5.68714662263541e-001

3.02738446952187e+005,-8.99694137749225e+000,-5.76467532276595e-001

3.06964518184081e+005,-8.99709177823588e+000,-5.84321104638266e-001

3.11249583171928e+005,-8.99724609502439e+000,-5.92276491584746e-001

3.15594465437872e+005,-8.99740442115233e+000,-6.00334810161612e-001

3.19999999999997e+005,-8.99756685166160e+000,-6.08497181952111e-001

3.24467033532806e+005,-8.99773348334810e+000,-6.16764732787460e-001

3.28996424529938e+005,-8.99790441476513e+000,-6.25138592454829e-001

3.33589043469155e+005,-8.99807974622618e+000,-6.33619894387070e-001

3.38245772979638e+005,-8.99825957980475e+000,-6.42209775345718e-001

3.42967508011610e+005,-8.99844401933262e+000,-6.50909375090575e-001

3.47755156008335e+005,-8.99863317039567e+000,-6.59719836037393e-001

3.52609637080511e+005,-8.99882714032708e+000,-6.68642302906722e-001

3.57531884183106e+005,-8.99902603819809e+000,-6.77677922361356e-001

3.62522843294651e+005,-8.99922997480626e+000,-6.86827842630415e-001

3.67583473599047e+005,-8.99943906266054e+000,-6.96093213125485e-001

3.72714747669902e+005,-8.99965341596331e+000,-7.05475184046797e-001

3.77917651657445e+005,-8.99987315058957e+000,-7.14974905976289e-001

3.83193185478053e+005,-9.00009838406241e+000,-7.24593529464347e-001

3.88542363006410e+005,-9.00032923552503e+000,-7.34332204604605e-001

3.93966212270369e+005,-9.00056582570910e+000,-7.44192080603507e-001

3.99465775648511e+005,-9.00080827689950e+000,-7.54174305335697e-001

4.05042110070485e+005,-9.00105671289429e+000,-7.64280024898672e-001

4.10696287220124e+005,-9.00131125896120e+000,-7.74510383154993e-001

4.16429393741414e+005,-9.00157204178930e+000,-7.84866521270435e-001

4.22242531447321e+005,-9.00183918943610e+000,-7.95349577246299e-001

4.28136817531551e+005,-9.00211283126946e+000,-8.05960685449696e-001

4.34113384783250e+005,-9.00239309790554e+000,-8.16700976132607e-001

4.40173381804713e+005,-9.00268012114048e+000,-8.27571574957495e-001

4.46317973232124e+005,-9.00297403387680e+000,-8.38573602516834e-001

4.52548339959385e+005,-9.00327497004502e+000,-8.49708173851547e-001

4.58865679365059e+005,-9.00358306451870e+000,-8.60976397972466e-001

4.65271205542494e+005,-9.00389845302368e+000,-8.72379377384327e-001

4.71766149533147e+005,-9.00422127204151e+000,-8.83918207612289e-001

4.78351759563174e+005,-9.00455165870587e+000,-8.95593976737453e-001

4.85029301283321e+005,-9.00488975069332e+000,-9.07407764934078e-001

4.91800058012158e+005,-9.00523568610667e+000,-9.19360644022406e-001

4.98665330982714e+005,-9.00558960335173e+000,-9.31453677028966e-001

5.05626439592555e+005,-9.00595164100710e+000,-9.43687917761124e-001

5.12684721657352e+005,-9.00632193768672e+000,-9.56064410397706e-001

5.19841533667984e+005,-9.00670063189502e+000,-9.68584189097342e-001

5.27098251051240e+005,-9.00708786187486e+000,-9.81248277626285e-001

5.34456268434150e+005,-9.00748376544792e+000,-9.94057689009590e-001

5.41916999912011e+005,-9.00788847984692e+000,-1.00701342520954e+000

