Freq.,VOut,OutRef

1.00000000000000e+004,-1.57060301406514e+001,-9.49338166821388e-002

1.01395947979003e+004,-1.57060302203782e+001,-9.62590417680161e-002

1.02811382665607e+004,-1.57060303023462e+001,-9.76027662397563e-002

1.04246576084112e+004,-1.57060303866186e+001,-9.89652483338604e-002

1.05701804056138e+004,-1.57060304732601e+001,-1.00346749895536e-001

1.07177346253629e+004,-1.57060305623372e+001,-1.01747536423526e-001

1.08673486252606e+004,-1.57060306539186e+001,-1.03167877121854e-001

1.10190511587661e+004,-1.57060307480747e+001,-1.04608044952740e-001

1.11728713807222e+004,-1.57060308448778e+001,-1.06068316689120e-001

1.13288388529580e+004,-1.57060309444021e+001,-1.07548972969230e-001

1.14869835499703e+004,-1.57060310467243e+001,-1.09050298345273e-001

1.16473358646846e+004,-1.57060311519232e+001,-1.10572581342081e-001

1.18099266142953e+004,-1.57060312600794e+001,-1.12116114515239e-001

1.19747870461893e+004,-1.57060313712761e+001,-1.13681194500163e-001

1.21419488439505e+004,-1.57060314855989e+001,-1.15268122074674e-001

1.23114441334492e+004,-1.57060316031355e+001,-1.16877202216305e-001

1.24833054890161e+004,-1.57060317239764e+001,-1.18508744156538e-001

1.26575659397028e+004,-1.57060318482143e+001,-1.20163061446494e-001

1.28342589756290e+004,-1.57060319759448e+001,-1.21840472012593e-001

1.30134185544193e+004,-1.57060321072662e+001,-1.23541298218650e-001

1.31950791077289e+004,-1.57060322422793e+001,-1.25265866929246e-001

1.33792755478611e+004,-1.57060323810878e+001,-1.27014509571875e-001

1.35660432744767e+004,-1.57060325237988e+001,-1.28787562197556e-001

1.37554181813974e+004,-1.57060326705213e+001,-1.30585365554601e-001

1.39474366635040e+004,-1.57060328213687e+001,-1.32408265138547e-001

1.41421356237309e+004,-1.57060329764566e+001,-1.34256611275913e-001

1.43395524801583e+004,-1.57060331359044e+001,-1.36130759177702e-001

1.45397251732031e+004,-1.57060332998345e+001,-1.38031069016514e-001

1.47426921729110e+004,-1.57060334683729e+001,-1.39957905990729e-001

1.49484924863494e+004,-1.57060336416493e+001,-1.41911640396892e-001

1.51571656651040e+004,-1.57060338197968e+001,-1.43892647699747e-001

1.53687518128801e+004,-1.57060340029522e+001,-1.45901308606335e-001

1.55832915932100e+004,-1.57060341912564e+001,-1.47938009136138e-001

1.58008262372675e+004,-1.57060343848542e+001,-1.50003140697520e-001

1.60213975517924e+004,-1.57060345838943e+001,-1.52097100163072e-001

1.62450479271247e+004,-1.57060347885294e+001,-1.54220289945059e-001

1.64718203453514e+004,-1.57060349989173e+001,-1.56373118069758e-001

1.67017583885674e+004,-1.57060352152194e+001,-1.58555998262305e-001

1.69349062472505e+004,-1.57060354376019e+001,-1.60769350022968e-001

1.71713087287550e+004,-1.57060356662360e+001,-1.63013598702664e-001

1.74110112659224e+004,-1.57060359012969e+001,-1.65289175596314e-001

1.76540599258131e+004,-1.57060361429658e+001,-1.67596518013098e-001

1.79005014185594e+004,-1.57060363914280e+001,-1.69936069370069e-001

1.81503831063432e+004,-1.57060366468748e+001,-1.72308279270090e-001

1.84037530124975e+004,-1.57060369095024e+001,-1.74713603594724e-001

1.86606598307361e+004,-1.57060371795125e+001,-1.77152504587512e-001

1.89211529345119e+004,-1.57060374571126e+001,-1.79625450944694e-001

1.91852823865052e+004,-1.57060377425162e+001,-1.82132917901575e-001

1.94530989482457e+004,-1.57060380359425e+001,-1.84675387330924e-001

1.97246540898671e+004,-1.57060383376172e+001,-1.87253347827637e-001

1.99999999999999e+004,-1.57060386477717e+001,-1.89867294811166e-001

2.02791895958005e+004,-1.57060389666449e+001,-1.92517730608632e-001

2.05622765331213e+004,-1.57060392944813e+001,-1.95205164566140e-001

2.08493152168224e+004,-1.57060396315333e+001,-1.97930113133033e-001

2.11403608112276e+004,-1.57060399780595e+001,-2.00693099971744e-001

2.14354692507258e+004,-1.57060403343264e+001,-2.03494656049627e-001

2.17346972505211e+004,-1.57060407006077e+001,-2.06335319748515e-001

2.20381023175322e+004,-1.57060410771848e+001,-2.09215636962969e-001

2.23457427614443e+004,-1.57060414643472e+001,-2.12136161205006e-001

2.26576777059159e+004,-1.57060418623924e+001,-2.15097453715882e-001

2.29739670999406e+004,-1.57060422716259e+001,-2.18100083568453e-001

2.32946717293690e+004,-1.57060426923626e+001,-2.21144627776792e-001

2.36198532285905e+004,-1.57060431249255e+001,-2.24231671410861e-001

2.39495740923785e+004,-1.57060435696469e+001,-2.27361807705745e-001

2.42838976879009e+004,-1.57060440268688e+001,-2.30535638174757e-001

2.46228882668982e+004,-1.57060444969421e+001,-2.33753772728553e-001

2.49666109780322e+004,-1.57060449802282e+001,-2.37016829789116e-001

2.53151318794055e+004,-1.57060454770984e+001,-2.40325436408913e-001

2.56685179512580e+004,-1.57060459879344e+001,-2.43680228394176e-001

2.60268371088386e+004,-1.57060465131285e+001,-2.47081850422790e-001

2.63901582154578e+004,-1.57060470530844e+001,-2.50530956170751e-001

2.67585510957221e+004,-1.57060476082167e+001,-2.54028208437510e-001

2.71320865489533e+004,-1.57060481789521e+001,-2.57574279271804e-001

2.75108363627948e+004,-1.57060487657288e+001,-2.61169850102777e-001

2.78948733270080e+004,-1.57060493689977e+001,-2.64815611868442e-001

2.82842712474618e+004,-1.57060499892222e+001,-2.68512265150762e-001

2.86791049603164e+004,-1.57060506268786e+001,-2.72260520308401e-001

2.90794503464061e+004,-1.57060512824569e+001,-2.76061097613150e-001

2.94853843458219e+004,-1.57060519564604e+001,-2.79914727391227e-001

2.98969849726987e+004,-1.57060526494070e+001,-2.83822150157380e-001

3.03143313302078e+004,-1.57060533618288e+001,-2.87784116763802e-001

3.07375036257601e+004,-1.57060540942731e+001,-2.91801388538903e-001

3.11665831864199e+004,-1.57060548473023e+001,-2.95874737437686e-001

3.16016524745350e+004,-1.57060556214949e+001,-3.00004946185961e-001

3.20427951035848e+004,-1.57060564174453e+001,-3.04192808434182e-001

3.24900958542493e+004,-1.57060572357649e+001,-3.08439128907222e-001

3.29436406907028e+004,-1.57060580770820e+001,-3.12744723560290e-001

3.34035167771346e+004,-1.57060589420428e+001,-3.17110419734771e-001

3.38698124945009e+004,-1.57060598313112e+001,-3.21537056318415e-001

3.43426174575100e+004,-1.57060607455705e+001,-3.26025483901927e-001

3.48220225318448e+004,-1.57060616855224e+001,-3.30576564949283e-001

3.53081198516260e+004,-1.57060626518886e+001,-3.35191173957892e-001

3.58010028371187e+004,-1.57060636454113e+001,-3.39870197626721e-001

3.63007662126863e+004,-1.57060646668530e+001,-3.44614535030075e-001

3.68075060249948e+004,-1.57060657169982e+001,-3.49425097784939e-001

3.73213196614721e+004,-1.57060667966528e+001,-3.54302810230804e-001

3.78423058690237e+004,-1.57060679066458e+001,-3.59248609603988e-001

3.83705647730104e+004,-1.57060690478293e+001,-3.64263446217950e-001

3.89061978964912e+004,-1.57060702210792e+001,-3.69348283646888e-001

3.94493081797342e+004,-1.57060714272961e+001,-3.74504098908268e-001

3.99999999999998e+004,-1.57060726674058e+001,-3.79731882653469e-001

4.05583791916010e+004,-1.57060739423602e+001,-3.85032639353058e-001

4.11245530662425e+004,-1.57060752531377e+001,-3.90407387495269e-001

4.16986304336447e+004,-1.57060766007443e+001,-3.95857159776795e-001

4.22807216224550e+004,-1.57060779862141e+001,-4.01383003302780e-001

4.28709385014515e+004,-1.57060794106103e+001,-4.06985979786985e-001

4.34693945010421e+004,-1.57060808750259e+001,-4.12667165755733e-001

4.40762046350642e+004,-1.57060823805844e+001,-4.18427652755048e-001

4.46914855228886e+004,-1.57060839284412e+001,-4.24268547556654e-001

4.53153554118317e+004,-1.57060855197836e+001,-4.30190972375841e-001

4.59479341998812e+004,-1.57060871558324e+001,-4.36196065081234e-001

4.65893434587380e+004,-1.57060888378427e+001,-4.42284979415669e-001

4.72397064571810e+004,-1.57060905671048e+001,-4.48458885216488e-001

4.78991481847569e+004,-1.57060923449449e+001,-4.54718968640504e-001

4.85677953758016e+004,-1.57060941727267e+001,-4.61066432389802e-001

4.92457765337964e+004,-1.57060960518518e+001,-4.67502495944637e-001

4.99332219560642e+004,-1.57060979837613e+001,-4.74028395794658e-001

5.06302637588109e+004,-1.57060999699367e+001,-4.80645385677128e-001

5.13370359025159e+004,-1.57061020119008e+001,-4.87354736816260e-001

5.20536742176771e+004,-1.57061041112192e+001,-4.94157738168792e-001

5.27803164309155e+004,-1.57061062695014e+001,-5.01055696667279e-001

5.35171021914442e+004,-1.57061084884018e+001,-5.08049937474490e-001

5.42641730979066e+004,-1.57061107696213e+001,-5.15141804234282e-001

5.50216727255895e+004,-1.57061131149083e+001,-5.22332659330071e-001

5.57897466540159e+004,-1.57061155260603e+001,-5.29623884145051e-001

5.65685424949235e+004,-1.57061180049249e+001,-5.37016879328738e-001

5.73582099206328e+004,-1.57061205534017e+001,-5.44513065060888e-001

5.81589006928121e+004,-1.57061231734432e+001,-5.52113881328152e-001

5.89707686916437e+004,-1.57061258670567e+001,-5.59820788196896e-001

5.97939699453972e+004,-1.57061286363056e+001,-5.67635266092349e-001

6.06286626604156e+004,-1.57061314833111e+001,-5.75558816083412e-001

6.14750072515201e+004,-1.57061344102536e+001,-5.83592960169316e-001

6.23331663728396e+004,-1.57061374193746e+001,-5.91739241571128e-001

6.32033049490698e+004,-1.57061405129783e+001,-5.99999225024679e-001

6.40855902071694e+004,-1.57061436934332e+001,-6.08374497083201e-001

6.49801917084985e+004,-1.57061469631741e+001,-6.16866666418958e-001

6.58872813814055e+004,-1.57061503247038e+001,-6.25477364130740e-001

6.68070335542691e+004,-1.57061537805952e+001,-6.34208244054806e-001

6.77396249890018e+004,-1.57061573334929e+001,-6.43060983084915e-001

6.86852349150199e+004,-1.57061609861156e+001,-6.52037281487323e-001

6.96440450636895e+004,-1.57061647412577e+001,-6.61138863229836e-001

7.06162397032520e+004,-1.57061686017919e+001,-6.70367476309015e-001

7.16020056742374e+004,-1.57061725706709e+001,-6.79724893086211e-001

7.26015324253724e+004,-1.57061766509297e+001,-6.89212910623580e-001

7.36150120499896e+004,-1.57061808456886e+001,-6.98833351028510e-001

7.46426393229441e+004,-1.57061851581543e+001,-7.08588061801621e-001

7.56846117380472e+004,-1.57061895916234e+001,-7.18478916189639e-001

7.67411295460207e+004,-1.57061941494844e+001,-7.28507813541318e-001

7.78123957929823e+004,-1.57061988352200e+001,-7.38676679673199e-001

7.88986163594682e+004,-1.57062036524105e+001,-7.48987467233099e-001

7.99999999999995e+004,-1.57062086047355e+001,-7.59442156074982e-001

8.11167583832018e+004,-1.57062136959776e+001,-7.70042753636201e-001

8.22491061324848e+004,-1.57062189300245e+001,-7.80791295320139e-001

8.33972608672892e+004,-1.57062243108723e+001,-7.91689844883933e-001

8.45614432449099e+004,-1.57062298426282e+001,-8.02740494832163e-001

8.57418770029029e+004,-1.57062355295141e+001,-8.13945366815532e-001

8.69387890020841e+004,-1.57062413758692e+001,-8.25306612034233e-001

8.81524092701283e+004,-1.57062473861534e+001,-8.36826411649505e-001

8.93829710457770e+004,-1.57062535649508e+001,-8.48506977196590e-001

9.06307108236633e+004,-1.57062599169728e+001,-8.60350551007982e-001

9.18958683997622e+004,-1.57062664470619e+001,-8.72359406639259e-001

9.31786869174758e+004,-1.57062731601953e+001,-8.84535849299609e-001

9.44794129143618e+004,-1.57062800614882e+001,-8.96882216294772e-001

9.57982963695136e+004,-1.57062871561982e+001,-9.09400877466817e-001

9.71355907516031e+004,-1.57062944497286e+001,-9.22094235648579e-001

9.84915530675926e+004,-1.57063019476327e+001,-9.34964727117366e-001

9.98664439121282e+004,-1.57063096556180e+001,-9.48014822058937e-001

1.01260527517622e+005,-1.57063175795503e+001,-9.61247025037290e-001

1.02674071805032e+005,-1.57063257254579e+001,-9.74663875469066e-001

1.04107348435354e+005,-1.57063340995363e+001,-9.88267948106284e-001

1.05560632861831e+005,-1.57063427081525e+001,-1.00206185352520e+000

1.07034204382888e+005,-1.57063515578499e+001,-1.01604823861999e+000

1.08528346195813e+005,-1.57063606553530e+001,-1.03022978710596e+000

1.10043345451179e+005,-1.57063700075723e+001,-1.04460922002832e+000

1.11579493308032e+005,-1.57063796216095e+001,-1.05918929627717e+000

1.13137084989847e+005,-1.57063895047624e+001,-1.07397281310927e+000

1.14716419841265e+005,-1.57063996645307e+001,-1.08896260667990e+000

1.16317801385624e+005,-1.57064101086210e+001,-1.10416155257766e+000

1.17941537383287e+005,-1.57064208449529e+001,-1.11957256636829e+000

1.19587939890794e+005,-1.57064318816641e+001,-1.13519860414812e+000

1.21257325320831e+005,-1.57064432271170e+001,-1.15104266310046e+000

1.22950014503040e+005,-1.57064548899041e+001,-1.16710778206354e+000

1.24666332745679e+005,-1.57064668788550e+001,-1.18339704210310e+000

1.26406609898139e+005,-1.57064792030421e+001,-1.19991356709471e+000

1.28171180414339e+005,-1.57064918717874e+001,-1.21666052431380e+000

1.29960383416997e+005,-1.57065048946692e+001,-1.23364112503103e+000

1.31774562762811e+005,-1.57065182815292e+001,-1.25085862511915e+000

1.33614067108538e+005,-1.57065320424789e+001,-1.26831632566693e+000

1.35479249978003e+005,-1.57065461879078e+001,-1.28601757359795e+000

1.37370469830040e+005,-1.57065607284899e+001,-1.30396576230406e+000

1.39288090127379e+005,-1.57065756751920e+001,-1.32216433228051e+000

1.41232479406504e+005,-1.57065910392811e+001,-1.34061677177477e+000

1.43204011348474e+005,-1.57066068323325e+001,-1.35932661744088e+000

1.45203064850745e+005,-1.57066230662381e+001,-1.37829745500460e+000

1.47230024099979e+005,-1.57066397532146e+001,-1.39753291993469e+000

1.49285278645888e+005,-1.57066569058125e+001,-1.41703669812615e+000

1.51369223476094e+005,-1.57066745369244e+001,-1.43681252659021e+000

1.53482259092041e+005,-1.57066926597944e+001,-1.45686419415496e+000

1.55624791585964e+005,-1.57067112880273e+001,-1.47719554217390e+000

1.57797232718936e+005,-1.57067304355982e+001,-1.49781046524498e+000

1.59999999999999e+005,-1.57067501168620e+001,-1.51871291193853e+000

1.62233516766403e+005,-1.57067703465633e+001,-1.53990688553500e+000

1.64498212264969e+005,-1.57067911398472e+001,-1.56139644477158e+000

1.66794521734578e+005,-1.57068125122690e+001,-1.58318570460047e+000

1.69122886489819e+005,-1.57068344798053e+001,-1.60527883695503e+000

1.71483754005805e+005,-1.57068570588650e+001,-1.62768007152708e+000

1.73877578004168e+005,-1.57068802663004e+001,-1.65039369655380e+000

1.76304818540256e+005,-1.57069041194186e+001,-1.67342405961656e+000

1.78765942091554e+005,-1.57069286359934e+001,-1.69677556844679e+000

1.81261421647326e+005,-1.57069538342775e+001,-1.72045269174576e+000

1.83791736799524e+005,-1.57069797330144e+001,-1.74445996001295e+000

1.86357373834951e+005,-1.57070063514511e+001,-1.76880196638656e+000

1.88958825828723e+005,-1.57070337093514e+001,-1.79348336749308e+000

1.91596592739027e+005,-1.57070618270086e+001,-1.81850888430976e+000

1.94271181503206e+005,-1.57070907252591e+001,-1.84388330303707e+000

1.96983106135185e+005,-1.57071204254964e+001,-1.86961147598238e+000

1.99732887824256e+005,-1.57071509496849e+001,-1.89569832245653e+000

2.02521055035243e+005,-1.57071823203745e+001,-1.92214882967873e+000

2.05348143610063e+005,-1.57072145607152e+001,-1.94896805369747e+000

2.08214696870707e+005,-1.57072476944725e+001,-1.97616112031836e+000

2.11121265723661e+005,-1.57072817460421e+001,-2.00373322604860e+000

2.14068408765776e+005,-1.57073167404664e+001,-2.03168963904953e+000

2.17056692391625e+005,-1.57073527034499e+001,-2.06003570010363e+000

2.20086690902357e+005,-1.57073896613759e+001,-2.08877682359358e+000

2.23158986616063e+005,-1.57074276413234e+001,-2.11791849849275e+000

2.26274169979693e+005,-1.57074666710838e+001,-2.14746628936941e+000

2.29432839682530e+005,-1.57075067791786e+001,-2.17742583740322e+000

2.32635602771247e+005,-1.57075479948769e+001,-2.20780286141405e+000

2.35883074766574e+005,-1.57075903482142e+001,-2.23860315890407e+000

2.39175879781588e+005,-1.57076338700102e+001,-2.26983260711513e+000

2.42514650641661e+005,-1.57076785918880e+001,-2.30149716409467e+000

2.45900029006080e+005,-1.57077245462936e+001,-2.33360286978069e+000

2.49332665491357e+005,-1.57077717665151e+001,-2.36615584709548e+000

2.52813219796278e+005,-1.57078202867028e+001,-2.39916230305691e+000

2.56342360828676e+005,-1.57078701418901e+001,-2.43262852990089e+000

2.59920766833993e+005,-1.57079213680135e+001,-2.46656090621909e+000

2.63549125525621e+005,-1.57079740019345e+001,-2.50096589811141e+000

2.67228134217075e+005,-1.57080280814605e+001,-2.53585006035170e+000

2.70958499956006e+005,-1.57080836453671e+001,-2.57122003756878e+000

2.74740939660078e+005,-1.57081407334207e+001,-2.60708256544199e+000

2.78576180254757e+005,-1.57081993864004e+001,-2.64344447191206e+000

2.82464958813007e+005,-1.57082596461218e+001,-2.68031267840613e+000

2.86408022696948e+005,-1.57083215554604e+001,-2.71769420107889e+000

2.90406129701488e+005,-1.57083851583753e+001,-2.75559615206928e+000

2.94460048199957e+005,-1.57084504999335e+001,-2.79402574077188e+000

2.98570557291775e+005,-1.57085176263346e+001,-2.83299027512554e+000

3.02738446952187e+005,-1.57085865849359e+001,-2.87249716291659e+000

3.06964518184081e+005,-1.57086574242780e+001,-2.91255391309906e+000

3.11249583171928e+005,-1.57087301941102e+001,-2.95316813713243e+000

3.15594465437872e+005,-1.57088049454172e+001,-2.99434755033325e+000

3.19999999999997e+005,-1.57088817304453e+001,-3.03609997324640e+000

3.24467033532806e+005,-1.57089606027296e+001,-3.07843333303261e+000

3.28996424529938e+005,-1.57090416171214e+001,-3.12135566487248e+000

3.33589043469155e+005,-1.57091248298157e+001,-3.16487511338928e+000

3.38245772979638e+005,-1.57092102983793e+001,-3.20899993408900e+000

3.42967508011610e+005,-1.57092980817797e+001,-3.25373849481830e+000

3.47755156008335e+005,-1.57093882404132e+001,-3.29909927724198e+000

3.52609637080511e+005,-1.57094808361345e+001,-3.34509087833776e+000

3.57531884183106e+005,-1.57095759322864e+001,-3.39172201190999e+000

3.62522843294651e+005,-1.57096735937290e+001,-3.43900151012462e+000

3.67583473599047e+005,-1.57097738868704e+001,-3.48693832506049e+000

3.72714747669902e+005,-1.57098768796971e+001,-3.53554153028365e+000

3.77917651657445e+005,-1.57099826418047e+001,-3.58482032243981e+000

3.83193185478053e+005,-1.57100912444294e+001,-3.63478402286719e+000

3.88542363006410e+005,-1.57102027604789e+001,-3.68544207923248e+000

3.93966212270369e+005,-1.57103172645646e+001,-3.73680406718519e+000

3.99465775648511e+005,-1.57104348330335e+001,-3.78887969203588e+000

4.05042110070485e+005,-1.57105555440008e+001,-3.84167879045450e+000

4.10696287220124e+005,-1.57106794773818e+001,-3.89521133219331e+000

4.16429393741414e+005,-1.57108067149257e+001,-3.94948742182996e+000

4.22242531447321e+005,-1.57109373402484e+001,-4.00451730053676e+000

4.28136817531551e+005,-1.57110714388656e+001,-4.06031134787144e+000

4.34113384783250e+005,-1.57112090982270e+001,-4.11688008359315e+000

4.40173381804713e+005,-1.57113504077501e+001,-4.17423416950354e+000

4.46317973232124e+005,-1.57114954588542e+001,-4.23238441131118e+000

4.52548339959385e+005,-1.57116443449952e+001,-4.29134176052452e+000

4.58865679365059e+005,-1.57117971616999e+001,-4.35111731636942e+000

4.65271205542494e+005,-1.57119540066013e+001,-4.41172232773326e+000

4.71766149533147e+005,-1.57121149794736e+001,-4.47316819513791e+000

4.78351759563174e+005,-1.57122801822678e+001,-4.53546647274012e+000

4.85029301283321e+005,-1.57124497191471e+001,-4.59862887036017e+000

4.91800058012158e+005,-1.57126236965234e+001,-4.66266725554087e+000

4.98665330982714e+005,-1.57128022230928e+001,-4.72759365563630e+000

5.05626439592555e+005,-1.57129854098728e+001,-4.79342025993124e+000

5.12684721657352e+005,-1.57131733702390e+001,-4.86015942179213e+000

5.19841533667984e+005,-1.57133662199617e+001,-4.92782366085096e+000

5.27098251051240e+005,-1.57135640772444e+001,-4.99642566522109e+000

5.34456268434150e+005,-1.57137670627604e+001,-5.06597829374877e+000

5.41916999912011e+005,-1.57139752996923e+001,-5.13649457829729e+000

