Freq.,VOut,OutRef

1.00000000000000e+004,-1.86276961778495e+000,-3.42017562906709e-002

1.01395947979003e+004,-1.86276961392961e+000,-3.46791949511745e-002

1.02811382665607e+004,-1.86276960996562e+000,-3.51632984058026e-002

1.04246576084112e+004,-1.86276960588996e+000,-3.56541596914041e-002

1.05701804056138e+004,-1.86276960170008e+000,-3.61518731398552e-002

1.07177346253629e+004,-1.86276959739202e+000,-3.66565344087569e-002

1.08673486252606e+004,-1.86276959296318e+000,-3.71682404807661e-002

1.10190511587661e+004,-1.86276958840953e+000,-3.76870897021774e-002

1.11728713807222e+004,-1.86276958372832e+000,-3.82131817822356e-002

1.13288388529580e+004,-1.86276957891504e+000,-3.87466178335745e-002

1.14869835499703e+004,-1.86276957396665e+000,-3.92875003692638e-002

1.16473358646846e+004,-1.86276956887905e+000,-3.98359333405173e-002

1.18099266142953e+004,-1.86276956364836e+000,-4.03920221468350e-002

1.19747870461893e+004,-1.86276955827097e+000,-4.09558736572286e-002

1.21419488439505e+004,-1.86276955274180e+000,-4.15275962405480e-002

1.23114441334492e+004,-1.86276954705767e+000,-4.21072997661213e-002

1.24833054890161e+004,-1.86276954121338e+000,-4.26950956485655e-002

1.26575659397028e+004,-1.86276953520507e+000,-4.32910968489799e-002

1.28342589756290e+004,-1.86276952902778e+000,-4.38954179110398e-002

1.30134185544193e+004,-1.86276952267665e+000,-4.45081749764834e-002

1.31950791077289e+004,-1.86276951614702e+000,-4.51294858054393e-002

1.33792755478611e+004,-1.86276950943377e+000,-4.57594698048401e-002

1.35660432744767e+004,-1.86276950253200e+000,-4.63982480454795e-002

1.37554181813974e+004,-1.86276949543585e+000,-4.70459432936243e-002

1.39474366635040e+004,-1.86276948814045e+000,-4.77026800220593e-002

1.41421356237309e+004,-1.86276948063963e+000,-4.83685844486715e-002

1.43395524801583e+004,-1.86276947292815e+000,-4.90437845455313e-002

1.45397251732031e+004,-1.86276946499985e+000,-4.97284100771766e-002

1.47426921729110e+004,-1.86276945684885e+000,-5.04225926158316e-002

1.49484924863494e+004,-1.86276944846814e+000,-5.11264655765289e-002

1.51571656651040e+004,-1.86276943985225e+000,-5.18401642261876e-002

1.53687518128801e+004,-1.86276943099393e+000,-5.25638257297124e-002

1.55832915932100e+004,-1.86276942188656e+000,-5.32975891620479e-002

1.58008262372675e+004,-1.86276941252311e+000,-5.40415955404679e-002

1.60213975517924e+004,-1.86276940289655e+000,-5.47959878494862e-002

1.62450479271247e+004,-1.86276939299921e+000,-5.55609110729819e-002

1.64718203453514e+004,-1.86276938282356e+000,-5.63365122159884e-002

1.67017583885674e+004,-1.86276937236185e+000,-5.71229403353393e-002

1.69349062472505e+004,-1.86276936160593e+000,-5.79203465704848e-002

1.71713087287550e+004,-1.86276935054739e+000,-5.87288841706888e-002

1.74110112659224e+004,-1.86276933917823e+000,-5.95487085199153e-002

1.76540599258131e+004,-1.86276932748938e+000,-6.03799771772192e-002

1.79005014185594e+004,-1.86276931547182e+000,-6.12228498984557e-002

1.81503831063432e+004,-1.86276930311633e+000,-6.20774886700767e-002

1.84037530124975e+004,-1.86276929041345e+000,-6.29440577385306e-002

1.86606598307361e+004,-1.86276927735346e+000,-6.38227236440362e-002

1.89211529345119e+004,-1.86276926392639e+000,-6.47136552507197e-002

1.91852823865052e+004,-1.86276925012148e+000,-6.56170237836602e-002

1.94530989482457e+004,-1.86276923592846e+000,-6.65330028523715e-002

1.97246540898671e+004,-1.86276922133651e+000,-6.74617684928724e-002

1.99999999999999e+004,-1.86276920633415e+000,-6.84034991992417e-002

2.02791895958005e+004,-1.86276919090996e+000,-6.93583759557456e-002

2.05622765331213e+004,-1.86276917505220e+000,-7.03265822725247e-002

2.08493152168224e+004,-1.86276915874850e+000,-7.13083042235200e-002

2.11403608112276e+004,-1.86276914198633e+000,-7.23037304792501e-002

2.14354692507258e+004,-1.86276912475290e+000,-7.33130523427434e-002

2.17346972505211e+004,-1.86276910703466e+000,-7.43364637902780e-002

2.20381023175322e+004,-1.86276908881858e+000,-7.53741615002464e-002

2.23457427614443e+004,-1.86276907009000e+000,-7.64263449047009e-002

2.26576777059159e+004,-1.86276905083480e+000,-7.74932162131433e-002

2.29739670999406e+004,-1.86276903103821e+000,-7.85749804596004e-002

2.32946717293690e+004,-1.86276901068514e+000,-7.96718455395384e-002

2.36198532285905e+004,-1.86276898975951e+000,-8.07840222542984e-002

2.39495740923785e+004,-1.86276896824553e+000,-8.19117243430094e-002

2.42838976879009e+004,-1.86276894612652e+000,-8.30551685308117e-002

2.46228882668982e+004,-1.86276892338551e+000,-8.42145745679946e-002

2.49666109780322e+004,-1.86276890000520e+000,-8.53901652704231e-002

2.53151318794055e+004,-1.86276887596734e+000,-8.65821665679023e-002

2.56685179512580e+004,-1.86276885125353e+000,-8.77908075413000e-002

2.60268371088386e+004,-1.86276882584487e+000,-8.90163204692888e-002

2.63901582154578e+004,-1.86276879972146e+000,-9.02589408763289e-002

2.67585510957221e+004,-1.86276877286348e+000,-9.15189075699610e-002

2.71320865489533e+004,-1.86276874525042e+000,-9.27964626921679e-002

2.75108363627948e+004,-1.86276871686068e+000,-9.40918517689004e-002

2.78948733270080e+004,-1.86276868767267e+000,-9.54053237485028e-002

2.82842712474618e+004,-1.86276865766382e+000,-9.67371310578218e-002

2.86791049603164e+004,-1.86276862681098e+000,-9.80875296462848e-002

2.90794503464061e+004,-1.86276859509050e+000,-9.94567790354080e-002

2.94853843458219e+004,-1.86276856247805e+000,-1.00845142369697e-001

2.98969849726987e+004,-1.86276852894834e+000,-1.02252886468023e-001

3.03143313302078e+004,-1.86276849447562e+000,-1.03680281873063e-001

3.07375036257601e+004,-1.86276845903357e+000,-1.05127602902213e-001

3.11665831864199e+004,-1.86276842259470e+000,-1.06595127705551e-001

3.16016524745350e+004,-1.86276838513103e+000,-1.08083138313090e-001

3.20427951035848e+004,-1.86276834661366e+000,-1.09591920693585e-001

3.24900958542493e+004,-1.86276830701314e+000,-1.11121764805400e-001

3.29436406907028e+004,-1.86276826629882e+000,-1.12672964656751e-001

3.34035167771346e+004,-1.86276822443935e+000,-1.14245818359026e-001

3.38698124945009e+004,-1.86276818140259e+000,-1.15840628184232e-001

3.43426174575100e+004,-1.86276813715560e+000,-1.17457700623250e-001

3.48220225318448e+004,-1.86276809166390e+000,-1.19097346449053e-001

3.53081198516260e+004,-1.86276804489268e+000,-1.20759880768280e-001

3.58010028371187e+004,-1.86276799680597e+000,-1.22445623087744e-001

3.63007662126863e+004,-1.86276794736686e+000,-1.24154897373968e-001

3.68075060249948e+004,-1.86276789653702e+000,-1.25888032116804e-001

3.73213196614721e+004,-1.86276784427742e+000,-1.27645360390587e-001

3.78423058690237e+004,-1.86276779054800e+000,-1.29427219917651e-001

3.83705647730104e+004,-1.86276773530708e+000,-1.31233953137634e-001

3.89061978964912e+004,-1.86276767851239e+000,-1.33065907266955e-001

3.94493081797342e+004,-1.86276762012011e+000,-1.34923434370840e-001

3.99999999999998e+004,-1.86276756008524e+000,-1.36806891428131e-001

4.05583791916010e+004,-1.86276749836163e+000,-1.38716640400251e-001

4.11245530662425e+004,-1.86276743490159e+000,-1.40653048303091e-001

4.16986304336447e+004,-1.86276736965640e+000,-1.42616487272796e-001

4.22807216224550e+004,-1.86276730257582e+000,-1.44607334641164e-001

4.28709385014515e+004,-1.86276723360802e+000,-1.46625973008874e-001

4.34693945010421e+004,-1.86276716269995e+000,-1.48672790314559e-001

4.40762046350642e+004,-1.86276708979712e+000,-1.50748179912118e-001

4.46914855228886e+004,-1.86276701484313e+000,-1.52852540648548e-001

4.53153554118317e+004,-1.86276693778042e+000,-1.54986276935268e-001

4.59479341998812e+004,-1.86276685854951e+000,-1.57149798830435e-001

4.65893434587380e+004,-1.86276677708950e+000,-1.59343522114958e-001

4.72397064571810e+004,-1.86276669333752e+000,-1.61567868374274e-001

4.78991481847569e+004,-1.86276660722895e+000,-1.63823265078527e-001

4.85677953758016e+004,-1.86276651869753e+000,-1.66110145663797e-001

4.92457765337964e+004,-1.86276642767505e+000,-1.68428949616499e-001

4.99332219560642e+004,-1.86276633409126e+000,-1.70780122558160e-001

5.06302637588109e+004,-1.86276623787411e+000,-1.73164116329468e-001

5.13370359025159e+004,-1.86276613894940e+000,-1.75581389078974e-001

5.20536742176771e+004,-1.86276603724080e+000,-1.78032405349710e-001

5.27803164309155e+004,-1.86276593267017e+000,-1.80517636167700e-001

5.35171021914442e+004,-1.86276582515646e+000,-1.83037559136919e-001

5.42641730979066e+004,-1.86276571461700e+000,-1.85592658524464e-001

5.50216727255895e+004,-1.86276560096654e+000,-1.88183425358365e-001

5.57897466540159e+004,-1.86276548411743e+000,-1.90810357519537e-001

5.65685424949235e+004,-1.86276536397955e+000,-1.93473959839566e-001

5.73582099206328e+004,-1.86276524046010e+000,-1.96174744196346e-001

5.81589006928121e+004,-1.86276511346400e+000,-1.98913229610645e-001

5.89707686916437e+004,-1.86276498289311e+000,-2.01689942350274e-001

5.97939699453972e+004,-1.86276484864656e+000,-2.04505416027535e-001

6.06286626604156e+004,-1.86276471062116e+000,-2.07360191700902e-001

6.14750072515201e+004,-1.86276456871002e+000,-2.10254817984154e-001

6.23331663728396e+004,-1.86276442280372e+000,-2.13189851146174e-001

6.32033049490698e+004,-1.86276427278961e+000,-2.16165855221108e-001

6.40855902071694e+004,-1.86276411855192e+000,-2.19183402114429e-001

6.49801917084985e+004,-1.86276395997154e+000,-2.22243071715116e-001

6.58872813814055e+004,-1.86276379692606e+000,-2.25345452005601e-001

6.68070335542691e+004,-1.86276362928955e+000,-2.28491139174752e-001

6.77396249890018e+004,-1.86276345693236e+000,-2.31680737734164e-001

6.86852349150199e+004,-1.86276327972155e+000,-2.34914860630125e-001

6.96440450636895e+004,-1.86276309752006e+000,-2.38194129366522e-001

7.06162397032520e+004,-1.86276291018720e+000,-2.41519174119711e-001

7.16020056742374e+004,-1.86276271757808e+000,-2.44890633863250e-001

7.26015324253724e+004,-1.86276251954394e+000,-2.48309156487415e-001

7.36150120499896e+004,-1.86276231593165e+000,-2.51775398925765e-001

7.46426393229441e+004,-1.86276210658376e+000,-2.55290027280593e-001

7.56846117380472e+004,-1.86276189133845e+000,-2.58853716950650e-001

7.67411295460207e+004,-1.86276167002913e+000,-2.62467152762017e-001

7.78123957929823e+004,-1.86276144248466e+000,-2.66131029097383e-001

7.88986163594682e+004,-1.86276120852897e+000,-2.69846050031651e-001

7.99999999999995e+004,-1.86276096798111e+000,-2.73612929464882e-001

8.11167583832018e+004,-1.86276072065484e+000,-2.77432391262216e-001

8.22491061324848e+004,-1.86276046635865e+000,-2.81305169391044e-001

8.33972608672892e+004,-1.86276020489565e+000,-2.85232008062015e-001

8.45614432449099e+004,-1.86275993606340e+000,-2.89213661871454e-001

8.57418770029029e+004,-1.86275965965373e+000,-2.93250895947622e-001

8.69387890020841e+004,-1.86275937545243e+000,-2.97344486096893e-001

8.81524092701283e+004,-1.86275908323933e+000,-3.01495218952312e-001

8.93829710457770e+004,-1.86275878278783e+000,-3.05703892126358e-001

9.06307108236633e+004,-1.86275847386509e+000,-3.09971314361486e-001

9.18958683997622e+004,-1.86275815623153e+000,-3.14298305687043e-001

9.31786869174758e+004,-1.86275782964083e+000,-3.18685697576433e-001

9.44794129143618e+004,-1.86275749383969e+000,-3.23134333106071e-001

9.57982963695136e+004,-1.86275714856735e+000,-3.27645067119237e-001

9.71355907516031e+004,-1.86275679355596e+000,-3.32218766387341e-001

9.84915530675926e+004,-1.86275642852986e+000,-3.36856309778160e-001

9.98664439121282e+004,-1.86275605320552e+000,-3.41558588424441e-001

1.01260527517622e+005,-1.86275566729147e+000,-3.46326505893725e-001

1.02674071805032e+005,-1.86275527048775e+000,-3.51160978363276e-001

1.04107348435354e+005,-1.86275486248603e+000,-3.56062934795040e-001

1.05560632861831e+005,-1.86275444296899e+000,-3.61033317114488e-001

1.07034204382888e+005,-1.86275401161040e+000,-3.66073080390603e-001

1.08528346195813e+005,-1.86275356807471e+000,-3.71183193019401e-001

1.10043345451179e+005,-1.86275311201678e+000,-3.76364636910230e-001

1.11579493308032e+005,-1.86275264308142e+000,-3.81618407675138e-001

1.13137084989847e+005,-1.86275216090352e+000,-3.86945514816761e-001

1.14716419841265e+005,-1.86275166510750e+000,-3.92346981924837e-001

1.16317801385624e+005,-1.86275115530691e+000,-3.97823846872110e-001

1.17941537383287e+005,-1.86275063110427e+000,-4.03377162012856e-001

1.19587939890794e+005,-1.86275009209088e+000,-4.09007994384001e-001

1.21257325320831e+005,-1.86274953784605e+000,-4.14717425913057e-001

1.22950014503040e+005,-1.86274896793730e+000,-4.20506553621157e-001

1.24666332745679e+005,-1.86274838191956e+000,-4.26376489836829e-001

1.26406609898139e+005,-1.86274777933506e+000,-4.32328362408758e-001

1.28171180414339e+005,-1.86274715971287e+000,-4.38363314920997e-001

1.29960383416997e+005,-1.86274652256852e+000,-4.44482506913299e-001

1.31774562762811e+005,-1.86274586740362e+000,-4.50687114103116e-001

1.33614067108538e+005,-1.86274519370555e+000,-4.56978328610613e-001

1.35479249978003e+005,-1.86274450094677e+000,-4.63357359188797e-001

1.37370469830040e+005,-1.86274378858457e+000,-4.69825431454025e-001

1.39288090127379e+005,-1.86274305606070e+000,-4.76383788120919e-001

1.41232479406504e+005,-1.86274230280072e+000,-4.83033689241681e-001

1.43204011348474e+005,-1.86274152821369e+000,-4.89776412446411e-001

1.45203064850745e+005,-1.86274073169168e+000,-4.96613253188795e-001

1.47230024099979e+005,-1.86273991260888e+000,-5.03545524994938e-001

1.49285278645888e+005,-1.86273907032176e+000,-5.10574559713815e-001

1.51369223476094e+005,-1.86273820416792e+000,-5.17701707774061e-001

1.53482259092041e+005,-1.86273731346591e+000,-5.24928338441411e-001

1.55624791585964e+005,-1.86273639751451e+000,-5.32255840081726e-001

1.57797232718936e+005,-1.86273545559215e+000,-5.39685620427506e-001

1.59999999999999e+005,-1.86273448695625e+000,-5.47219106847587e-001

1.62233516766403e+005,-1.86273349084286e+000,-5.54857746619051e-001

1.64498212264969e+005,-1.86273246646566e+000,-5.62603007207098e-001

1.66794521734578e+005,-1.86273141301548e+000,-5.70456376544346e-001

1.69122886489819e+005,-1.86273032965963e+000,-5.78419363316329e-001

1.71483754005805e+005,-1.86272921554115e+000,-5.86493497251051e-001

1.73877578004168e+005,-1.86272806977799e+000,-5.94680329411700e-001

1.76304818540256e+005,-1.86272689146259e+000,-6.02981432492505e-001

1.78765942091554e+005,-1.86272567966068e+000,-6.11398401121909e-001

1.81261421647326e+005,-1.86272443341063e+000,-6.19932852167501e-001

1.83791736799524e+005,-1.86272315172286e+000,-6.28586425044185e-001

1.86357373834951e+005,-1.86272183357858e+000,-6.37360782030114e-001

1.88958825828723e+005,-1.86272047792929e+000,-6.46257608582952e-001

1.91596592739027e+005,-1.86271908369559e+000,-6.55278613664741e-001

1.94271181503206e+005,-1.86271764976644e+000,-6.64425530066917e-001

1.96983106135185e+005,-1.86271617499803e+000,-6.73700114743296e-001

1.99732887824256e+005,-1.86271465821301e+000,-6.83104149145661e-001

2.02521055035243e+005,-1.86271309819911e+000,-6.92639439565885e-001

2.05348143610063e+005,-1.86271149370849e+000,-7.02307817479747e-001

2.08214696870707e+005,-1.86270984345625e+000,-7.12111139899348e-001

2.11121265723661e+005,-1.86270814611965e+000,-7.22051289726359e-001

2.14068408765776e+005,-1.86270640033662e+000,-7.32130176114317e-001

2.17056692391625e+005,-1.86270460470485e+000,-7.42349734832357e-001

2.20086690902357e+005,-1.86270275778030e+000,-7.52711928636158e-001

2.23158986616063e+005,-1.86270085807593e+000,-7.63218747643668e-001

2.26274169979693e+005,-1.86269890406071e+000,-7.73872209713970e-001

2.29432839682530e+005,-1.86269689415777e+000,-7.84674360835543e-001

2.32635602771247e+005,-1.86269482674318e+000,-7.95627275516610e-001

2.35883074766574e+005,-1.86269270014471e+000,-8.06733057179840e-001

2.39175879781588e+005,-1.86269051263984e+000,-8.17993838568217e-001

2.42514650641661e+005,-1.86268826245458e+000,-8.29411782149755e-001

2.45900029006080e+005,-1.86268594776187e+000,-8.40989080531387e-001

2.49332665491357e+005,-1.86268356667944e+000,-8.52727956879574e-001

2.52813219796278e+005,-1.86268111726876e+000,-8.64630665342733e-001

2.56342360828676e+005,-1.86267859753261e+000,-8.76699491484801e-001

2.59920766833993e+005,-1.86267600541379e+000,-8.88936752719072e-001

2.63549125525621e+005,-1.86267333879289e+000,-9.01344798752738e-001

2.67228134217075e+005,-1.86267059548613e+000,-9.13926012036851e-001

2.70958499956006e+005,-1.86266777324401e+000,-9.26682808217792e-001

2.74740939660078e+005,-1.86266486974845e+000,-9.39617636602522e-001

2.78576180254757e+005,-1.86266188261105e+000,-9.52732980624604e-001

2.82464958813007e+005,-1.86265880937078e+000,-9.66031358318301e-001

2.86408022696948e+005,-1.86265564749152e+000,-9.79515322800336e-001

2.90406129701488e+005,-1.86265239435977e+000,-9.93187462756646e-001

2.94460048199957e+005,-1.86264904728218e+000,-1.00705040293768e+000

2.98570557291775e+005,-1.86264560348290e+000,-1.02110680465818e+000

3.02738446952187e+005,-1.86264206010089e+000,-1.03535936630705e+000

3.06964518184081e+005,-1.86263841418732e+000,-1.04981082386083e+000

3.11249583171928e+005,-1.86263466270260e+000,-1.06446395140696e+000

3.15594465437872e+005,-1.86263080251352e+000,-1.07932156167339e+000

3.19999999999997e+005,-1.86262683039016e+000,-1.09438650656475e+000

3.24467033532806e+005,-1.86262274300272e+000,-1.10966167770820e+000

3.28996424529938e+005,-1.86261853691838e+000,-1.12515000700338e+000

3.33589043469155e+005,-1.86261420859777e+000,-1.14085446718411e+000

3.38245772979638e+005,-1.86260975439175e+000,-1.15677807238403e+000

3.42967508011610e+005,-1.86260517053742e+000,-1.17292387871344e+000

3.47755156008335e+005,-1.86260045315487e+000,-1.18929498484135e+000

3.52609637080511e+005,-1.86259559824285e+000,-1.20589453258825e+000

3.57531884183106e+005,-1.86259060167531e+000,-1.22272570752407e+000

3.62522843294651e+005,-1.86258545919675e+000,-1.23979173957864e+000

3.67583473599047e+005,-1.86258016641845e+000,-1.25709590365559e+000

3.72714747669902e+005,-1.86257471881357e+000,-1.27464152026011e+000

3.77917651657445e+005,-1.86256911171314e+000,-1.29243195613089e+000

3.83193185478053e+005,-1.86256334030099e+000,-1.31047062488387e+000

3.88542363006410e+005,-1.86255739960895e+000,-1.32876098766372e+000

3.93966212270369e+005,-1.86255128451185e+000,-1.34730655380555e+000

3.99465775648511e+005,-1.86254498972237e+000,-1.36611088150378e+000

4.05042110070485e+005,-1.86253850978552e+000,-1.38517757849320e+000

4.10696287220124e+005,-1.86253183907320e+000,-1.40451030273741e+000

4.16429393741414e+005,-1.86252497177848e+000,-1.42411276312716e+000

4.22242531447321e+005,-1.86251790190947e+000,-1.44398872019071e+000

4.28136817531551e+005,-1.86251062328334e+000,-1.46414198681131e+000

4.34113384783250e+005,-1.86250312951996e+000,-1.48457642895618e+000

4.40173381804713e+005,-1.86249541403524e+000,-1.50529596641667e+000

4.46317973232124e+005,-1.86248747003446e+000,-1.52630457355666e+000

4.52548339959385e+005,-1.86247929050518e+000,-1.54760628007394e+000

4.58865679365059e+005,-1.86247086821006e+000,-1.56920517177081e+000

4.65271205542494e+005,-1.86246219567934e+000,-1.59110539133637e+000

4.71766149533147e+005,-1.86245326520315e+000,-1.61331113913971e+000

4.78351759563174e+005,-1.86244406882351e+000,-1.63582667403438e+000

4.85029301283321e+005,-1.86243459832616e+000,-1.65865631417446e+000

4.91800058012158e+005,-1.86242484523185e+000,-1.68180443784292e+000

4.98665330982714e+005,-1.86241480078787e+000,-1.70527548429022e+000

5.05626439592555e+005,-1.86240445595876e+000,-1.72907395458656e+000

5.12684721657352e+005,-1.86239380141707e+000,-1.75320441248595e+000

5.19841533667984e+005,-1.86238282753366e+000,-1.77767148530220e+000

5.27098251051240e+005,-1.86237152436781e+000,-1.80247986479817e+000

5.34456268434150e+005,-1.86235988165687e+000,-1.82763430808793e+000

5.41916999912011e+005,-1.86234788880577e+000,-1.85313963855098e+000

