Freq.,VOut,OutRef

1.00000000000000e+004,-2.14415263165728e+001,-3.40194936046484e-001

1.01395947979003e+004,-2.14415277619041e+001,-3.44943855195257e-001

1.02811382665607e+004,-2.14415292478685e+001,-3.49759065714722e-001

1.04246576084112e+004,-2.14415307756082e+001,-3.54641492952778e-001

1.05701804056138e+004,-2.14415323462976e+001,-3.59592075173769e-001

1.07177346253629e+004,-2.14415339611442e+001,-3.64611763735014e-001

1.08673486252606e+004,-2.14415356213894e+001,-3.69701523274335e-001

1.10190511587661e+004,-2.14415373283094e+001,-3.74862331892601e-001

1.11728713807222e+004,-2.14415390832165e+001,-3.80095181341077e-001

1.13288388529580e+004,-2.14415408874595e+001,-3.85401077215669e-001

1.14869835499703e+004,-2.14415427424255e+001,-3.90781039144321e-001

1.16473358646846e+004,-2.14415446495404e+001,-3.96236100987577e-001

1.18099266142953e+004,-2.14415466102704e+001,-4.01767311035283e-001

1.19747870461893e+004,-2.14415486261225e+001,-4.07375732208178e-001

1.21419488439505e+004,-2.14415506986464e+001,-4.13062442261352e-001

1.23114441334492e+004,-2.14415528294354e+001,-4.18828533992087e-001

1.24833054890161e+004,-2.14415550201273e+001,-4.24675115449513e-001

1.26575659397028e+004,-2.14415572724061e+001,-4.30603310146847e-001

1.28342589756290e+004,-2.14415595880033e+001,-4.36614257277937e-001

1.30134185544193e+004,-2.14415619686988e+001,-4.42709111934834e-001

1.31950791077289e+004,-2.14415644163227e+001,-4.48889045331387e-001

1.33792755478611e+004,-2.14415669327565e+001,-4.55155245026014e-001

1.35660432744767e+004,-2.14415695199345e+001,-4.61508915151558e-001

1.37554181813974e+004,-2.14415721798455e+001,-4.67951276646130e-001

1.39474366635040e+004,-2.14415749145343e+001,-4.74483567484914e-001

1.41421356237309e+004,-2.14415777261028e+001,-4.81107042922686e-001

1.43395524801583e+004,-2.14415806167124e+001,-4.87822975729577e-001

1.45397251732031e+004,-2.14415835885850e+001,-4.94632656440300e-001

1.47426921729110e+004,-2.14415866440051e+001,-5.01537393598022e-001

1.49484924863494e+004,-2.14415897853213e+001,-5.08538514007001e-001

1.51571656651040e+004,-2.14415930149482e+001,-5.15637362988442e-001

1.53687518128801e+004,-2.14415963353686e+001,-5.22835304635934e-001

1.55832915932100e+004,-2.14415997491347e+001,-5.30133722080034e-001

1.58008262372675e+004,-2.14416032588704e+001,-5.37534017753332e-001

1.60213975517924e+004,-2.14416068672737e+001,-5.45037613657484e-001

1.62450479271247e+004,-2.14416105771184e+001,-5.52645951637907e-001

1.64718203453514e+004,-2.14416143912558e+001,-5.60360493660595e-001

1.67017583885674e+004,-2.14416183126180e+001,-5.68182722091749e-001

1.69349062472505e+004,-2.14416223442189e+001,-5.76114139983444e-001

1.71713087287550e+004,-2.14416264891577e+001,-5.84156271360204e-001

1.74110112659224e+004,-2.14416307506201e+001,-5.92310661513826e-001

1.76540599258131e+004,-2.14416351318820e+001,-6.00578877297450e-001

1.79005014185594e+004,-2.14416396363109e+001,-6.08962507427346e-001

1.81503831063432e+004,-2.14416442673690e+001,-6.17463162789150e-001

1.84037530124975e+004,-2.14416490286160e+001,-6.26082476743519e-001

1.86606598307361e+004,-2.14416539237116e+001,-6.34822105442158e-001

1.89211529345119e+004,-2.14416589564183e+001,-6.43683728145183e-001

1.91852823865052e+004,-2.14416641306042e+001,-6.52669047542719e-001

1.94530989482457e+004,-2.14416694502466e+001,-6.61779790080252e-001

1.97246540898671e+004,-2.14416749194339e+001,-6.71017706293396e-001

1.99999999999999e+004,-2.14416805423702e+001,-6.80384571138189e-001

2.02791895958005e+004,-2.14416863233771e+001,-6.89882184337717e-001

2.05622765331213e+004,-2.14416922668979e+001,-6.99512370721595e-001

2.08493152168224e+004,-2.14416983775009e+001,-7.09276980579200e-001

2.11403608112276e+004,-2.14417046598826e+001,-7.19177890014368e-001

2.14354692507258e+004,-2.14417111188716e+001,-7.29217001303160e-001

2.17346972505211e+004,-2.14417177594322e+001,-7.39396243259932e-001

2.20381023175322e+004,-2.14417245866681e+001,-7.49717571607481e-001

2.23457427614443e+004,-2.14417316058266e+001,-7.60182969350108e-001

2.26576777059159e+004,-2.14417388223026e+001,-7.70794447155282e-001

2.29739670999406e+004,-2.14417462416421e+001,-7.81554043739794e-001

2.32946717293690e+004,-2.14417538695474e+001,-7.92463826257310e-001

2.36198532285905e+004,-2.14417617118809e+001,-8.03525890697772e-001

2.39495740923785e+004,-2.14417697746699e+001,-8.14742362286463e-001

2.42838976879009e+004,-2.14417780641109e+001,-8.26115395893497e-001

2.46228882668982e+004,-2.14417865865746e+001,-8.37647176444843e-001

2.49666109780322e+004,-2.14417953486107e+001,-8.49339919341260e-001

2.53151318794055e+004,-2.14418043569529e+001,-8.61195870883844e-001

2.56685179512580e+004,-2.14418136185243e+001,-8.73217308702515e-001

2.60268371088386e+004,-2.14418231404424e+001,-8.85406542192909e-001

2.63901582154578e+004,-2.14418329300248e+001,-8.97765912959095e-001

2.67585510957221e+004,-2.14418429947946e+001,-9.10297795261293e-001

2.71320865489533e+004,-2.14418533424864e+001,-9.23004596470130e-001

2.75108363627948e+004,-2.14418639810522e+001,-9.35888757528152e-001

2.78948733270080e+004,-2.14418749186671e+001,-9.48952753417842e-001

2.82842712474618e+004,-2.14418861637363e+001,-9.62199093632155e-001

2.86791049603164e+004,-2.14418977249011e+001,-9.75630322658545e-001

2.90794503464061e+004,-2.14419096110454e+001,-9.89249020463218e-001

2.94853843458219e+004,-2.14419218313028e+001,-1.00305780298609e+000

2.98969849726987e+004,-2.14419343950635e+001,-1.01705932264013e+000

3.03143313302078e+004,-2.14419473119818e+001,-1.03125626881920e+000

3.07375036257601e+004,-2.14419605919827e+001,-1.04565136841281e+000

3.11665831864199e+004,-2.14419742452705e+001,-1.06024738632654e+000

3.16016524745350e+004,-2.14419882823361e+001,-1.07504712601137e+000

3.20427951035848e+004,-2.14420027139650e+001,-1.09005342999931e+000

3.24900958542493e+004,-2.14420175512457e+001,-1.10526918044639e+000

3.29436406907028e+004,-2.14420328055784e+001,-1.12069729968464e+000

3.34035167771346e+004,-2.14420484886833e+001,-1.13634075077873e+000

3.38698124945009e+004,-2.14420646126100e+001,-1.15220253809281e+000

3.43426174575100e+004,-2.14420811897465e+001,-1.16828570786482e+000

3.48220225318448e+004,-2.14420982328289e+001,-1.18459334878744e+000

3.53081198516260e+004,-2.14421157549509e+001,-1.20112859259800e+000

3.58010028371187e+004,-2.14421337695742e+001,-1.21789461467671e+000

3.63007662126863e+004,-2.14421522905382e+001,-1.23489463465268e+000

3.68075060249948e+004,-2.14421713320716e+001,-1.25213191701712e+000

3.73213196614721e+004,-2.14421909088022e+001,-1.26960977174820e+000

3.78423058690237e+004,-2.14422110357690e+001,-1.28733155494044e+000

3.83705647730104e+004,-2.14422317284331e+001,-1.30530066944630e+000

3.89061978964912e+004,-2.14422530026901e+001,-1.32352056552425e+000

3.94493081797342e+004,-2.14422748748816e+001,-1.34199474149615e+000

3.99999999999998e+004,-2.14422973618086e+001,-1.36072674441368e+000

4.05583791916010e+004,-2.14423204807435e+001,-1.37972017073663e+000

4.11245530662425e+004,-2.14423442494440e+001,-1.39897866701452e+000

4.16986304336447e+004,-2.14423686861663e+001,-1.41850593058351e+000

4.22807216224550e+004,-2.14423938096791e+001,-1.43830571026919e+000

4.28709385014515e+004,-2.14424196392785e+001,-1.45838180710005e+000

4.34693945010421e+004,-2.14424461948017e+001,-1.47873807503227e+000

4.40762046350642e+004,-2.14424734966436e+001,-1.49937842168031e+000

4.46914855228886e+004,-2.14425015657712e+001,-1.52030680906266e+000

4.53153554118317e+004,-2.14425304237402e+001,-1.54152725435392e+000

4.59479341998812e+004,-2.14425600927115e+001,-1.56304383064752e+000

4.65893434587380e+004,-2.14425905954682e+001,-1.58486066773097e+000

4.72397064571810e+004,-2.14426219554326e+001,-1.60698195287010e+000

4.78991481847569e+004,-2.14426541966846e+001,-1.62941193160358e+000

4.85677953758016e+004,-2.14426873439803e+001,-1.65215490854866e+000

4.92457765337964e+004,-2.14427214227700e+001,-1.67521524821945e+000

4.99332219560642e+004,-2.14427564592188e+001,-1.69859737585252e+000

5.06302637588109e+004,-2.14427924802259e+001,-1.72230577824804e+000

5.13370359025159e+004,-2.14428295134451e+001,-1.74634500461937e+000

5.20536742176771e+004,-2.14428675873067e+001,-1.77071966745446e+000

5.27803164309155e+004,-2.14429067310384e+001,-1.79543444339006e+000

5.35171021914442e+004,-2.14429469746879e+001,-1.82049407409766e+000

5.42641730979066e+004,-2.14429883491463e+001,-1.84590336717946e+000

5.50216727255895e+004,-2.14430308861709e+001,-1.87166719707831e+000

5.57897466540159e+004,-2.14430746184104e+001,-1.89779050599944e+000

5.65685424949235e+004,-2.14431195794287e+001,-1.92427830484469e+000

5.73582099206328e+004,-2.14431658037319e+001,-1.95113567415783e+000

5.81589006928121e+004,-2.14432133267932e+001,-1.97836776508543e+000

5.89707686916437e+004,-2.14432621850811e+001,-2.00597980034772e+000

5.97939699453972e+004,-2.14433124160870e+001,-2.03397707522330e+000

6.06286626604156e+004,-2.14433640583531e+001,-2.06236495854912e+000

6.14750072515201e+004,-2.14434171515027e+001,-2.09114889372945e+000

6.23331663728396e+004,-2.14434717362701e+001,-2.12033439976310e+000

6.32033049490698e+004,-2.14435278545314e+001,-2.14992707228098e+000

6.40855902071694e+004,-2.14435855493368e+001,-2.17993258459824e+000

6.49801917084985e+004,-2.14436448649432e+001,-2.21035668878118e+000

6.58872813814055e+004,-2.14437058468480e+001,-2.24120521672753e+000

6.68070335542691e+004,-2.14437685418239e+001,-2.27248408126118e+000

6.77396249890018e+004,-2.14438329979540e+001,-2.30419927724163e+000

6.86852349150199e+004,-2.14438992646693e+001,-2.33635688268717e+000

6.96440450636895e+004,-2.14439673927855e+001,-2.36896305991415e+000

7.06162397032520e+004,-2.14440374345420e+001,-2.40202405669095e+000

7.16020056742374e+004,-2.14441094436417e+001,-2.43554620740528e+000

7.26015324253724e+004,-2.14441834752917e+001,-2.46953593424929e+000

7.36150120499896e+004,-2.14442595862457e+001,-2.50399974841894e+000

7.46426393229441e+004,-2.14443378348462e+001,-2.53894425132890e+000

7.56846117380472e+004,-2.14444182810700e+001,-2.57437613584362e+000

7.67411295460207e+004,-2.14445009865730e+001,-2.61030218752368e+000

7.78123957929823e+004,-2.14445860147371e+001,-2.64672928588997e+000

7.88986163594682e+004,-2.14446734307187e+001,-2.68366440570176e+000

7.99999999999995e+004,-2.14447633014976e+001,-2.72111461825399e+000

8.11167583832018e+004,-2.14448556959283e+001,-2.75908709268870e+000

8.22491061324848e+004,-2.14449506847919e+001,-2.79758909732484e+000

8.33972608672892e+004,-2.14450483408500e+001,-2.83662800100513e+000

8.45614432449099e+004,-2.14451487388995e+001,-2.87621127445920e+000

8.57418770029029e+004,-2.14452519558296e+001,-2.91634649168469e+000

8.69387890020841e+004,-2.14453580706798e+001,-2.95704133134625e+000

8.81524092701283e+004,-2.14454671646997e+001,-2.99830357819118e+000

8.93829710457770e+004,-2.14455793214108e+001,-3.04014112448399e+000

9.06307108236633e+004,-2.14456946266691e+001,-3.08256197145883e+000

9.18958683997622e+004,-2.14458131687304e+001,-3.12557423078954e+000

9.31786869174758e+004,-2.14459350383167e+001,-3.16918612607882e+000

9.44794129143618e+004,-2.14460603286851e+001,-3.21340599436572e+000

9.57982963695136e+004,-2.14461891356978e+001,-3.25824228765108e+000

9.71355907516031e+004,-2.14463215578943e+001,-3.30370357444407e+000

9.84915530675926e+004,-2.14464576965661e+001,-3.34979854132518e+000

9.98664439121282e+004,-2.14465976558329e+001,-3.39653599452981e+000

1.01260527517622e+005,-2.14467415427207e+001,-3.44392486155148e+000

1.02674071805032e+005,-2.14468894672427e+001,-3.49197419276390e+000

1.04107348435354e+005,-2.14470415424816e+001,-3.54069316306254e+000

1.05560632861831e+005,-2.14471978846754e+001,-3.59009107352796e+000

1.07034204382888e+005,-2.14473586133037e+001,-3.64017735310552e+000

1.08528346195813e+005,-2.14475238511783e+001,-3.69096156030983e+000

1.10043345451179e+005,-2.14476937245345e+001,-3.74245338494575e+000

1.11579493308032e+005,-2.14478683631266e+001,-3.79466264985085e+000

1.13137084989847e+005,-2.14480479003244e+001,-3.84759931266021e+000

1.14716419841265e+005,-2.14482324732133e+001,-3.90127346758944e+000

1.16317801385624e+005,-2.14484222226969e+001,-3.95569534724017e+000

1.17941537383287e+005,-2.14486172936022e+001,-4.01087532442559e+000

1.19587939890794e+005,-2.14488178347881e+001,-4.06682391401740e+000

1.21257325320831e+005,-2.14490239992559e+001,-4.12355177481504e+000

1.22950014503040e+005,-2.14492359442638e+001,-4.18106971143402e+000

1.24666332745679e+005,-2.14494538314439e+001,-4.23938867621746e+000

1.26406609898139e+005,-2.14496778269228e+001,-4.29851977116826e+000

1.28171180414339e+005,-2.14499081014447e+001,-4.35847424990370e+000

1.29960383416997e+005,-2.14501448304985e+001,-4.41926351963041e+000

1.31774562762811e+005,-2.14503881944481e+001,-4.48089914314244e+000

1.33614067108538e+005,-2.14506383786662e+001,-4.54339284084030e+000

1.35479249978003e+005,-2.14508955736713e+001,-4.60675649277234e+000

1.37370469830040e+005,-2.14511599752689e+001,-4.67100214069800e+000

1.39288090127379e+005,-2.14514317846965e+001,-4.73614199017208e+000

1.41232479406504e+005,-2.14517112087717e+001,-4.80218841265318e+000

1.43204011348474e+005,-2.14519984600452e+001,-4.86915394763145e+000

1.45203064850745e+005,-2.14522937569571e+001,-4.93705130478095e+000

1.47230024099979e+005,-2.14525973239977e+001,-5.00589336613190e+000

1.49285278645888e+005,-2.14529093918727e+001,-5.07569318826645e+000

1.51369223476094e+005,-2.14532301976722e+001,-5.14646400453574e+000

1.53482259092041e+005,-2.14535599850448e+001,-5.21821922729922e+000

1.55624791585964e+005,-2.14538990043761e+001,-5.29097245018480e+000

1.57797232718936e+005,-2.14542475129712e+001,-5.36473745037312e+000

1.59999999999999e+005,-2.14546057752430e+001,-5.43952819090112e+000

1.62233516766403e+005,-2.14549740629052e+001,-5.51535882298853e+000

1.64498212264969e+005,-2.14553526551694e+001,-5.59224368838617e+000

1.66794521734578e+005,-2.14557418389486e+001,-5.67019732174447e+000

1.69122886489819e+005,-2.14561419090654e+001,-5.74923445300399e+000

1.71483754005805e+005,-2.14565531684653e+001,-5.82937000980722e+000

1.73877578004168e+005,-2.14569759284362e+001,-5.91061911993113e+000

1.76304818540256e+005,-2.14574105088328e+001,-5.99299711373953e+000

1.78765942091554e+005,-2.14578572383078e+001,-6.07651952665697e+000

1.81261421647326e+005,-2.14583164545475e+001,-6.16120210166295e+000

1.83791736799524e+005,-2.14587885045153e+001,-6.24706079180448e+000

1.86357373834951e+005,-2.14592737446998e+001,-6.33411176272981e+000

1.88958825828723e+005,-2.14597725413702e+001,-6.42237139524114e+000

1.91596592739027e+005,-2.14602852708375e+001,-6.51185628786580e+000

1.94271181503206e+005,-2.14608123197231e+001,-6.60258325944553e+000

1.96983106135185e+005,-2.14613540852336e+001,-6.69456935174583e+000

1.99732887824256e+005,-2.14619109754423e+001,-6.78783183208057e+000

2.02521055035243e+005,-2.14624834095786e+001,-6.88238819595545e+000

2.05348143610063e+005,-2.14630718183239e+001,-6.97825616972757e+000

2.08214696870707e+005,-2.14636766441152e+001,-7.07545371328140e+000

2.11121265723661e+005,-2.14642983414559e+001,-7.17399902271978e+000

2.14068408765776e+005,-2.14649373772348e+001,-7.27391053307104e+000

2.17056692391625e+005,-2.14655942310526e+001,-7.37520692100924e+000

2.20086690902357e+005,-2.14662693955566e+001,-7.47790710758872e+000

2.23158986616063e+005,-2.14669633767830e+001,-7.58203026099176e+000

2.26274169979693e+005,-2.14676766945087e+001,-7.68759579928802e+000

2.29432839682530e+005,-2.14684098826103e+001,-7.79462339320565e+000

2.32635602771247e+005,-2.14691634894329e+001,-7.90313296891233e+000

2.35883074766574e+005,-2.14699380781666e+001,-8.01314471080736e+000

2.39175879781588e+005,-2.14707342272334e+001,-8.12467906432057e+000

2.42514650641661e+005,-2.14715525306821e+001,-8.23775673872025e+000

2.45900029006080e+005,-2.14723935985929e+001,-8.35239870992790e+000

2.49332665491357e+005,-2.14732580574921e+001,-8.46862622333703e+000

2.52813219796278e+005,-2.14741465507754e+001,-8.58646079663847e+000

2.56342360828676e+005,-2.14750597391424e+001,-8.70592422264710e+000

2.59920766833993e+005,-2.14759983010397e+001,-8.82703857213191e+000

2.63549125525621e+005,-2.14769629331158e+001,-8.94982619664569e+000

2.67228134217075e+005,-2.14779543506851e+001,-9.07430973135509e+000

2.70958499956006e+005,-2.14789732882028e+001,-9.20051209786730e+000

2.74740939660078e+005,-2.14800204997512e+001,-9.32845650705463e+000

2.78576180254757e+005,-2.14810967595361e+001,-9.45816646187225e+000

2.82464958813007e+005,-2.14822028623948e+001,-9.58966576017054e+000

2.86408022696948e+005,-2.14833396243147e+001,-9.72297849749843e+000

2.90406129701488e+005,-2.14845078829645e+001,-9.85812906989589e+000

2.94460048199957e+005,-2.14857084982353e+001,-9.99514217667562e+000

2.98570557291775e+005,-2.14869423527955e+001,-1.01340428231895e+001

3.02738446952187e+005,-2.14882103526556e+001,-1.02748563235800e+001

3.06964518184081e+005,-2.14895134277461e+001,-1.04176083035130e+001

3.11249583171928e+005,-2.14908525325080e+001,-1.05623247028907e+001

3.15594465437872e+005,-2.14922286464944e+001,-1.07090317785423e+001

3.19999999999997e+005,-2.14936427749857e+001,-1.08577561068899e+001

3.24467033532806e+005,-2.14950959496171e+001,-1.10085245865872e+001

3.28996424529938e+005,-2.14965892290184e+001,-1.11613644411290e+001

3.33589043469155e+005,-2.14981236994674e+001,-1.13163032214289e+001

3.38245772979638e+005,-2.14997004755563e+001,-1.14733688083617e+001

3.42967508011610e+005,-2.15013207008701e+001,-1.16325894152694e+001

3.47755156008335e+005,-2.15029855486800e+001,-1.17939935904258e+001

3.52609637080511e+005,-2.15046962226486e+001,-1.19576102194593e+001

3.57531884183106e+005,-2.15064539575495e+001,-1.21234685277293e+001

3.62522843294651e+005,-2.15082600199998e+001,-1.22915980826528e+001

3.67583473599047e+005,-2.15101157092064e+001,-1.24620287959800e+001

3.72714747669902e+005,-2.15120223577265e+001,-1.26347909260132e+001

3.77917651657445e+005,-2.15139813322404e+001,-1.28099150797675e+001

3.83193185478053e+005,-2.15159940343396e+001,-1.29874322150691e+001

3.88542363006410e+005,-2.15180619013275e+001,-1.31673736425877e+001

3.93966212270369e+005,-2.15201864070347e+001,-1.33497710277986e+001

3.99465775648511e+005,-2.15223690626473e+001,-1.35346563928733e+001

4.05042110070485e+005,-2.15246114175494e+001,-1.37220621184912e+001

4.10696287220124e+005,-2.15269150601795e+001,-1.39120209455711e+001

4.16429393741414e+005,-2.15292816189002e+001,-1.41045659769174e+001

4.22242531447321e+005,-2.15317127628815e+001,-1.42997306787777e+001

4.28136817531551e+005,-2.15342102029981e+001,-1.44975488823053e+001

4.34113384783250e+005,-2.15367756927394e+001,-1.46980547849263e+001

4.40173381804713e+005,-2.15394110291338e+001,-1.49012829516020e+001

4.46317973232124e+005,-2.15421180536851e+001,-1.51072683159868e+001

4.52548339959385e+005,-2.15448986533230e+001,-1.53160461814727e+001

4.58865679365059e+005,-2.15477547613654e+001,-1.55276522221194e+001

4.65271205542494e+005,-2.15506883584941e+001,-1.57421224834624e+001

4.71766149533147e+005,-2.15537014737428e+001,-1.59594933831959e+001

4.78351759563174e+005,-2.15567961854968e+001,-1.61798017117246e+001

4.85029301283321e+005,-2.15599746225051e+001,-1.64030846325795e+001

4.91800058012158e+005,-2.15632389649039e+001,-1.66293796826932e+001

4.98665330982714e+005,-2.15665914452514e+001,-1.68587247725282e+001

5.05626439592555e+005,-2.15700343495730e+001,-1.70911581860539e+001

5.12684721657352e+005,-2.15735700184181e+001,-1.73267185805662e+001

5.19841533667984e+005,-2.15772008479257e+001,-1.75654449863448e+001

5.27098251051240e+005,-2.15809292909004e+001,-1.78073768061421e+001

5.34456268434150e+005,-2.15847578578972e+001,-1.80525538144979e+001

5.41916999912011e+005,-2.15886891183154e+001,-1.83010161568751e+001

