Freq.,VOut,OutRef

1.00000000000000e+004,-8.04013282639905e+000,-7.27535745974438e-002

1.01395947979003e+004,-8.04013282179494e+000,-7.37691751420139e-002

1.02811382665607e+004,-8.04013281706153e+000,-7.47989528762136e-002

1.04246576084112e+004,-8.04013281219472e+000,-7.58431057067367e-002

1.05701804056138e+004,-8.04013280719129e+000,-7.69018342955209e-002

1.07177346253629e+004,-8.04013280204684e+000,-7.79753421137784e-002

1.08673486252606e+004,-8.04013279675767e+000,-7.90638354668707e-002

1.10190511587661e+004,-8.04013279131968e+000,-8.01675235418222e-002

1.11728713807222e+004,-8.04013278572879e+000,-8.12866184452055e-002

1.13288388529580e+004,-8.04013277998035e+000,-8.24213352469654e-002

1.14869835499703e+004,-8.04013277407024e+000,-8.35718920150058e-002

1.16473358646846e+004,-8.04013276799391e+000,-8.47385098631300e-002

1.18099266142953e+004,-8.04013276174653e+000,-8.59214129927746e-002

1.19747870461893e+004,-8.04013275532355e+000,-8.71208287321348e-002

1.21419488439505e+004,-8.04013274871954e+000,-8.83369875872562e-002

1.23114441334492e+004,-8.04013274192980e+000,-8.95701232765892e-002

1.24833054890161e+004,-8.04013273494879e+000,-9.08204727849989e-002

1.26575659397028e+004,-8.04013272777142e+000,-9.20882764014408e-002

1.28342589756290e+004,-8.04013272039212e+000,-9.33737777718648e-002

1.30134185544193e+004,-8.04013271280503e+000,-9.46772239432960e-002

1.31950791077289e+004,-8.04013270500452e+000,-9.59988654085363e-002

1.33792755478611e+004,-8.04013269698446e+000,-9.73389561599074e-002

1.35660432744767e+004,-8.04013268873841e+000,-9.86977537350725e-002

1.37554181813974e+004,-8.04013268026041e+000,-1.00075519262751e-001

1.39474366635040e+004,-8.04013267154372e+000,-1.01472517520777e-001

1.41421356237309e+004,-8.04013266258153e+000,-1.02889016981542e-001

1.43395524801583e+004,-8.04013265336729e+000,-1.04325289862163e-001

1.45397251732031e+004,-8.04013264389334e+000,-1.05781612185520e-001

1.47426921729110e+004,-8.04013263415286e+000,-1.07258263820509e-001

1.49484924863494e+004,-8.04013262413805e+000,-1.08755528547439e-001

1.51571656651040e+004,-8.04013261384124e+000,-1.10273694105872e-001

1.53687518128801e+004,-8.04013260325452e+000,-1.11813052251175e-001

1.55832915932100e+004,-8.04013259236956e+000,-1.13373898812961e-001

1.58008262372675e+004,-8.04013258117829e+000,-1.14956533746517e-001

1.60213975517924e+004,-8.04013256967150e+000,-1.16561261199999e-001

1.62450479271247e+004,-8.04013255784099e+000,-1.18188389558822e-001

1.64718203453514e+004,-8.04013254567708e+000,-1.19838231520683e-001

1.67017583885674e+004,-8.04013253317051e+000,-1.21511104143251e-001

1.69349062472505e+004,-8.04013252031189e+000,-1.23207328909416e-001

1.71713087287550e+004,-8.04013250709085e+000,-1.24927231793555e-001

1.74110112659224e+004,-8.04013249349730e+000,-1.26671143316012e-001

1.76540599258131e+004,-8.04013247952099e+000,-1.28439398610296e-001

1.79005014185594e+004,-8.04013246515088e+000,-1.30232337490445e-001

1.81503831063432e+004,-8.04013245037569e+000,-1.32050304512750e-001

1.84037530124975e+004,-8.04013243518422e+000,-1.33893649041170e-001

1.86606598307361e+004,-8.04013241956477e+000,-1.35762725316223e-001

1.89211529345119e+004,-8.04013240350498e+000,-1.37657892525094e-001

1.91852823865052e+004,-8.04013238699278e+000,-1.39579514864337e-001

1.94530989482457e+004,-8.04013237001504e+000,-1.41527961618276e-001

1.97246540898671e+004,-8.04013235255864e+000,-1.43503607223410e-001

1.99999999999999e+004,-8.04013233461040e+000,-1.45506831339879e-001

2.02791895958005e+004,-8.04013231615596e+000,-1.47538018932422e-001

2.05622765331213e+004,-8.04013229718126e+000,-1.49597560333648e-001

2.08493152168224e+004,-8.04013227767170e+000,-1.51685851326202e-001

2.11403608112276e+004,-8.04013225761181e+000,-1.53803293218408e-001

2.14354692507258e+004,-8.04013223698626e+000,-1.55950292916715e-001

2.17346972505211e+004,-8.04013221577894e+000,-1.58127263008778e-001

2.20381023175322e+004,-8.04013219397361e+000,-1.60334621838385e-001

2.23457427614443e+004,-8.04013217155314e+000,-1.62572793591177e-001

2.26576777059159e+004,-8.04013214850017e+000,-1.64842208371304e-001

2.29739670999406e+004,-8.04013212479676e+000,-1.67143302286201e-001

2.32946717293690e+004,-8.04013210042452e+000,-1.69476517529546e-001

2.36198532285905e+004,-8.04013207536444e+000,-1.71842302467267e-001

2.39495740923785e+004,-8.04013204959723e+000,-1.74241111721036e-001

2.42838976879009e+004,-8.04013202310269e+000,-1.76673406259954e-001

2.46228882668982e+004,-8.04013199586019e+000,-1.79139653485172e-001

2.49666109780322e+004,-8.04013196784870e+000,-1.81640327320322e-001

2.53151318794055e+004,-8.04013193904630e+000,-1.84175908304595e-001

2.56685179512580e+004,-8.04013190943038e+000,-1.86746883684315e-001

2.60268371088386e+004,-8.04013187897823e+000,-1.89353747502310e-001

2.63901582154578e+004,-8.04013184766595e+000,-1.91997000699078e-001

2.67585510957221e+004,-8.04013181546901e+000,-1.94677151206533e-001

2.71320865489533e+004,-8.04013178236247e+000,-1.97394714042866e-001

2.75108363627948e+004,-8.04013174832047e+000,-2.00150211414738e-001

2.78948733270080e+004,-8.04013171331645e+000,-2.02944172816762e-001

2.82842712474618e+004,-8.04013167732290e+000,-2.05777135133236e-001

2.86791049603164e+004,-8.04013164031196e+000,-2.08649642738577e-001

2.90794503464061e+004,-8.04013160225463e+000,-2.11562247605889e-001

2.94853843458219e+004,-8.04013156312101e+000,-2.14515509411467e-001

2.98969849726987e+004,-8.04013152288069e+000,-2.17509995639928e-001

3.03143313302078e+004,-8.04013148150205e+000,-2.20546281696211e-001

3.07375036257601e+004,-8.04013143895271e+000,-2.23624951014810e-001

3.11665831864199e+004,-8.04013139519930e+000,-2.26746595171264e-001

3.16016524745350e+004,-8.04013135020769e+000,-2.29911813995487e-001

3.20427951035848e+004,-8.04013130394237e+000,-2.33121215689729e-001

3.24900958542493e+004,-8.04013125636718e+000,-2.36375416940565e-001

3.29436406907028e+004,-8.04013120744473e+000,-2.39675043041040e-001

3.34035167771346e+004,-8.04013115713667e+000,-2.43020728008468e-001

3.38698124945009e+004,-8.04013110540346e+000,-2.46413114707707e-001

3.43426174575100e+004,-8.04013105220410e+000,-2.49852854975039e-001

3.48220225318448e+004,-8.04013099749712e+000,-2.53340609738671e-001

3.53081198516260e+004,-8.04013094123934e+000,-2.56877049150364e-001

3.58010028371187e+004,-8.04013088338626e+000,-2.60462852713746e-001

3.63007662126863e+004,-8.04013082389245e+000,-2.64098709411111e-001

3.68075060249948e+004,-8.04013076271081e+000,-2.67785317839244e-001

3.73213196614721e+004,-8.04013069979304e+000,-2.71523386341454e-001

3.78423058690237e+004,-8.04013063508958e+000,-2.75313633142782e-001

3.83705647730104e+004,-8.04013056854921e+000,-2.79156786489827e-001

3.89061978964912e+004,-8.04013050011905e+000,-2.83053584791032e-001

3.94493081797342e+004,-8.04013042974517e+000,-2.87004776753077e-001

3.99999999999998e+004,-8.04013035737175e+000,-2.91011121530130e-001

4.05583791916010e+004,-8.04013028294115e+000,-2.95073388868304e-001

4.11245530662425e+004,-8.04013020639452e+000,-2.99192359249591e-001

4.16986304336447e+004,-8.04013012767084e+000,-3.03368824046165e-001

4.22807216224550e+004,-8.04013004670764e+000,-3.07603585668368e-001

4.28709385014515e+004,-8.04012996344032e+000,-3.11897457721695e-001

4.34693945010421e+004,-8.04012987780258e+000,-3.16251265160011e-001

4.40762046350642e+004,-8.04012978972624e+000,-3.20665844444400e-001

4.46914855228886e+004,-8.04012969914062e+000,-3.25142043706635e-001

4.53153554118317e+004,-8.04012960597360e+000,-3.29680722905172e-001

4.59479341998812e+004,-8.04012951015048e+000,-3.34282753996128e-001

4.65893434587380e+004,-8.04012941159457e+000,-3.38949021096573e-001

4.72397064571810e+004,-8.04012931022674e+000,-3.43680420656343e-001

4.78991481847569e+004,-8.04012920596572e+000,-3.48477861626872e-001

4.85677953758016e+004,-8.04012909872765e+000,-3.53342265638501e-001

4.92457765337964e+004,-8.04012898842610e+000,-3.58274567175464e-001

4.99332219560642e+004,-8.04012887497240e+000,-3.63275713753132e-001

5.06302637588109e+004,-8.04012875827482e+000,-3.68346666103432e-001

5.13370359025159e+004,-8.04012863823922e+000,-3.73488398354466e-001

5.20536742176771e+004,-8.04012851476839e+000,-3.78701898220342e-001

5.27803164309155e+004,-8.04012838776237e+000,-3.83988167188285e-001

5.35171021914442e+004,-8.04012825711811e+000,-3.89348220710975e-001

5.42641730979066e+004,-8.04012812272938e+000,-3.94783088401696e-001

5.50216727255895e+004,-8.04012798448708e+000,-4.00293814227954e-001

5.57897466540159e+004,-8.04012784227836e+000,-4.05881456716724e-001

5.65685424949235e+004,-8.04012769598723e+000,-4.11547089152249e-001

5.73582099206328e+004,-8.04012754549415e+000,-4.17291799783384e-001

5.81589006928121e+004,-8.04012739067582e+000,-4.23116692031859e-001

5.89707686916437e+004,-8.04012723140544e+000,-4.29022884701059e-001

5.97939699453972e+004,-8.04012706755197e+000,-4.35011512194352e-001

6.06286626604156e+004,-8.04012689898082e+000,-4.41083724726201e-001

6.14750072515201e+004,-8.04012672555277e+000,-4.47240688548136e-001

6.23331663728396e+004,-8.04012654712485e+000,-4.53483586165584e-001

6.32033049490698e+004,-8.04012636354914e+000,-4.59813616569873e-001

6.40855902071694e+004,-8.04012617467356e+000,-4.66231995461885e-001

6.49801917084985e+004,-8.04012598034135e+000,-4.72739955486741e-001

6.58872813814055e+004,-8.04012578039055e+000,-4.79338746470818e-001

6.68070335542691e+004,-8.04012557465459e+000,-4.86029635656537e-001

6.77396249890018e+004,-8.04012536296128e+000,-4.92813907948603e-001

6.86852349150199e+004,-8.04012514513342e+000,-4.99692866155770e-001

6.96440450636895e+004,-8.04012492098814e+000,-5.06667831240714e-001

7.06162397032520e+004,-8.04012469033681e+000,-5.13740142573332e-001

7.16020056742374e+004,-8.04012445298493e+000,-5.20911158184031e-001

7.26015324253724e+004,-8.04012420873175e+000,-5.28182255025029e-001

7.36150120499896e+004,-8.04012395737032e+000,-5.35554829230892e-001

7.46426393229441e+004,-8.04012369868717e+000,-5.43030296385682e-001

7.56846117380472e+004,-8.04012343246178e+000,-5.50610091793763e-001

7.67411295460207e+004,-8.04012315846700e+000,-5.58295670750468e-001

7.78123957929823e+004,-8.04012287646806e+000,-5.66088508823499e-001

7.88986163594682e+004,-8.04012258622284e+000,-5.73990102130351e-001

7.99999999999995e+004,-8.04012228748154e+000,-5.82001967624330e-001

8.11167583832018e+004,-8.04012197998607e+000,-5.90125643384881e-001

8.22491061324848e+004,-8.04012166347033e+000,-5.98362688907547e-001

8.33972608672892e+004,-8.04012133765915e+000,-6.06714685404698e-001

8.45614432449099e+004,-8.04012100226885e+000,-6.15183236101460e-001

8.57418770029029e+004,-8.04012065700631e+000,-6.23769966544283e-001

8.69387890020841e+004,-8.04012030156864e+000,-6.32476524909990e-001

8.81524092701283e+004,-8.04011993564346e+000,-6.41304582315336e-001

8.93829710457770e+004,-8.04011955890761e+000,-6.50255833140081e-001

9.06307108236633e+004,-8.04011917102764e+000,-6.59331995343607e-001

9.18958683997622e+004,-8.04011877165884e+000,-6.68534810795260e-001

9.31786869174758e+004,-8.04011836044509e+000,-6.77866045602421e-001

9.44794129143618e+004,-8.04011793701832e+000,-6.87327490447504e-001

9.57982963695136e+004,-8.04011750099827e+000,-6.96920960925426e-001

9.71355907516031e+004,-8.04011705199176e+000,-7.06648297890813e-001

9.84915530675926e+004,-8.04011658959243e+000,-7.16511367804768e-001

9.98664439121282e+004,-8.04011611338011e+000,-7.26512063089330e-001

1.01260527517622e+005,-8.04011562292042e+000,-7.36652302486216e-001

1.02674071805032e+005,-8.04011511776418e+000,-7.46934031419866e-001

1.04107348435354e+005,-8.04011459744657e+000,-7.57359222366974e-001

1.05560632861831e+005,-8.04011406148719e+000,-7.67929875226634e-001

1.07034204382888e+005,-8.04011350938879e+000,-7.78648017702318e-001

1.08528346195813e+005,-8.04011294063709e+000,-7.89515705682461e-001

1.10043345451179e+005,-8.04011235469974e+000,-8.00535023631192e-001

1.11579493308032e+005,-8.04011175102579e+000,-8.11708084980796e-001

1.13137084989847e+005,-8.04011112904540e+000,-8.23037032529336e-001

1.14716419841265e+005,-8.04011048816807e+000,-8.34524038849734e-001

1.16317801385624e+005,-8.04010982778287e+000,-8.46171306694358e-001

1.17941537383287e+005,-8.04010914725715e+000,-8.57981069413038e-001

1.19587939890794e+005,-8.04010844593548e+000,-8.69955591374749e-001

1.21257325320831e+005,-8.04010772313927e+000,-8.82097168391330e-001

1.22950014503040e+005,-8.04010697816550e+000,-8.94408128152199e-001

1.24666332745679e+005,-8.04010621028564e+000,-9.06890830661957e-001

1.26406609898139e+005,-8.04010541874497e+000,-9.19547668682581e-001

1.28171180414339e+005,-8.04010460276124e+000,-9.32381068185345e-001

1.29960383416997e+005,-8.04010376152355e+000,-9.45393488805071e-001

1.31774562762811e+005,-8.04010289419150e+000,-9.58587424301988e-001

1.33614067108538e+005,-8.04010199989345e+000,-9.71965403030950e-001

1.35479249978003e+005,-8.04010107772560e+000,-9.85529988414280e-001

1.37370469830040e+005,-8.04010012675078e+000,-9.99283779421684e-001

1.39288090127379e+005,-8.04009914599667e+000,-1.01322941105814e+000

1.41232479406504e+005,-8.04009813445440e+000,-1.02736955485767e+000

1.43204011348474e+005,-8.04009709107737e+000,-1.04170691938076e+000

1.45203064850745e+005,-8.04009601477921e+000,-1.05624425072284e+000

1.47230024099979e+005,-8.04009490443257e+000,-1.07098433302475e+000

1.49285278645888e+005,-8.04009375886682e+000,-1.08592998899526e+000

1.51369223476094e+005,-8.04009257686666e+000,-1.10108408043541e+000

1.53482259092041e+005,-8.04009135717003e+000,-1.11644950877285e+000

1.55624791585964e+005,-8.04009009846607e+000,-1.13202921560133e+000

1.57797232718936e+005,-8.04008879939313e+000,-1.14782618322913e+000

1.59999999999999e+005,-8.04008745853642e+000,-1.16384343523305e+000

1.62233516766403e+005,-8.04008607442585e+000,-1.18008403701950e+000

1.64498212264969e+005,-8.04008464553355e+000,-1.19655109639493e+000

1.66794521734578e+005,-8.04008317027122e+000,-1.21324776414185e+000

1.69122886489819e+005,-8.04008164698787e+000,-1.23017723460080e+000

1.71483754005805e+005,-8.04008007396635e+000,-1.24734274626619e+000

1.73877578004168e+005,-8.04007844942139e+000,-1.26474758237996e+000

1.76304818540256e+005,-8.04007677149559e+000,-1.28239507154359e+000

1.78765942091554e+005,-8.04007503825698e+000,-1.30028858832876e+000

1.81261421647326e+005,-8.04007324769522e+000,-1.31843155390268e+000

1.83791736799524e+005,-8.04007139771818e+000,-1.33682743665813e+000

1.86357373834951e+005,-8.04006948614859e+000,-1.35547975285040e+000

1.88958825828723e+005,-8.04006751071969e+000,-1.37439206724686e+000

1.91596592739027e+005,-8.04006546907164e+000,-1.39356799377987e+000

1.94271181503206e+005,-8.04006335874702e+000,-1.41301119621199e+000

1.96983106135185e+005,-8.04006117718644e+000,-1.43272538880775e+000

1.99732887824256e+005,-8.04005892172408e+000,-1.45271433701289e+000

2.02521055035243e+005,-8.04005658958262e+000,-1.47298185814505e+000

2.05348143610063e+005,-8.04005417786818e+000,-1.49353182209194e+000

2.08214696870707e+005,-8.04005168356508e+000,-1.51436815201691e+000

2.11121265723661e+005,-8.04004910353002e+000,-1.53549482507663e+000

2.14068408765776e+005,-8.04004643448664e+000,-1.55691587314327e+000

2.17056692391625e+005,-8.04004367301877e+000,-1.57863538354217e+000

2.20086690902357e+005,-8.04004081556435e+000,-1.60065749979224e+000

2.23158986616063e+005,-8.04003785840869e+000,-1.62298642236047e+000

2.26274169979693e+005,-8.04003479767717e+000,-1.64562640942319e+000

2.29432839682530e+005,-8.04003162932788e+000,-1.66858177763890e+000

2.32635602771247e+005,-8.04002834914393e+000,-1.69185690292848e+000

2.35883074766574e+005,-8.04002495272510e+000,-1.71545622126802e+000

2.39175879781588e+005,-8.04002143547932e+000,-1.73938422948988e+000

2.42514650641661e+005,-8.04001779261388e+000,-1.76364548609321e+000

2.45900029006080e+005,-8.04001401912561e+000,-1.78824461206696e+000

2.49332665491357e+005,-8.04001010979156e+000,-1.81318629171997e+000

2.52813219796278e+005,-8.04000605915794e+000,-1.83847527352644e+000

2.56342360828676e+005,-8.04000186153012e+000,-1.86411637097494e+000

2.59920766833993e+005,-8.03999751096045e+000,-1.89011446343570e+000

2.63549125525621e+005,-8.03999300123696e+000,-1.91647449703286e+000

2.67228134217075e+005,-8.03998832587051e+000,-1.94320148553120e+000

2.70958499956006e+005,-8.03998347808182e+000,-1.97030051123253e+000

2.74740939660078e+005,-8.03997845078786e+000,-1.99777672588330e+000

2.78576180254757e+005,-8.03997323658752e+000,-2.02563535159363e+000

2.82464958813007e+005,-8.03996782774613e+000,-2.05388168177066e+000

2.86408022696948e+005,-8.03996221618037e+000,-2.08252108205776e+000

2.90406129701488e+005,-8.03995639344124e+000,-2.11155899129245e+000

2.94460048199957e+005,-8.03995035069700e+000,-2.14100092247110e+000

2.98570557291775e+005,-8.03994407871511e+000,-2.17085246372903e+000

3.02738446952187e+005,-8.03993756784308e+000,-2.20111927933207e+000

3.06964518184081e+005,-8.03993080798880e+000,-2.23180711068051e+000

3.11249583171928e+005,-8.03992378859974e+000,-2.26292177732626e+000

3.15594465437872e+005,-8.03991649864107e+000,-2.29446917800364e+000

3.19999999999997e+005,-8.03990892657311e+000,-2.32645529167227e+000

3.24467033532806e+005,-8.03990106032741e+000,-2.35888617857428e+000

3.28996424529938e+005,-8.03989288728178e+000,-2.39176798130571e+000

3.33589043469155e+005,-8.03988439423439e+000,-2.42510692590043e+000

3.38245772979638e+005,-8.03987556737627e+000,-2.45890932293076e+000

3.42967508011610e+005,-8.03986639226315e+000,-2.49318156861931e+000

3.47755156008335e+005,-8.03985685378534e+000,-2.52793014596961e+000

3.52609637080511e+005,-8.03984693613669e+000,-2.56316162590806e+000

3.57531884183106e+005,-8.03983662278215e+000,-2.59888266844424e+000

3.62522843294651e+005,-8.03982589642353e+000,-2.63510002384533e+000

3.67583473599047e+005,-8.03981473896432e+000,-2.67182053382633e+000

3.72714747669902e+005,-8.03980313147202e+000,-2.70905113275979e+000

3.77917651657445e+005,-8.03979105414000e+000,-2.74679884889725e+000

3.83193185478053e+005,-8.03977848624650e+000,-2.78507080561321e+000

3.88542363006410e+005,-8.03976540611279e+000,-2.82387422266247e+000

3.93966212270369e+005,-8.03975179105889e+000,-2.86321641745808e+000

3.99465775648511e+005,-8.03973761735764e+000,-2.90310480636679e+000

4.05042110070485e+005,-8.03972286018688e+000,-2.94354690602369e+000

4.10696287220124e+005,-8.03970749357917e+000,-2.98455033466654e+000

4.16429393741414e+005,-8.03969149037007e+000,-3.02612281348868e+000

4.22242531447321e+005,-8.03967482214341e+000,-3.06827216801518e+000

4.28136817531551e+005,-8.03965745917530e+000,-3.11100632949617e+000

4.34113384783250e+005,-8.03963937037462e+000,-3.15433333632624e+000

4.40173381804713e+005,-8.03962052322209e+000,-3.19826133548244e+000

4.46317973232124e+005,-8.03960088370634e+000,-3.24279858398673e+000

4.52548339959385e+005,-8.03958041625764e+000,-3.28795345039186e+000

4.58865679365059e+005,-8.03955908367868e+000,-3.33373441629198e+000

4.65271205542494e+005,-8.03953684707285e+000,-3.38015007785748e+000

4.71766149533147e+005,-8.03951366576984e+000,-3.42720914739495e+000

4.78351759563174e+005,-8.03948949724790e+000,-3.47492045493595e+000

4.85029301283321e+005,-8.03946429705355e+000,-3.52329294985122e+000

4.91800058012158e+005,-8.03943801871806e+000,-3.57233570249340e+000

4.98665330982714e+005,-8.03941061367062e+000,-3.62205790587019e+000

5.05626439592555e+005,-8.03938203114873e+000,-3.67246887734568e+000

5.12684721657352e+005,-8.03935221810504e+000,-3.72357806037394e+000

5.19841533667984e+005,-8.03932111911050e+000,-3.77539502626535e+000

5.27098251051240e+005,-8.03928867625467e+000,-3.82792947598463e+000

5.34456268434150e+005,-8.03925482904222e+000,-3.88119124198319e+000

5.41916999912011e+005,-8.03921951428560e+000,-3.93519029006882e+000

