Freq.,VOut,OutRef

1.00000000000000e+004,-8.39011537666979e+000,-6.87265734320443e-002

1.01395947979003e+004,-8.39011537876102e+000,-6.96859591029821e-002

1.02811382665607e+004,-8.39011538091107e+000,-7.06587372326230e-002

1.04246576084112e+004,-8.39011538312130e+000,-7.16450947717099e-002

1.05701804056138e+004,-8.39011538539371e+000,-7.26452212767118e-002

1.07177346253629e+004,-8.39011538772992e+000,-7.36593089532135e-002

1.08673486252606e+004,-8.39011539013162e+000,-7.46875526890599e-002

1.10190511587661e+004,-8.39011539260068e+000,-7.57301500925007e-002

1.11728713807222e+004,-8.39011539513922e+000,-7.67873015277220e-002

1.13288388529580e+004,-8.39011539774870e+000,-7.78592101615857e-002

1.14869835499703e+004,-8.39011540043153e+000,-7.89460819900170e-002

1.16473358646846e+004,-8.39011540318973e+000,-8.00481258879779e-002

1.18099266142953e+004,-8.39011540602519e+000,-8.11655536469434e-002

1.19747870461893e+004,-8.39011540894019e+000,-8.22985800127298e-002

1.21419488439505e+004,-8.39011541193716e+000,-8.34474227278975e-002

1.23114441334492e+004,-8.39011541501792e+000,-8.46123025790694e-002

1.24833054890161e+004,-8.39011541818526e+000,-8.57934434288662e-002

1.26575659397028e+004,-8.39011542144132e+000,-8.69910722689595e-002

1.28342589756290e+004,-8.39011542478865e+000,-8.82054192574967e-002

1.30134185544193e+004,-8.39011542823001e+000,-8.94367177645355e-002

1.31950791077289e+004,-8.39011543176803e+000,-9.06852044186422e-002

1.33792755478611e+004,-8.39011543540487e+000,-9.19511191551535e-002

1.35660432744767e+004,-8.39011543914388e+000,-9.32347052510951e-002

1.37554181813974e+004,-8.39011544298764e+000,-9.45362093847715e-002

1.39474366635040e+004,-8.39011544693929e+000,-9.58558816748717e-002

1.41421356237309e+004,-8.39011545100150e+000,-9.71939757343109e-002

1.43395524801583e+004,-8.39011545517766e+000,-9.85507487125265e-002

1.45397251732031e+004,-8.39011545947094e+000,-9.99264613500307e-002

1.47426921729110e+004,-8.39011546388447e+000,-1.01321378027589e-001

1.49484924863494e+004,-8.39011546842159e+000,-1.02735766815646e-001

1.51571656651040e+004,-8.39011547308607e+000,-1.04169899523964e-001

1.53687518128801e+004,-8.39011547788088e+000,-1.05624051762392e-001

1.55832915932100e+004,-8.39011548281027e+000,-1.07098502979857e-001

1.58008262372675e+004,-8.39011548787751e+000,-1.08593536532786e-001

1.60213975517924e+004,-8.39011549308686e+000,-1.10109439727640e-001

1.62450479271247e+004,-8.39011549844207e+000,-1.11646503884334e-001

1.64718203453514e+004,-8.39011550394716e+000,-1.13205024388006e-001

1.67017583885674e+004,-8.39011550960635e+000,-1.14785300746882e-001

1.69349062472505e+004,-8.39011551542393e+000,-1.16387636649099e-001

1.71713087287550e+004,-8.39011552140455e+000,-1.18012340020703e-001

1.74110112659224e+004,-8.39011552755239e+000,-1.19659723089093e-001

1.76540599258131e+004,-8.39011553387217e+000,-1.21330102437476e-001

1.79005014185594e+004,-8.39011554036903e+000,-1.23023799065196e-001

1.81503831063432e+004,-8.39011554704751e+000,-1.24741138457517e-001

1.84037530124975e+004,-8.39011555391270e+000,-1.26482450639513e-001

1.86606598307361e+004,-8.39011556097015e+000,-1.28248070240695e-001

1.89211529345119e+004,-8.39011556822465e+000,-1.30038336566754e-001

1.91852823865052e+004,-8.39011557568211e+000,-1.31853593653242e-001

1.94530989482457e+004,-8.39011558334819e+000,-1.33694190339949e-001

1.97246540898671e+004,-8.39011559122843e+000,-1.35560480337358e-001

1.99999999999999e+004,-8.39011559932876e+000,-1.37452822291272e-001

2.02791895958005e+004,-8.39011560765548e+000,-1.39371579851664e-001

2.05622765331213e+004,-8.39011561621496e+000,-1.41317121744810e-001

2.08493152168224e+004,-8.39011562501336e+000,-1.43289821845732e-001

2.11403608112276e+004,-8.39011563405754e+000,-1.45290059244435e-001

2.14354692507258e+004,-8.39011564335430e+000,-1.47318218322935e-001

2.17346972505211e+004,-8.39011565291060e+000,-1.49374688828613e-001

2.20381023175322e+004,-8.39011566273353e+000,-1.51459865948728e-001

2.23457427614443e+004,-8.39011567283050e+000,-1.53574150384963e-001

2.26576777059159e+004,-8.39011568320920e+000,-1.55717948431206e-001

2.29739670999406e+004,-8.39011569387741e+000,-1.57891672052509e-001

2.32946717293690e+004,-8.39011570484316e+000,-1.60095738963122e-001

2.36198532285905e+004,-8.39011571611452e+000,-1.62330572708291e-001

2.39495740923785e+004,-8.39011572770014e+000,-1.64596602742080e-001

2.42838976879009e+004,-8.39011573960856e+000,-1.66894264514222e-001

2.46228882668982e+004,-8.39011575184860e+000,-1.69223999551252e-001

2.49666109780322e+004,-8.39011576442972e+000,-1.71586255539284e-001

2.53151318794055e+004,-8.39011577736105e+000,-1.73981486415622e-001

2.56685179512580e+004,-8.39011579065252e+000,-1.76410152449461e-001

2.60268371088386e+004,-8.39011580431361e+000,-1.78872720337732e-001

2.63901582154578e+004,-8.39011581835490e+000,-1.81369663285186e-001

2.67585510957221e+004,-8.39011583278681e+000,-1.83901461102951e-001

2.71320865489533e+004,-8.39011584761986e+000,-1.86468600299271e-001

2.75108363627948e+004,-8.39011586286520e+000,-1.89071574169801e-001

2.78948733270080e+004,-8.39011587853402e+000,-1.91710882895373e-001

2.82842712474618e+004,-8.39011589463828e+000,-1.94387033634209e-001

2.86791049603164e+004,-8.39011591118948e+000,-1.97100540626287e-001

2.90794503464061e+004,-8.39011592820026e+000,-1.99851925283284e-001

2.94853843458219e+004,-8.39011594568301e+000,-2.02641716295763e-001

2.98969849726987e+004,-8.39011596365069e+000,-2.05470449730473e-001

3.03143313302078e+004,-8.39011598211645e+000,-2.08338669136323e-001

3.07375036257601e+004,-8.39011600109402e+000,-2.11246925644653e-001

3.11665831864199e+004,-8.39011602059728e+000,-2.14195778079096e-001

3.16016524745350e+004,-8.39011604064066e+000,-2.17185793059831e-001

3.20427951035848e+004,-8.39011606123881e+000,-2.20217545114033e-001

3.24900958542493e+004,-8.39011608240685e+000,-2.23291616785736e-001

3.29436406907028e+004,-8.39011610416027e+000,-2.26408598747457e-001

3.34035167771346e+004,-8.39011612651503e+000,-2.29569089912634e-001

3.38698124945009e+004,-8.39011614948732e+000,-2.32773697552608e-001

3.43426174575100e+004,-8.39011617309401e+000,-2.36023037410768e-001

3.48220225318448e+004,-8.39011619735215e+000,-2.39317733822751e-001

3.53081198516260e+004,-8.39011622227954e+000,-2.42658419834105e-001

3.58010028371187e+004,-8.39011624789416e+000,-2.46045737323390e-001

3.63007662126863e+004,-8.39011627421451e+000,-2.49480337125298e-001

3.68075060249948e+004,-8.39011630125975e+000,-2.52962879153454e-001

3.73213196614721e+004,-8.39011632904928e+000,-2.56494032529818e-001

3.78423058690237e+004,-8.39011635760305e+000,-2.60074475711243e-001

3.83705647730104e+004,-8.39011638694178e+000,-2.63704896618494e-001

3.89061978964912e+004,-8.39011641708641e+000,-2.67385992771098e-001

3.94493081797342e+004,-8.39011644805850e+000,-2.71118471418985e-001

3.99999999999998e+004,-8.39011647988012e+000,-2.74903049678733e-001

4.05583791916010e+004,-8.39011651257427e+000,-2.78740454668999e-001

4.11245530662425e+004,-8.39011654616376e+000,-2.82631423655923e-001

4.16986304336447e+004,-8.39011658067260e+000,-2.86576704186467e-001

4.22807216224550e+004,-8.39011661612536e+000,-2.90577054236179e-001

4.28709385014515e+004,-8.39011665254686e+000,-2.94633242355282e-001

4.34693945010421e+004,-8.39011668996293e+000,-2.98746047812192e-001

4.40762046350642e+004,-8.39011672839977e+000,-3.02916260747062e-001

4.46914855228886e+004,-8.39011676788423e+000,-3.07144682320502e-001

4.53153554118317e+004,-8.39011680844396e+000,-3.11432124866939e-001

4.59479341998812e+004,-8.39011685010714e+000,-3.15779412052017e-001

4.65893434587380e+004,-8.39011689290293e+000,-3.20187379027081e-001

4.72397064571810e+004,-8.39011693686063e+000,-3.24656872595220e-001

4.78991481847569e+004,-8.39011698201086e+000,-3.29188751365288e-001

4.85677953758016e+004,-8.39011702838447e+000,-3.33783885923747e-001

4.92457765337964e+004,-8.39011707601335e+000,-3.38443158996267e-001

4.99332219560642e+004,-8.39011712492996e+000,-3.43167465619867e-001

5.06302637588109e+004,-8.39011717516756e+000,-3.47957713312043e-001

5.13370359025159e+004,-8.39011722676030e+000,-3.52814822245313e-001

5.20536742176771e+004,-8.39011727974297e+000,-3.57739725423712e-001

5.27803164309155e+004,-8.39011733415126e+000,-3.62733368861001e-001

5.35171021914442e+004,-8.39011739002152e+000,-3.67796711761963e-001

5.42641730979066e+004,-8.39011744739106e+000,-3.72930726704519e-001

5.50216727255895e+004,-8.39011750629790e+000,-3.78136399828425e-001

5.57897466540159e+004,-8.39011756678106e+000,-3.83414731020230e-001

5.65685424949235e+004,-8.39011762888017e+000,-3.88766734108438e-001

5.73582099206328e+004,-8.39011769263601e+000,-3.94193437054186e-001

5.81589006928121e+004,-8.39011775808997e+000,-3.99695882149633e-001

5.89707686916437e+004,-8.39011782528442e+000,-4.05275126216549e-001

5.97939699453972e+004,-8.39011789426270e+000,-4.10932240807361e-001

6.06286626604156e+004,-8.39011796506899e+000,-4.16668312411635e-001

6.14750072515201e+004,-8.39011803774835e+000,-4.22484442662665e-001

6.23331663728396e+004,-8.39011811234663e+000,-4.28381748548815e-001

6.32033049490698e+004,-8.39011818891074e+000,-4.34361362625442e-001

6.40855902071694e+004,-8.39011826748860e+000,-4.40424433231180e-001

6.49801917084985e+004,-8.39011834812884e+000,-4.46572124709163e-001

6.58872813814055e+004,-8.39011843088105e+000,-4.52805617627673e-001

6.68070335542691e+004,-8.39011851579584e+000,-4.59126109005251e-001

6.77396249890018e+004,-8.39011860292472e+000,-4.65534812539994e-001

6.86852349150199e+004,-8.39011869231993e+000,-4.72032958841538e-001

6.96440450636895e+004,-8.39011878403501e+000,-4.78621795662988e-001

7.06162397032520e+004,-8.39011887812409e+000,-4.85302588142455e-001

7.16020056742374e+004,-8.39011897464215e+000,-4.92076619043262e-001

7.26015324253724e+004,-8.39011907364538e+000,-4.98945188996043e-001

7.36150120499896e+004,-8.39011917519060e+000,-5.05909616749898e-001

7.46426393229441e+004,-8.39011927933553e+000,-5.12971239421884e-001

7.56846117380472e+004,-8.39011938613882e+000,-5.20131412751667e-001

7.67411295460207e+004,-8.39011949565983e+000,-5.27391511360977e-001

7.78123957929823e+004,-8.39011960795872e+000,-5.34752929014356e-001

7.88986163594682e+004,-8.39011972309663e+000,-5.42217078883287e-001

7.99999999999995e+004,-8.39011984113524e+000,-5.49785393817765e-001

8.11167583832018e+004,-8.39011996213698e+000,-5.57459326617341e-001

8.22491061324848e+004,-8.39012008616501e+000,-5.65240350307254e-001

8.33972608672892e+004,-8.39012021328306e+000,-5.73129958419511e-001

8.45614432449099e+004,-8.39012034355545e+000,-5.81129665275465e-001

8.57418770029029e+004,-8.39012047704696e+000,-5.89241006275657e-001

8.69387890020841e+004,-8.39012061382320e+000,-5.97465538187226e-001

8.81524092701283e+004,-8.39012075394964e+000,-6.05804839446539e-001

8.93829710457770e+004,-8.39012089749259e+000,-6.14260510451076e-001

9.06307108236633e+004,-8.39012104451831e+000,-6.22834173869249e-001

9.18958683997622e+004,-8.39012119509340e+000,-6.31527474944933e-001

9.31786869174758e+004,-8.39012134928446e+000,-6.40342081810865e-001

9.44794129143618e+004,-8.39012150715822e+000,-6.49279685803679e-001

9.57982963695136e+004,-8.39012166878113e+000,-6.58342001786800e-001

9.71355907516031e+004,-8.39012183421955e+000,-6.67530768472626e-001

9.84915530675926e+004,-8.39012200353949e+000,-6.76847748752734e-001

9.98664439121282e+004,-8.39012217680641e+000,-6.86294730033141e-001

1.01260527517622e+005,-8.39012235408515e+000,-6.95873524570229e-001

1.02674071805032e+005,-8.39012253543993e+000,-7.05585969814362e-001

1.04107348435354e+005,-8.39012272093376e+000,-7.15433928758496e-001

1.05560632861831e+005,-8.39012291062877e+000,-7.25419290288061e-001

1.07034204382888e+005,-8.39012310458554e+000,-7.35543969540219e-001

1.08528346195813e+005,-8.39012330286331e+000,-7.45809908262817e-001

1.10043345451179e+005,-8.39012350551948e+000,-7.56219075183019e-001

1.11579493308032e+005,-8.39012371260931e+000,-7.66773466378294e-001

1.13137084989847e+005,-8.39012392418613e+000,-7.77475105651070e-001

1.14716419841265e+005,-8.39012414030039e+000,-7.88326044912883e-001

1.16317801385624e+005,-8.39012436100001e+000,-7.99328364567422e-001

1.17941537383287e+005,-8.39012458632946e+000,-8.10484173906631e-001

1.19587939890794e+005,-8.39012481633002e+000,-8.21795611502652e-001

1.21257325320831e+005,-8.39012505103875e+000,-8.33264845614662e-001

1.22950014503040e+005,-8.39012529048878e+000,-8.44894074592390e-001

1.24666332745679e+005,-8.39012553470850e+000,-8.56685527291083e-001

1.26406609898139e+005,-8.39012578372113e+000,-8.68641463490141e-001

1.28171180414339e+005,-8.39012603754435e+000,-8.80764174315844e-001

1.29960383416997e+005,-8.39012629618982e+000,-8.93055982671700e-001

1.31774562762811e+005,-8.39012655966243e+000,-9.05519243674301e-001

1.33614067108538e+005,-8.39012682795996e+000,-9.18156345092937e-001

1.35479249978003e+005,-8.39012710107252e+000,-9.30969707796180e-001

1.37370469830040e+005,-8.39012737898159e+000,-9.43961786207000e-001

1.39288090127379e+005,-8.39012766165959e+000,-9.57135068758578e-001

1.41232479406504e+005,-8.39012794906902e+000,-9.70492078361083e-001

1.43204011348474e+005,-8.39012824116169e+000,-9.84035372871405e-001

1.45203064850745e+005,-8.39012853787811e+000,-9.97767545569403e-001

1.47230024099979e+005,-8.39012883914609e+000,-1.01169122564340e+000

1.49285278645888e+005,-8.39012914488038e+000,-1.02580907867709e+000

1.51369223476094e+005,-8.39012945498135e+000,-1.04012380714664e+000

1.53482259092041e+005,-8.39012976933388e+000,-1.05463815092348e+000

1.55624791585964e+005,-8.39013008780651e+000,-1.06935488778169e+000

1.57797232718936e+005,-8.39013041024998e+000,-1.08427683391505e+000

1.59999999999999e+005,-8.39013073649598e+000,-1.09940684445843e+000

1.62233516766403e+005,-8.39013106635607e+000,-1.11474781401611e+000

1.64498212264969e+005,-8.39013139961981e+000,-1.13030267719906e+000

1.66794521734578e+005,-8.39013173605374e+000,-1.14607440916549e+000

1.69122886489819e+005,-8.39013207539930e+000,-1.16206602617319e+000

1.71483754005805e+005,-8.39013241737154e+000,-1.17828058613285e+000

1.73877578004168e+005,-8.39013276165698e+000,-1.19472118917505e+000

1.76304818540256e+005,-8.39013310791189e+000,-1.21139097821959e+000

1.78765942091554e+005,-8.39013345576027e+000,-1.22829313955398e+000

1.81261421647326e+005,-8.39013380479147e+000,-1.24543090342035e+000

1.83791736799524e+005,-8.39013415455830e+000,-1.26280754460688e+000

1.86357373834951e+005,-8.39013450457433e+000,-1.28042638304996e+000

1.88958825828723e+005,-8.39013485431136e+000,-1.29829078444221e+000

1.91596592739027e+005,-8.39013520319694e+000,-1.31640416084816e+000

1.94271181503206e+005,-8.39013555061113e+000,-1.33476997132997e+000

1.96983106135185e+005,-8.39013589588410e+000,-1.35339172257565e+000

1.99732887824256e+005,-8.39013623829214e+000,-1.37227296954351e+000

2.02521055035243e+005,-8.39013657705507e+000,-1.39141731610599e+000

2.05348143610063e+005,-8.39013691133201e+000,-1.41082841570840e+000

2.08214696870707e+005,-8.39013724021819e+000,-1.43050997203137e+000

2.11121265723661e+005,-8.39013756274058e+000,-1.45046573966466e+000

2.14068408765776e+005,-8.39013787785375e+000,-1.47069952478824e+000

2.17056692391625e+005,-8.39013818443547e+000,-1.49121518586096e+000

2.20086690902357e+005,-8.39013848128210e+000,-1.51201663431925e+000

2.23158986616063e+005,-8.39013876710351e+000,-1.53310783528391e+000

2.26274169979693e+005,-8.39013904051787e+000,-1.55449280827625e+000

2.29432839682530e+005,-8.39013930004613e+000,-1.57617562794247e+000

2.32635602771247e+005,-8.39013954410626e+000,-1.59816042478654e+000

2.35883074766574e+005,-8.39013977100701e+000,-1.62045138591432e+000

2.39175879781588e+005,-8.39013997894139e+000,-1.64305275578459e+000

2.42514650641661e+005,-8.39014016597997e+000,-1.66596883697080e+000

2.45900029006080e+005,-8.39014033006350e+000,-1.68920399093192e+000

2.49332665491357e+005,-8.39014046899535e+000,-1.71276263879232e+000

2.52813219796278e+005,-8.39014058043372e+000,-1.73664926213123e+000

2.56342360828676e+005,-8.39014066188269e+000,-1.76086840378461e+000

2.59920766833993e+005,-8.39014071068371e+000,-1.78542466865297e+000

2.63549125525621e+005,-8.39014072400618e+000,-1.81032272452119e+000

2.67228134217075e+005,-8.39014069883738e+000,-1.83556730288893e+000

2.70958499956006e+005,-8.39014063197221e+000,-1.86116319981101e+000

2.74740939660078e+005,-8.39014052000219e+000,-1.88711527674715e+000

2.78576180254757e+005,-8.39014035930377e+000,-1.91342846142426e+000

2.82464958813007e+005,-8.39014014602653e+000,-1.94010774870703e+000

2.86408022696948e+005,-8.39013987608007e+000,-1.96715820148147e+000

2.90406129701488e+005,-8.39013954512074e+000,-1.99458495154838e+000

2.94460048199957e+005,-8.39013914853739e+000,-2.02239320052855e+000

2.98570557291775e+005,-8.39013868143675e+000,-2.05058822077798e+000

3.02738446952187e+005,-8.39013813862743e+000,-2.07917535631703e+000

3.06964518184081e+005,-8.39013751460384e+000,-2.10816002376885e+000

3.11249583171928e+005,-8.39013680352868e+000,-2.13754771331093e+000

3.15594465437872e+005,-8.39013599921506e+000,-2.16734398963822e+000

3.19999999999997e+005,-8.39013509510718e+000,-2.19755449293936e+000

3.24467033532806e+005,-8.39013408426062e+000,-2.22818493988360e+000

3.28996424529938e+005,-8.39013295932108e+000,-2.25924112462311e+000

3.33589043469155e+005,-8.39013171250266e+000,-2.29072891980464e+000

3.38245772979638e+005,-8.39013033556438e+000,-2.32265427759853e+000

3.42967508011610e+005,-8.39012881978638e+000,-2.35502323073683e+000

3.47755156008335e+005,-8.39012715594411e+000,-2.38784189356870e+000

3.52609637080511e+005,-8.39012533428197e+000,-2.42111646312735e+000

3.57531884183106e+005,-8.39012334448519e+000,-2.45485322021234e+000

3.62522843294651e+005,-8.39012117565070e+000,-2.48905853048585e+000

3.67583473599047e+005,-8.39011881625641e+000,-2.52373884558483e+000

3.72714747669902e+005,-8.39011625412924e+000,-2.55890070424582e+000

3.77917651657445e+005,-8.39011347641144e+000,-2.59455073344860e+000

3.83193185478053e+005,-8.39011046952535e+000,-2.63069564957312e+000

3.88542363006410e+005,-8.39010721913681e+000,-2.66734225957426e+000

3.93966212270369e+005,-8.39010371011668e+000,-2.70449746217135e+000

3.99465775648511e+005,-8.39009992650056e+000,-2.74216824905698e+000

4.05042110070485e+005,-8.39009585144678e+000,-2.78036170612181e+000

4.10696287220124e+005,-8.39009146719249e+000,-2.81908501469823e+000

4.16429393741414e+005,-8.39008675500811e+000,-2.85834545282035e+000

4.22242531447321e+005,-8.39008169514896e+000,-2.89815039650696e+000

4.28136817531551e+005,-8.39007626680577e+000,-2.93850732105918e+000

4.34113384783250e+005,-8.39007044805238e+000,-2.97942380238180e+000

4.40173381804713e+005,-8.39006421579135e+000,-3.02090751832356e+000

4.46317973232124e+005,-8.39005754569764e+000,-3.06296625003795e+000

4.52548339959385e+005,-8.39005041215931e+000,-3.10560788336772e+000

4.58865679365059e+005,-8.39004278821606e+000,-3.14884041025107e+000

4.65271205542494e+005,-8.39003464549548e+000,-3.19267193014977e+000

4.71766149533147e+005,-8.39002595414637e+000,-3.23711065150275e+000

4.78351759563174e+005,-8.39001668276943e+000,-3.28216489320382e+000

4.85029301283321e+005,-8.39000679834533e+000,-3.32784308610482e+000

4.91800058012158e+005,-8.38999626615985e+000,-3.37415377454537e+000

4.98665330982714e+005,-8.38998504972619e+000,-3.42110561790836e+000

5.05626439592555e+005,-8.38997311070431e+000,-3.46870739220535e+000

5.12684721657352e+005,-8.38996040881710e+000,-3.51696799168999e+000

5.19841533667984e+005,-8.38994690176371e+000,-3.56589643050054e+000

5.27098251051240e+005,-8.38993254512929e+000,-3.61550184433521e+000

5.34456268434150e+005,-8.38991729229192e+000,-3.66579349215759e+000

5.41916999912011e+005,-8.38990109432579e+000,-3.71678075793663e+000

