Freq.,VOut,OutRef

1.00000000000000e+004,-1.45788434756107e+000,-7.48301703013896e-002

1.01395947979003e+004,-1.45788432535689e+000,-7.58747606759331e-002

1.02811382665607e+004,-1.45788430252848e+000,-7.69339329940690e-002

1.04246576084112e+004,-1.45788427905840e+000,-7.80078908112263e-002

1.05701804056138e+004,-1.45788425492843e+000,-7.90968405273159e-002

1.07177346253629e+004,-1.45788423012007e+000,-8.02009914206979e-002

1.08673486252606e+004,-1.45788420461416e+000,-8.13205556931229e-002

1.10190511587661e+004,-1.45788417839130e+000,-8.24557485061125e-002

1.11728713807222e+004,-1.45788415143122e+000,-8.36067880269111e-002

1.13288388529580e+004,-1.45788412371313e+000,-8.47738954682566e-002

1.14869835499703e+004,-1.45788409521585e+000,-8.59572951291570e-002

1.16473358646846e+004,-1.45788406591741e+000,-8.71572144413835e-002

1.18099266142953e+004,-1.45788403579528e+000,-8.83738840111002e-002

1.19747870461893e+004,-1.45788400482621e+000,-8.96075376638867e-002

1.21419488439505e+004,-1.45788397298658e+000,-9.08584124879790e-002

1.23114441334492e+004,-1.45788394025169e+000,-9.21267488838665e-002

1.24833054890161e+004,-1.45788390659664e+000,-9.34127906046417e-002

1.26575659397028e+004,-1.45788387199530e+000,-9.47167848091201e-002

1.28342589756290e+004,-1.45788383642133e+000,-9.60389821040877e-002

1.30134185544193e+004,-1.45788379984722e+000,-9.73796365962802e-002

1.31950791077289e+004,-1.45788376224484e+000,-9.87390059389839e-002

1.33792755478611e+004,-1.45788372358534e+000,-1.00117351382175e-001

1.35660432744767e+004,-1.45788368383883e+000,-1.01514937823803e-001

1.37554181813974e+004,-1.45788364297507e+000,-1.02932033856812e-001

1.39474366635040e+004,-1.45788360096240e+000,-1.04368911826708e-001

1.41421356237309e+004,-1.45788355776877e+000,-1.05825847878431e-001

1.43395524801583e+004,-1.45788351336062e+000,-1.07303122014863e-001

1.45397251732031e+004,-1.45788346770402e+000,-1.08801018144588e-001

1.47426921729110e+004,-1.45788342076396e+000,-1.10319824139880e-001

1.49484924863494e+004,-1.45788337250415e+000,-1.11859831893577e-001

1.51571656651040e+004,-1.45788332288757e+000,-1.13421337371490e-001

1.53687518128801e+004,-1.45788327187613e+000,-1.15004640670721e-001

1.55832915932100e+004,-1.45788321943059e+000,-1.16610046078823e-001

1.58008262372675e+004,-1.45788316551068e+000,-1.18237862129960e-001

1.60213975517924e+004,-1.45788311007475e+000,-1.19888401667272e-001

1.62450479271247e+004,-1.45788305308036e+000,-1.21561981898322e-001

1.64718203453514e+004,-1.45788299448368e+000,-1.23258924460257e-001

1.67017583885674e+004,-1.45788293423957e+000,-1.24979555480743e-001

1.69349062472505e+004,-1.45788287230196e+000,-1.26724205637765e-001

1.71713087287550e+004,-1.45788280862283e+000,-1.28493210229211e-001

1.74110112659224e+004,-1.45788274315361e+000,-1.30286909229229e-001

1.76540599258131e+004,-1.45788267584371e+000,-1.32105647361566e-001

1.79005014185594e+004,-1.45788260664157e+000,-1.33949774159553e-001

1.81503831063432e+004,-1.45788253549387e+000,-1.35819644037639e-001

1.84037530124975e+004,-1.45788246234599e+000,-1.37715616356339e-001

1.86606598307361e+004,-1.45788238714164e+000,-1.39638055494136e-001

1.89211529345119e+004,-1.45788230982305e+000,-1.41587330914954e-001

1.91852823865052e+004,-1.45788223033093e+000,-1.43563817240072e-001

1.94530989482457e+004,-1.45788214860378e+000,-1.45567894323001e-001

1.97246540898671e+004,-1.45788206457910e+000,-1.47599947316207e-001

1.99999999999999e+004,-1.45788197819214e+000,-1.49660366751216e-001

2.02791895958005e+004,-1.45788188937649e+000,-1.51749548610420e-001

2.05622765331213e+004,-1.45788179806406e+000,-1.53867894403261e-001

2.08493152168224e+004,-1.45788170418451e+000,-1.56015811245277e-001

2.11403608112276e+004,-1.45788160766566e+000,-1.58193711934979e-001

2.14354692507258e+004,-1.45788150843328e+000,-1.60402015033631e-001

2.17346972505211e+004,-1.45788140641116e+000,-1.62641144944285e-001

2.20381023175322e+004,-1.45788130152091e+000,-1.64911531995557e-001

2.23457427614443e+004,-1.45788119368181e+000,-1.67213612523225e-001

2.26576777059159e+004,-1.45788108281102e+000,-1.69547828953665e-001

2.29739670999406e+004,-1.45788096882322e+000,-1.71914629890665e-001

2.32946717293690e+004,-1.45788085163086e+000,-1.74314470198593e-001

2.36198532285905e+004,-1.45788073114387e+000,-1.76747811092535e-001

2.39495740923785e+004,-1.45788060726968e+000,-1.79215120225863e-001

2.42838976879009e+004,-1.45788047991282e+000,-1.81716871781541e-001

2.46228882668982e+004,-1.45788034897560e+000,-1.84253546559548e-001

2.49666109780322e+004,-1.45788021435733e+000,-1.86825632073151e-001

2.53151318794055e+004,-1.45788007595445e+000,-1.89433622641879e-001

2.56685179512580e+004,-1.45787993366069e+000,-1.92078019483803e-001

2.60268371088386e+004,-1.45787978736655e+000,-1.94759330815712e-001

2.63901582154578e+004,-1.45787963695959e+000,-1.97478071948504e-001

2.67585510957221e+004,-1.45787948232435e+000,-2.00234765385319e-001

2.71320865489533e+004,-1.45787932334170e+000,-2.03029940926065e-001

2.75108363627948e+004,-1.45787915988960e+000,-2.05864135764095e-001

2.78948733270080e+004,-1.45787899184231e+000,-2.08737894593292e-001

2.82842712474618e+004,-1.45787881907069e+000,-2.11651769710738e-001

2.86791049603164e+004,-1.45787864144197e+000,-2.14606321123039e-001

2.90794503464061e+004,-1.45787845881957e+000,-2.17602116655680e-001

2.94853843458219e+004,-1.45787827106307e+000,-2.20639732059969e-001

2.98969849726987e+004,-1.45787807802818e+000,-2.23719751124751e-001

3.03143313302078e+004,-1.45787787956656e+000,-2.26842765788172e-001

3.07375036257601e+004,-1.45787767552553e+000,-2.30009376253096e-001

3.11665831864199e+004,-1.45787746574836e+000,-2.33220191099512e-001

3.16016524745350e+004,-1.45787725007370e+000,-2.36475827404240e-001

3.20427951035848e+004,-1.45787702833582e+000,-2.39776910857744e-001

3.24900958542493e+004,-1.45787680036426e+000,-2.43124075885479e-001

3.29436406907028e+004,-1.45787656598379e+000,-2.46517965769155e-001

3.34035167771346e+004,-1.45787632501423e+000,-2.49959232770947e-001

3.38698124945009e+004,-1.45787607727035e+000,-2.53448538258467e-001

3.43426174575100e+004,-1.45787582256169e+000,-2.56986552832121e-001

3.48220225318448e+004,-1.45787556069250e+000,-2.60573956453653e-001

3.53081198516260e+004,-1.45787529146151e+000,-2.64211438576732e-001

3.58010028371187e+004,-1.45787501466167e+000,-2.67899698281028e-001

3.63007662126863e+004,-1.45787473008024e+000,-2.71639444404402e-001

3.68075060249948e+004,-1.45787443749855e+000,-2.75431395679847e-001

3.73213196614721e+004,-1.45787413669168e+000,-2.79276280874505e-001

3.78423058690237e+004,-1.45787382742827e+000,-2.83174838930107e-001

3.83705647730104e+004,-1.45787350947082e+000,-2.87127819101359e-001

3.89061978964912e+004,-1.45787318257469e+000,-2.91135981105923e-001

3.94493081797342e+004,-1.45787284648884e+000,-2.95200095264327e-001

3.99999999999998e+004,-1.45787250095481e+000,-2.99320942652792e-001

4.05583791916010e+004,-1.45787214570701e+000,-3.03499315250810e-001

4.11245530662425e+004,-1.45787178047236e+000,-3.07736016094497e-001

4.16986304336447e+004,-1.45787140497017e+000,-3.12031859429508e-001

4.22807216224550e+004,-1.45787101891190e+000,-3.16387670868975e-001

4.28709385014515e+004,-1.45787062200060e+000,-3.20804287553030e-001

4.34693945010421e+004,-1.45787021393130e+000,-3.25282558307071e-001

4.40762046350642e+004,-1.45786979439038e+000,-3.29823343806368e-001

4.46914855228886e+004,-1.45786936305535e+000,-3.34427516742085e-001

4.53153554118317e+004,-1.45786891959465e+000,-3.39095961988275e-001

4.59479341998812e+004,-1.45786846366740e+000,-3.43829576772378e-001

4.65893434587380e+004,-1.45786799492325e+000,-3.48629270846739e-001

4.72397064571810e+004,-1.45786751300189e+000,-3.53495966664969e-001

4.78991481847569e+004,-1.45786701753284e+000,-3.58430599558528e-001

4.85677953758016e+004,-1.45786650813542e+000,-3.63434117915476e-001

4.92457765337964e+004,-1.45786598441807e+000,-3.68507483364891e-001

4.99332219560642e+004,-1.45786544597808e+000,-3.73651670961633e-001

5.06302637588109e+004,-1.45786489240186e+000,-3.78867669370192e-001

5.13370359025159e+004,-1.45786432326387e+000,-3.84156481059038e-001

5.20536742176771e+004,-1.45786373812657e+000,-3.89519122492424e-001

5.27803164309155e+004,-1.45786313654040e+000,-3.94956624323407e-001

5.35171021914442e+004,-1.45786251804294e+000,-4.00470031594699e-001

5.42641730979066e+004,-1.45786188215884e+000,-4.06060403938151e-001

5.50216727255895e+004,-1.45786122839942e+000,-4.11728815779095e-001

5.57897466540159e+004,-1.45786055626214e+000,-4.17476356542882e-001

5.65685424949235e+004,-1.45785986523056e+000,-4.23304130863652e-001

5.73582099206328e+004,-1.45785915477346e+000,-4.29213258797695e-001

5.81589006928121e+004,-1.45785842434503e+000,-4.35204876037053e-001

5.89707686916437e+004,-1.45785767338374e+000,-4.41280134130831e-001

5.97939699453972e+004,-1.45785690131262e+000,-4.47440200703512e-001

6.06286626604156e+004,-1.45785610753822e+000,-4.53686259681765e-001

6.14750072515201e+004,-1.45785529145048e+000,-4.60019511520983e-001

6.23331663728396e+004,-1.45785445242238e+000,-4.66441173435175e-001

6.32033049490698e+004,-1.45785358980911e+000,-4.72952479632968e-001

6.40855902071694e+004,-1.45785270294778e+000,-4.79554681554065e-001

6.49801917084985e+004,-1.45785179115683e+000,-4.86249048109474e-001

6.58872813814055e+004,-1.45785085373557e+000,-4.93036865926353e-001

6.68070335542691e+004,-1.45784988996380e+000,-4.99919439593576e-001

6.77396249890018e+004,-1.45784889910074e+000,-5.06898091915987e-001

6.86852349150199e+004,-1.45784788038503e+000,-5.13974164164909e-001

6.96440450636895e+004,-1.45784683303394e+000,-5.21149016338630e-001

7.06162397032520e+004,-1.45784575624263e+000,-5.28424027422826e-001

7.16020056742374e+004,-1.45784464918367e+000,-5.35800595656505e-001

7.26015324253724e+004,-1.45784351100648e+000,-5.43280138799438e-001

7.36150120499896e+004,-1.45784234083647e+000,-5.50864094407137e-001

7.46426393229441e+004,-1.45784113777454e+000,-5.58553920104898e-001

7.56846117380472e+004,-1.45783990089634e+000,-5.66351093869524e-001

7.67411295460207e+004,-1.45783862925142e+000,-5.74257114313867e-001

7.78123957929823e+004,-1.45783732186288e+000,-5.82273500972794e-001

7.88986163594682e+004,-1.45783597772612e+000,-5.90401794599005e-001

7.99999999999995e+004,-1.45783459580855e+000,-5.98643557455853e-001

8.11167583832018e+004,-1.45783317504837e+000,-6.07000373620126e-001

8.22491061324848e+004,-1.45783171435401e+000,-6.15473849286014e-001

8.33972608672892e+004,-1.45783021260338e+000,-6.24065613073195e-001

8.45614432449099e+004,-1.45782866864268e+000,-6.32777316341859e-001

8.57418770029029e+004,-1.45782708128588e+000,-6.41610633508568e-001

8.69387890020841e+004,-1.45782544931341e+000,-6.50567262369965e-001

8.81524092701283e+004,-1.45782377147167e+000,-6.59648924427664e-001

8.93829710457770e+004,-1.45782204647178e+000,-6.68857365220737e-001

9.06307108236633e+004,-1.45782027298862e+000,-6.78194354660791e-001

9.18958683997622e+004,-1.45781844965985e+000,-6.87661687373153e-001

9.31786869174758e+004,-1.45781657508496e+000,-6.97261183040793e-001

9.44794129143618e+004,-1.45781464782404e+000,-7.06994686756385e-001

9.57982963695136e+004,-1.45781266639674e+000,-7.16864069374999e-001

9.71355907516031e+004,-1.45781062928113e+000,-7.26871227876412e-001

9.84915530675926e+004,-1.45780853491268e+000,-7.37018085727300e-001

9.98664439121282e+004,-1.45780638168269e+000,-7.47306593254695e-001

1.01260527517622e+005,-1.45780416793756e+000,-7.57738728017731e-001

1.02674071805032e+005,-1.45780189197706e+000,-7.68316495191447e-001

1.04107348435354e+005,-1.45779955205332e+000,-7.79041927949798e-001

1.05560632861831e+005,-1.45779714636934e+000,-7.89917087859024e-001

1.07034204382888e+005,-1.45779467307770e+000,-8.00944065273353e-001

1.08528346195813e+005,-1.45779213027926e+000,-8.12124979736707e-001

1.10043345451179e+005,-1.45778951602128e+000,-8.23461980392533e-001

1.11579493308032e+005,-1.45778682829640e+000,-8.34957246395726e-001

1.13137084989847e+005,-1.45778406504097e+000,-8.46612987331986e-001

1.14716419841265e+005,-1.45778122413322e+000,-8.58431443644998e-001

1.16317801385624e+005,-1.45777830339199e+000,-8.70414887065262e-001

1.17941537383287e+005,-1.45777530057483e+000,-8.82565621049195e-001

1.19587939890794e+005,-1.45777221337641e+000,-8.94885981221201e-001

1.21257325320831e+005,-1.45776903942664e+000,-9.07378335824740e-001

1.22950014503040e+005,-1.45776577628906e+000,-9.20045086176698e-001

1.24666332745679e+005,-1.45776242145863e+000,-9.32888667131382e-001

1.26406609898139e+005,-1.45775897236025e+000,-9.45911547547383e-001

1.28171180414339e+005,-1.45775542634638e+000,-9.59116230764901e-001

1.29960383416997e+005,-1.45775178069530e+000,-9.72505255086785e-001

1.31774562762811e+005,-1.45774803260899e+000,-9.86081194266480e-001

1.33614067108538e+005,-1.45774417921082e+000,-9.99846658005673e-001

1.35479249978003e+005,-1.45774021754356e+000,-1.01380429245552e+000

1.37370469830040e+005,-1.45773614456699e+000,-1.02795678072626e+000

1.39288090127379e+005,-1.45773195715563e+000,-1.04230684340490e+000

1.41232479406504e+005,-1.45772765209638e+000,-1.05685723907805e+000

1.43204011348474e+005,-1.45772322608603e+000,-1.07161076486442e+000

1.45203064850745e+005,-1.45771867572863e+000,-1.08657025695363e+000

1.47230024099979e+005,-1.45771399753328e+000,-1.10173859115099e+000

1.49285278645888e+005,-1.45770918791086e+000,-1.11711868343444e+000

1.51369223476094e+005,-1.45770424317193e+000,-1.13271349051337e+000

1.53482259092041e+005,-1.45769915952348e+000,-1.14852601040063e+000

1.55624791585964e+005,-1.45769393306617e+000,-1.16455928298957e+000

1.57797232718936e+005,-1.45768855979147e+000,-1.18081639063903e+000

1.59999999999999e+005,-1.45768303557834e+000,-1.19730045876929e+000

1.62233516766403e+005,-1.45767735619045e+000,-1.21401465646259e+000

1.64498212264969e+005,-1.45767151727266e+000,-1.23096219707514e+000

1.66794521734578e+005,-1.45766551434773e+000,-1.24814633885704e+000

1.69122886489819e+005,-1.45765934281324e+000,-1.26557038557849e+000

1.71483754005805e+005,-1.45765299793754e+000,-1.28323768716974e+000

1.73877578004168e+005,-1.45764647485661e+000,-1.30115164036445e+000

1.76304818540256e+005,-1.45763976857018e+000,-1.31931568935621e+000

1.78765942091554e+005,-1.45763287393788e+000,-1.33773332646280e+000

1.81261421647326e+005,-1.45762578567552e+000,-1.35640809279878e+000

1.83791736799524e+005,-1.45761849835091e+000,-1.37534357895975e+000

1.86357373834951e+005,-1.45761100637965e+000,-1.39454342571531e+000

1.88958825828723e+005,-1.45760330402121e+000,-1.41401132471011e+000

1.91596592739027e+005,-1.45759538537429e+000,-1.43375101917704e+000

1.94271181503206e+005,-1.45758724437239e+000,-1.45376630466064e+000

1.96983106135185e+005,-1.45757887477929e+000,-1.47406102974793e+000

1.99732887824256e+005,-1.45757027018430e+000,-1.49463909681263e+000

2.02521055035243e+005,-1.45756142399734e+000,-1.51550446276773e+000

2.05348143610063e+005,-1.45755232944402e+000,-1.53666113983002e+000

2.08214696870707e+005,-1.45754297956046e+000,-1.55811319629493e+000

2.11121265723661e+005,-1.45753336718803e+000,-1.57986475732168e+000

2.14068408765776e+005,-1.45752348496788e+000,-1.60192000573110e+000

2.17056692391625e+005,-1.45751332533551e+000,-1.62428318281247e+000

2.20086690902357e+005,-1.45750288051494e+000,-1.64695858914364e+000

2.23158986616063e+005,-1.45749214251272e+000,-1.66995058542266e+000

2.26274169979693e+005,-1.45748110311222e+000,-1.69326359330912e+000

2.29432839682530e+005,-1.45746975386704e+000,-1.71690209628005e+000

2.32635602771247e+005,-1.45745808609498e+000,-1.74087064049589e+000

2.35883074766574e+005,-1.45744609087116e+000,-1.76517383568043e+000

2.39175879781588e+005,-1.45743375902155e+000,-1.78981635601097e+000

2.42514650641661e+005,-1.45742108111591e+000,-1.81480294102366e+000

2.45900029006080e+005,-1.45740804746066e+000,-1.84013839652975e+000

2.49332665491357e+005,-1.45739464809175e+000,-1.86582759554511e+000

2.52813219796278e+005,-1.45738087276698e+000,-1.89187547923378e+000

2.56342360828676e+005,-1.45736671095827e+000,-1.91828705786441e+000

2.59920766833993e+005,-1.45735215184391e+000,-1.94506741177948e+000

2.63549125525621e+005,-1.45733718430035e+000,-1.97222169237948e+000

2.67228134217075e+005,-1.45732179689377e+000,-1.99975512312043e+000

2.70958499956006e+005,-1.45730597787152e+000,-2.02767300052567e+000

2.74740939660078e+005,-1.45728971515331e+000,-2.05598069521206e+000

2.78576180254757e+005,-1.45727299632226e+000,-2.08468365293004e+000

2.82464958813007e+005,-1.45725580861530e+000,-2.11378739562045e+000

2.86408022696948e+005,-1.45723813891398e+000,-2.14329752248322e+000

2.90406129701488e+005,-1.45721997373428e+000,-2.17321971106446e+000

2.94460048199957e+005,-1.45720129921672e+000,-2.20355971835727e+000

2.98570557291775e+005,-1.45718210111605e+000,-2.23432338191771e+000

3.02738446952187e+005,-1.45716236479035e+000,-2.26551662099892e+000

3.06964518184081e+005,-1.45714207519027e+000,-2.29714543769868e+000

3.11249583171928e+005,-1.45712121684779e+000,-2.32921591812515e+000

3.15594465437872e+005,-1.45709977386462e+000,-2.36173423357846e+000

3.19999999999997e+005,-1.45707772990035e+000,-2.39470664174963e+000

3.24467033532806e+005,-1.45705506816025e+000,-2.42813948793608e+000

3.28996424529938e+005,-1.45703177138276e+000,-2.46203920627478e+000

3.33589043469155e+005,-1.45700782182674e+000,-2.49641232099278e+000

3.38245772979638e+005,-1.45698320125817e+000,-2.53126544767563e+000

3.42967508011610e+005,-1.45695789093646e+000,-2.56660529455543e+000

3.47755156008335e+005,-1.45693187160085e+000,-2.60243866381403e+000

3.52609637080511e+005,-1.45690512345584e+000,-2.63877245290784e+000

3.57531884183106e+005,-1.45687762615665e+000,-2.67561365591022e+000

3.62522843294651e+005,-1.45684935879402e+000,-2.71296936487411e+000

3.67583473599047e+005,-1.45682029987874e+000,-2.75084677121259e+000

3.72714747669902e+005,-1.45679042732591e+000,-2.78925316710072e+000

3.77917651657445e+005,-1.45675971843824e+000,-2.82819594689732e+000

3.83193185478053e+005,-1.45672814988960e+000,-2.86768260858601e+000

3.88542363006410e+005,-1.45669569770775e+000,-2.90772075523782e+000

3.93966212270369e+005,-1.45666233725637e+000,-2.94831809649570e+000

3.99465775648511e+005,-1.45662804321716e+000,-2.98948245007857e+000

4.05042110070485e+005,-1.45659278957103e+000,-3.03122174330811e+000

4.10696287220124e+005,-1.45655654957905e+000,-3.07354401465745e+000

4.16429393741414e+005,-1.45651929576261e+000,-3.11645741532194e+000

4.22242531447321e+005,-1.45648099988332e+000,-3.15997021081294e+000

4.28136817531551e+005,-1.45644163292211e+000,-3.20409078257450e+000

4.34113384783250e+005,-1.45640116505816e+000,-3.24882762962244e+000

4.40173381804713e+005,-1.45635956564671e+000,-3.29418937020927e+000

4.46317973232124e+005,-1.45631680319687e+000,-3.34018474351071e+000

4.52548339959385e+005,-1.45627284534813e+000,-3.38682261133903e+000

4.58865679365059e+005,-1.45622765884719e+000,-3.43411195987877e+000

4.65271205542494e+005,-1.45618120952308e+000,-3.48206190144999e+000

4.71766149533147e+005,-1.45613346226259e+000,-3.53068167629523e+000

4.78351759563174e+005,-1.45608438098435e+000,-3.57998065439367e+000

4.85029301283321e+005,-1.45603392861252e+000,-3.62996833730083e+000

4.91800058012158e+005,-1.45598206704971e+000,-3.68065436001612e+000

4.98665330982714e+005,-1.45592875714932e+000,-3.73204849287599e+000

5.05626439592555e+005,-1.45587395868679e+000,-3.78416064347641e+000

5.12684721657352e+005,-1.45581763033045e+000,-3.83700085862188e+000

5.19841533667984e+005,-1.45575972961128e+000,-3.89057932630459e+000

5.27098251051240e+005,-1.45570021289217e+000,-3.94490637771049e+000

5.34456268434150e+005,-1.45563903533602e+000,-3.99999248925657e+000

5.41916999912011e+005,-1.45557615087334e+000,-4.05584828465663e+000

