Freq.,VOut,OutRef

1.00000000000000e+004,-7.64241246050318e+000,-1.54940704427793e-001

1.01395947979003e+004,-7.64241225845816e+000,-1.57103597172897e-001

1.02811382665607e+004,-7.64241205073297e+000,-1.59296682821799e-001

1.04246576084112e+004,-7.64241183716780e+000,-1.61520382854953e-001

1.05701804056138e+004,-7.64241161759825e+000,-1.63775124636362e-001

1.07177346253629e+004,-7.64241139185593e+000,-1.66061341492497e-001

1.08673486252606e+004,-7.64241115976695e+000,-1.68379472803111e-001

1.10190511587661e+004,-7.64241092115318e+000,-1.70729964078223e-001

1.11728713807222e+004,-7.64241067583093e+000,-1.73113267049976e-001

1.13288388529580e+004,-7.64241042361164e+000,-1.75529839754922e-001

1.14869835499703e+004,-7.64241016430148e+000,-1.77980146623646e-001

1.16473358646846e+004,-7.64240989770112e+000,-1.80464658569855e-001

1.18099266142953e+004,-7.64240962360551e+000,-1.82983853082210e-001

1.19747870461893e+004,-7.64240934180406e+000,-1.85538214313614e-001

1.21419488439505e+004,-7.64240905207996e+000,-1.88128233177390e-001

1.23114441334492e+004,-7.64240875421056e+000,-1.90754407438150e-001

1.24833054890161e+004,-7.64240844796690e+000,-1.93417241809731e-001

1.26575659397028e+004,-7.64240813311351e+000,-1.96117248051840e-001

1.28342589756290e+004,-7.64240780940828e+000,-1.98854945068918e-001

1.30134185544193e+004,-7.64240747660233e+000,-2.01630859008293e-001

1.31950791077289e+004,-7.64240713443991e+000,-2.04445523361607e-001

1.33792755478611e+004,-7.64240678265784e+000,-2.07299479069683e-001

1.35660432744767e+004,-7.64240642098581e+000,-2.10193274622923e-001

1.37554181813974e+004,-7.64240604914568e+000,-2.13127466170257e-001

1.39474366635040e+004,-7.64240566685171e+000,-2.16102617622306e-001

1.41421356237309e+004,-7.64240527380975e+000,-2.19119300764913e-001

1.43395524801583e+004,-7.64240486971782e+000,-2.22178095362692e-001

1.45397251732031e+004,-7.64240445426525e+000,-2.25279589275251e-001

1.47426921729110e+004,-7.64240402713249e+000,-2.28424378569389e-001

1.49484924863494e+004,-7.64240358799147e+000,-2.31613067630213e-001

1.51571656651040e+004,-7.64240313650411e+000,-2.34846269284677e-001

1.53687518128801e+004,-7.64240267232379e+000,-2.38124604908562e-001

1.55832915932100e+004,-7.64240219509335e+000,-2.41448704557616e-001

1.58008262372675e+004,-7.64240170444598e+000,-2.44819207080025e-001

1.60213975517924e+004,-7.64240120000446e+000,-2.48236760243208e-001

1.62450479271247e+004,-7.64240068138097e+000,-2.51702020857076e-001

1.64718203453514e+004,-7.64240014817690e+000,-2.55215654900285e-001

1.67017583885674e+004,-7.64239959998210e+000,-2.58778337650245e-001

1.69349062472505e+004,-7.64239903637534e+000,-2.62390753808796e-001

1.71713087287550e+004,-7.64239845692309e+000,-2.66053597638490e-001

1.74110112659224e+004,-7.64239786118013e+000,-2.69767573091304e-001

1.76540599258131e+004,-7.64239724868826e+000,-2.73533393948881e-001

1.79005014185594e+004,-7.64239661897662e+000,-2.77351783956302e-001

1.81503831063432e+004,-7.64239597156111e+000,-2.81223476961845e-001

1.84037530124975e+004,-7.64239530594406e+000,-2.85149217058195e-001

1.86606598307361e+004,-7.64239462161353e+000,-2.89129758727548e-001

1.89211529345119e+004,-7.64239391804357e+000,-2.93165866981969e-001

1.91852823865052e+004,-7.64239319469321e+000,-2.97258317515426e-001

1.94530989482457e+004,-7.64239245100643e+000,-3.01407896848987e-001

1.97246540898671e+004,-7.64239168641123e+000,-3.05615402486072e-001

1.99999999999999e+004,-7.64239090032005e+000,-3.09881643060118e-001

2.02791895958005e+004,-7.64239009212839e+000,-3.14207438496410e-001

2.05622765331213e+004,-7.64238926121497e+000,-3.18593620164133e-001

2.08493152168224e+004,-7.64238840694077e+000,-3.23041031041360e-001

2.11403608112276e+004,-7.64238752864924e+000,-3.27550525871153e-001

2.14354692507258e+004,-7.64238662566510e+000,-3.32122971330955e-001

2.17346972505211e+004,-7.64238569729396e+000,-3.36759246197894e-001

2.20381023175322e+004,-7.64238474282221e+000,-3.41460241515379e-001

2.23457427614443e+004,-7.64238376151591e+000,-3.46226860767634e-001

2.26576777059159e+004,-7.64238275262080e+000,-3.51060020050076e-001

2.29739670999406e+004,-7.64238171536102e+000,-3.55960648249778e-001

2.32946717293690e+004,-7.64238064893906e+000,-3.60929687220227e-001

2.36198532285905e+004,-7.64237955253524e+000,-3.65968091961970e-001

2.39495740923785e+004,-7.64237842530647e+000,-3.71076830810680e-001

2.42838976879009e+004,-7.64237726638600e+000,-3.76256885619579e-001

2.46228882668982e+004,-7.64237607488300e+000,-3.81509251947716e-001

2.49666109780322e+004,-7.64237484988130e+000,-3.86834939254324e-001

2.53151318794055e+004,-7.64237359043910e+000,-3.92234971091096e-001

2.56685179512580e+004,-7.64237229558805e+000,-3.97710385298656e-001

2.60268371088386e+004,-7.64237096433258e+000,-4.03262234207532e-001

2.63901582154578e+004,-7.64236959564932e+000,-4.08891584837943e-001

2.67585510957221e+004,-7.64236818848564e+000,-4.14599519109184e-001

2.71320865489533e+004,-7.64236674176003e+000,-4.20387134041428e-001

2.75108363627948e+004,-7.64236525435984e+000,-4.26255541973986e-001

2.78948733270080e+004,-7.64236372514176e+000,-4.32205870771828e-001

2.82842712474618e+004,-7.64236215292973e+000,-4.38239264049687e-001

2.86791049603164e+004,-7.64236053651517e+000,-4.44356881384755e-001

2.90794503464061e+004,-7.64235887465525e+000,-4.50559898545117e-001

2.94853843458219e+004,-7.64235716607214e+000,-4.56849507713706e-001

2.98969849726987e+004,-7.64235540945215e+000,-4.63226917717280e-001

3.03143313302078e+004,-7.64235360344475e+000,-4.69693354258853e-001

3.07375036257601e+004,-7.64235174666147e+000,-4.76250060153295e-001

3.11665831864199e+004,-7.64234983767436e+000,-4.82898295569293e-001

3.16016524745350e+004,-7.64234787501578e+000,-4.89639338266848e-001

3.20427951035848e+004,-7.64234585717674e+000,-4.96474483844801e-001

3.24900958542493e+004,-7.64234378260572e+000,-5.03405045991810e-001

3.29436406907028e+004,-7.64234164970768e+000,-5.10432356736422e-001

3.34035167771346e+004,-7.64233945684248e+000,-5.17557766705789e-001

3.38698124945009e+004,-7.64233720232409e+000,-5.24782645382680e-001

3.43426174575100e+004,-7.64233488441915e+000,-5.32108381369581e-001

3.48220225318448e+004,-7.64233250134523e+000,-5.39536382658290e-001

3.53081198516260e+004,-7.64233005127014e+000,-5.47068076895937e-001

3.58010028371187e+004,-7.64232753230994e+000,-5.54704911664240e-001

3.63007662126863e+004,-7.64232494252763e+000,-5.62448354755824e-001

3.68075060249948e+004,-7.64232227993214e+000,-5.70299894454479e-001

3.73213196614721e+004,-7.64231954247590e+000,-5.78261039826212e-001

3.78423058690237e+004,-7.64231672805417e+000,-5.86333321004417e-001

3.83705647730104e+004,-7.64231383450286e+000,-5.94518289487634e-001

3.89061978964912e+004,-7.64231085959684e+000,-6.02817518437201e-001

3.94493081797342e+004,-7.64230780104883e+000,-6.11232602977762e-001

3.99999999999998e+004,-7.64230465650685e+000,-6.19765160507404e-001

4.05583791916010e+004,-7.64230142355297e+000,-6.28416831005714e-001

4.11245530662425e+004,-7.64229809970112e+000,-6.37189277352270e-001

4.16986304336447e+004,-7.64229468239554e+000,-6.46084185642447e-001

4.22807216224550e+004,-7.64229116900829e+000,-6.55103265516808e-001

4.28709385014515e+004,-7.64228755683775e+000,-6.64248250485366e-001

4.34693945010421e+004,-7.64228384310636e+000,-6.73520898263386e-001

4.40762046350642e+004,-7.64228002495826e+000,-6.82922991109376e-001

4.46914855228886e+004,-7.64227609945727e+000,-6.92456336168562e-001

4.53153554118317e+004,-7.64227206358490e+000,-7.02122765817412e-001

4.59479341998812e+004,-7.64226791423738e+000,-7.11924138021284e-001

4.65893434587380e+004,-7.64226364822411e+000,-7.21862336686249e-001

4.72397064571810e+004,-7.64225926226423e+000,-7.31939272027099e-001

4.78991481847569e+004,-7.64225475298504e+000,-7.42156880930158e-001

4.85677953758016e+004,-7.64225011691871e+000,-7.52517127329293e-001

4.92457765337964e+004,-7.64224535050002e+000,-7.63022002581395e-001

4.99332219560642e+004,-7.64224045006342e+000,-7.73673525851566e-001

5.06302637588109e+004,-7.64223541184024e+000,-7.84473744500944e-001

5.13370359025159e+004,-7.64223023195588e+000,-7.95424734479306e-001

5.20536742176771e+004,-7.64222490642665e+000,-8.06528600727488e-001

5.27803164309155e+004,-7.64221943115694e+000,-8.17787477579315e-001

5.35171021914442e+004,-7.64221380193574e+000,-8.29203529175820e-001

5.42641730979066e+004,-7.64220801443388e+000,-8.40778949877735e-001

5.50216727255895e+004,-7.64220206420007e+000,-8.52515964691863e-001

5.57897466540159e+004,-7.64219594665813e+000,-8.64416829696506e-001

5.65685424949235e+004,-7.64218965710285e+000,-8.76483832477539e-001

5.73582099206328e+004,-7.64218319069700e+000,-8.88719292566711e-001

5.81589006928121e+004,-7.64217654246695e+000,-9.01125561891293e-001

5.89707686916437e+004,-7.64216970729930e+000,-9.13705025224226e-001

5.97939699453972e+004,-7.64216267993681e+000,-9.26460100644340e-001

6.06286626604156e+004,-7.64215545497439e+000,-9.39393240001030e-001

6.14750072515201e+004,-7.64214802685471e+000,-9.52506929388953e-001

6.23331663728396e+004,-7.64214038986425e+000,-9.65803689623232e-001

6.32033049490698e+004,-7.64213253812881e+000,-9.79286076726843e-001

6.40855902071694e+004,-7.64212446560863e+000,-9.92956682424256e-001

6.49801917084985e+004,-7.64211616609431e+000,-1.00681813463712e+000

6.58872813814055e+004,-7.64210763320158e+000,-1.02087309799363e+000

6.68070335542691e+004,-7.64209886036658e+000,-1.03512427434011e+000

6.77396249890018e+004,-7.64208984084088e+000,-1.04957440326127e+000

6.86852349150199e+004,-7.64208056768593e+000,-1.06422626260997e+000

6.96440450636895e+004,-7.64207103376823e+000,-1.07908266903969e+000

7.06162397032520e+004,-7.64206123175327e+000,-1.09414647854959e+000

7.16020056742374e+004,-7.64205115410029e+000,-1.10942058703386e+000

7.26015324253724e+004,-7.64204079305638e+000,-1.12490793083905e+000

7.36150120499896e+004,-7.64203014065035e+000,-1.14061148733134e+000

7.46426393229441e+004,-7.64201918868664e+000,-1.15653427547017e+000

7.56846117380472e+004,-7.64200792873924e+000,-1.17267935638877e+000

7.67411295460207e+004,-7.64199635214480e+000,-1.18904983398617e+000

7.78123957929823e+004,-7.64198444999635e+000,-1.20564885552358e+000

7.88986163594682e+004,-7.64197221313602e+000,-1.22247961223336e+000

7.99999999999995e+004,-7.64195963214837e+000,-1.23954533993267e+000

8.11167583832018e+004,-7.64194669735281e+000,-1.25684931964868e+000

8.22491061324848e+004,-7.64193339879630e+000,-1.27439487825009e+000

8.33972608672892e+004,-7.64191972624563e+000,-1.29218538908993e+000

8.45614432449099e+004,-7.64190566917966e+000,-1.31022427265540e+000

8.57418770029029e+004,-7.64189121678087e+000,-1.32851499722846e+000

8.69387890020841e+004,-7.64187635792727e+000,-1.34706107955507e+000

8.81524092701283e+004,-7.64186108118389e+000,-1.36586608552250e+000

8.93829710457770e+004,-7.64184537479361e+000,-1.38493363084960e+000

9.06307108236633e+004,-7.64182922666849e+000,-1.40426738178218e+000

9.18958683997622e+004,-7.64181262438014e+000,-1.42387105580311e+000

9.31786869174758e+004,-7.64179555515022e+000,-1.44374842234826e+000

9.44794129143618e+004,-7.64177800584057e+000,-1.46390330353558e+000

9.57982963695136e+004,-7.64175996294317e+000,-1.48433957490174e+000

9.71355907516031e+004,-7.64174141256945e+000,-1.50506116615204e+000

9.84915530675926e+004,-7.64172234043988e+000,-1.52607206191855e+000

9.98664439121282e+004,-7.64170273187261e+000,-1.54737630253072e+000

1.01260527517622e+005,-7.64168257177244e+000,-1.56897798479475e+000

1.02674071805032e+005,-7.64166184461877e+000,-1.59088126278732e+000

1.04107348435354e+005,-7.64164053445412e+000,-1.61309034865562e+000

1.05560632861831e+005,-7.64161862487131e+000,-1.63560951343499e+000

1.07034204382888e+005,-7.64159609900107e+000,-1.65844308787153e+000

1.08528346195813e+005,-7.64157293949875e+000,-1.68159546326222e+000

1.10043345451179e+005,-7.64154912853120e+000,-1.70507109230213e+000

1.11579493308032e+005,-7.64152464776285e+000,-1.72887448994681e+000

1.13137084989847e+005,-7.64149947834128e+000,-1.75301023428640e+000

1.14716419841265e+005,-7.64147360088298e+000,-1.77748296743114e+000

1.16317801385624e+005,-7.64144699545833e+000,-1.80229739640797e+000

1.17941537383287e+005,-7.64141964157593e+000,-1.82745829407549e+000

1.19587939890794e+005,-7.64139151816681e+000,-1.85297050004578e+000

1.21257325320831e+005,-7.64136260356826e+000,-1.87883892162203e+000

1.22950014503040e+005,-7.64133287550699e+000,-1.90506853474958e+000

1.24666332745679e+005,-7.64130231108169e+000,-1.93166438498082e+000

1.26406609898139e+005,-7.64127088674574e+000,-1.95863158845073e+000

1.28171180414339e+005,-7.64123857828830e+000,-1.98597533287252e+000

1.29960383416997e+005,-7.64120536081612e+000,-2.01370087854049e+000

1.31774562762811e+005,-7.64117120873406e+000,-2.04181355935124e+000

1.33614067108538e+005,-7.64113609572508e+000,-2.07031878383946e+000

1.35479249978003e+005,-7.64109999473003e+000,-2.09922203622681e+000

1.37370469830040e+005,-7.64106287792660e+000,-2.12852887748669e+000

1.39288090127379e+005,-7.64102471670767e+000,-2.15824494642455e+000

1.41232479406504e+005,-7.64098548165922e+000,-2.18837596077270e+000

1.43204011348474e+005,-7.64094514253732e+000,-2.21892771830205e+000

1.45203064850745e+005,-7.64090366824481e+000,-2.24990609794883e+000

1.47230024099979e+005,-7.64086102680717e+000,-2.28131706095678e+000

1.49285278645888e+005,-7.64081718534748e+000,-2.31316665203856e+000

1.51369223476094e+005,-7.64077211006102e+000,-2.34546100055056e+000

1.53482259092041e+005,-7.64072576618888e+000,-2.37820632168666e+000

1.55624791585964e+005,-7.64067811799133e+000,-2.41140891768731e+000

1.57797232718936e+005,-7.64062912871925e+000,-2.44507517907003e+000

1.59999999999999e+005,-7.64057876058635e+000,-2.47921158587127e+000

1.62233516766403e+005,-7.64052697473921e+000,-2.51382470891293e+000

1.64498212264969e+005,-7.64047373122739e+000,-2.54892121108182e+000

1.66794521734578e+005,-7.64041898897205e+000,-2.58450784863123e+000

1.69122886489819e+005,-7.64036270573408e+000,-2.62059147249940e+000

1.71483754005805e+005,-7.64030483808131e+000,-2.65717902964753e+000

1.73877578004168e+005,-7.64024534135440e+000,-2.69427756441745e+000

1.76304818540256e+005,-7.64018416963218e+000,-2.73189421990946e+000

1.78765942091554e+005,-7.64012127569594e+000,-2.77003623937861e+000

1.81261421647326e+005,-7.64005661099230e+000,-2.80871096765310e+000

1.83791736799524e+005,-7.63999012559561e+000,-2.84792585257259e+000

1.86357373834951e+005,-7.63992176816866e+000,-2.88768844644777e+000

1.88958825828723e+005,-7.63985148592317e+000,-2.92800640753940e+000

1.91596592739027e+005,-7.63977922457775e+000,-2.96888750156352e+000

1.94271181503206e+005,-7.63970492831615e+000,-3.01033960321352e+000

1.96983106135185e+005,-7.63962853974329e+000,-3.05237069770779e+000

1.99732887824256e+005,-7.63954999984046e+000,-3.09498888235967e+000

2.02521055035243e+005,-7.63946924791920e+000,-3.13820236816901e+000

2.05348143610063e+005,-7.63938622157364e+000,-3.18201948144020e+000

2.08214696870707e+005,-7.63930085663190e+000,-3.22644866542018e+000

2.11121265723661e+005,-7.63921308710548e+000,-3.27149848196476e+000

2.14068408765776e+005,-7.63912284513797e+000,-3.31717761322638e+000

2.17056692391625e+005,-7.63903006095155e+000,-3.36349486336874e+000

2.20086690902357e+005,-7.63893466279236e+000,-3.41045916030727e+000

2.23158986616063e+005,-7.63883657687425e+000,-3.45807955747397e+000

2.26274169979693e+005,-7.63873572732089e+000,-3.50636523560974e+000

2.29432839682530e+005,-7.63863203610608e+000,-3.55532550458419e+000

2.32635602771247e+005,-7.63852542299268e+000,-3.60496980524090e+000

2.35883074766574e+005,-7.63841580546931e+000,-3.65530771127271e+000

2.39175879781588e+005,-7.63830309868573e+000,-3.70634893112330e+000

2.42514650641661e+005,-7.63818721538590e+000,-3.75810330991946e+000

2.45900029006080e+005,-7.63806806583949e+000,-3.81058083143085e+000

2.49332665491357e+005,-7.63794555777133e+000,-3.86379162006039e+000

2.52813219796278e+005,-7.63781959628845e+000,-3.91774594286629e+000

2.56342360828676e+005,-7.63769008380569e+000,-3.97245421161228e+000

2.59920766833993e+005,-7.63755691996859e+000,-4.02792698485142e+000

2.63549125525621e+005,-7.63742000157432e+000,-4.08417497004145e+000

2.67228134217075e+005,-7.63727922249028e+000,-4.14120902569333e+000

2.70958499956006e+005,-7.63713447357047e+000,-4.19904016355032e+000

2.74740939660078e+005,-7.63698564256925e+000,-4.25767955080533e+000

2.78576180254757e+005,-7.63683261405274e+000,-4.31713851234873e+000

2.82464958813007e+005,-7.63667526930751e+000,-4.37742853305465e+000

2.86408022696948e+005,-7.63651348624706e+000,-4.43856126009990e+000

2.90406129701488e+005,-7.63634713931504e+000,-4.50054850532224e+000

2.94460048199957e+005,-7.63617609938619e+000,-4.56340224761380e+000

2.98570557291775e+005,-7.63600023366393e+000,-4.62713463535472e+000

3.02738446952187e+005,-7.63581940557552e+000,-4.69175798888274e+000

3.06964518184081e+005,-7.63563347466382e+000,-4.75728480300470e+000

3.11249583171928e+005,-7.63544229647610e+000,-4.82372774954738e+000

3.15594465437872e+005,-7.63524572244954e+000,-4.89109967994953e+000

3.19999999999997e+005,-7.63504359979374e+000,-4.95941362789493e+000

3.24467033532806e+005,-7.63483577136939e+000,-5.02868281199105e+000

3.28996424529938e+005,-7.63462207556371e+000,-5.09892063848830e+000

3.33589043469155e+005,-7.63440234616250e+000,-5.17014070404590e+000

3.38245772979638e+005,-7.63417641221812e+000,-5.24235679854226e+000

3.42967508011610e+005,-7.63394409791390e+000,-5.31558290793337e+000

3.47755156008335e+005,-7.63370522242473e+000,-5.38983321715734e+000

3.52609637080511e+005,-7.63345959977353e+000,-5.46512211308806e+000

3.57531884183106e+005,-7.63320703868360e+000,-5.54146418753942e+000

3.62522843294651e+005,-7.63294734242679e+000,-5.61887424031929e+000

3.67583473599047e+005,-7.63268030866758e+000,-5.69736728233570e+000

3.72714747669902e+005,-7.63240572930209e+000,-5.77695853875690e+000

3.77917651657445e+005,-7.63212339029323e+000,-5.85766345222526e+000

3.83193185478053e+005,-7.63183307150063e+000,-5.93949768612657e+000

3.88542363006410e+005,-7.63153454650601e+000,-6.02247712791733e+000

3.93966212270369e+005,-7.63122758243346e+000,-6.10661789250924e+000

3.99465775648511e+005,-7.63091193976482e+000,-6.19193632571372e+000

4.05042110070485e+005,-7.63058737214948e+000,-6.27844900774834e+000

4.10696287220124e+005,-7.63025362620921e+000,-6.36617275680497e+000

4.16429393741414e+005,-7.62991044133719e+000,-6.45512463268282e+000

4.22242531447321e+005,-7.62955754949169e+000,-6.54532194048626e+000

4.28136817531551e+005,-7.62919467498359e+000,-6.63678223439118e+000

4.34113384783250e+005,-7.62882153425831e+000,-6.72952332148001e+000

4.40173381804713e+005,-7.62843783567137e+000,-6.82356326564738e+000

4.46317973232124e+005,-7.62804327925791e+000,-6.91892039157919e+000

4.52548339959385e+005,-7.62763755649562e+000,-7.01561328880557e+000

4.58865679365059e+005,-7.62722035006139e+000,-7.11366081583027e+000

4.65271205542494e+005,-7.62679133358087e+000,-7.21308210433998e+000

4.71766149533147e+005,-7.62635017137146e+000,-7.31389656349222e+000

4.78351759563174e+005,-7.62589651817799e+000,-7.41612388428825e+000

4.85029301283321e+005,-7.62543001890160e+000,-7.51978404402900e+000

4.91800058012158e+005,-7.62495030832060e+000,-7.62489731085996e+000

4.98665330982714e+005,-7.62445701080435e+000,-7.73148424840524e+000

5.05626439592555e+005,-7.62394974001928e+000,-7.83956572049322e+000

5.12684721657352e+005,-7.62342809862658e+000,-7.94916289597854e+000

5.19841533667984e+005,-7.62289167797249e+000,-8.06029725366019e+000

5.27098251051240e+005,-7.62234005776996e+000,-8.17299058729992e+000

5.34456268434150e+005,-7.62177280577182e+000,-8.28726501074526e+000

5.41916999912011e+005,-7.62118947743547e+000,-8.40314296315616e+000

