Freq.,VOut,OutRef

1.00000000000000e+004,-6.81290227739095e+000,-9.22953190288428e-002

1.01395947979003e+004,-6.81290221539968e+000,-9.35837132289715e-002

1.02811382665607e+004,-6.81290215166545e+000,-9.48900927239793e-002

1.04246576084112e+004,-6.81290208613956e+000,-9.62147085763562e-002

1.05701804056138e+004,-6.81290201877141e+000,-9.75578153567152e-002

1.07177346253629e+004,-6.81290194950910e+000,-9.89196711887044e-002

1.08673486252606e+004,-6.81290187829957e+000,-1.00300537797253e-001

1.10190511587661e+004,-6.81290180508802e+000,-1.01700680562129e-001

1.11728713807222e+004,-6.81290172981800e+000,-1.03120368568625e-001

1.13288388529580e+004,-6.81290165243200e+000,-1.04559874654746e-001

1.14869835499703e+004,-6.81290157287012e+000,-1.06019475472390e-001

1.16473358646846e+004,-6.81290149107144e+000,-1.07499451530157e-001

1.18099266142953e+004,-6.81290140697294e+000,-1.09000087256019e-001

1.19747870461893e+004,-6.81290132051015e+000,-1.10521671045791e-001

1.21419488439505e+004,-6.81290123161653e+000,-1.12064495322547e-001

1.23114441334492e+004,-6.81290114022348e+000,-1.13628856592759e-001

1.24833054890161e+004,-6.81290104626102e+000,-1.15215055498213e-001

1.26575659397028e+004,-6.81290094965679e+000,-1.16823396880739e-001

1.28342589756290e+004,-6.81290085033669e+000,-1.18454189834772e-001

1.30134185544193e+004,-6.81290074822393e+000,-1.20107747773969e-001

1.31950791077289e+004,-6.81290064324040e+000,-1.21784388481536e-001

1.33792755478611e+004,-6.81290053530536e+000,-1.23484434179109e-001

1.35660432744767e+004,-6.81290042433558e+000,-1.25208211588438e-001

1.37554181813974e+004,-6.81290031024595e+000,-1.26956051988153e-001

1.39474366635040e+004,-6.81290019294862e+000,-1.28728291284295e-001

1.41421356237309e+004,-6.81290007235338e+000,-1.30525270071074e-001

1.43395524801583e+004,-6.81289994836774e+000,-1.32347333694836e-001

1.45397251732031e+004,-6.81289982089621e+000,-1.34194832326331e-001

1.47426921729110e+004,-6.81289968984066e+000,-1.36068121022997e-001

1.49484924863494e+004,-6.81289955510048e+000,-1.37967559797850e-001

1.51571656651040e+004,-6.81289941657194e+000,-1.39893513690401e-001

1.53687518128801e+004,-6.81289927414876e+000,-1.41846352834059e-001

1.55832915932100e+004,-6.81289912772115e+000,-1.43826452532038e-001

1.58008262372675e+004,-6.81289897717666e+000,-1.45834193323577e-001

1.60213975517924e+004,-6.81289882239964e+000,-1.47869961061061e-001

1.62450479271247e+004,-6.81289866327076e+000,-1.49934146984419e-001

1.64718203453514e+004,-6.81289849966802e+000,-1.52027147791722e-001

1.67017583885674e+004,-6.81289833146538e+000,-1.54149365721734e-001

1.69349062472505e+004,-6.81289815853370e+000,-1.56301208626061e-001

1.71713087287550e+004,-6.81289798073988e+000,-1.58483090050886e-001

1.74110112659224e+004,-6.81289779794723e+000,-1.60695429314479e-001

1.76540599258131e+004,-6.81289761001501e+000,-1.62938651589754e-001

1.79005014185594e+004,-6.81289741679907e+000,-1.65213187981441e-001

1.81503831063432e+004,-6.81289721815051e+000,-1.67519475615752e-001

1.84037530124975e+004,-6.81289701391682e+000,-1.69857957718074e-001

1.86606598307361e+004,-6.81289680394075e+000,-1.72229083702707e-001

1.89211529345119e+004,-6.81289658806109e+000,-1.74633309255128e-001

1.91852823865052e+004,-6.81289636611159e+000,-1.77071096424989e-001

1.94530989482457e+004,-6.81289613792166e+000,-1.79542913708651e-001

1.97246540898671e+004,-6.81289590331577e+000,-1.82049236144420e-001

1.99999999999999e+004,-6.81289566211363e+000,-1.84590545399585e-001

2.02791895958005e+004,-6.81289541412970e+000,-1.87167329866399e-001

2.05622765331213e+004,-6.81289515917325e+000,-1.89780084754566e-001

2.08493152168224e+004,-6.81289489704823e+000,-1.92429312186232e-001

2.11403608112276e+004,-6.81289462755297e+000,-1.95115521292577e-001

2.14354692507258e+004,-6.81289435048054e+000,-1.97839228310127e-001

2.17346972505211e+004,-6.81289406561745e+000,-2.00600956685401e-001

2.20381023175322e+004,-6.81289377274491e+000,-2.03401237167496e-001

2.23457427614443e+004,-6.81289347163743e+000,-2.06240607917646e-001

2.26576777059159e+004,-6.81289316206378e+000,-2.09119614605427e-001

2.29739670999406e+004,-6.81289284378563e+000,-2.12038810520920e-001

2.32946717293690e+004,-6.81289251655828e+000,-2.14998756675305e-001

2.36198532285905e+004,-6.81289218013005e+000,-2.18000021912042e-001

2.39495740923785e+004,-6.81289183424225e+000,-2.21043183013849e-001

2.42838976879009e+004,-6.81289147862877e+000,-2.24128824815826e-001

2.46228882668982e+004,-6.81289111301619e+000,-2.27257540315084e-001

2.49666109780322e+004,-6.81289073712323e+000,-2.30429930788258e-001

2.53151318794055e+004,-6.81289035066081e+000,-2.33646605903408e-001

2.56685179512580e+004,-6.81288995333172e+000,-2.36908183838919e-001

2.60268371088386e+004,-6.81288954483033e+000,-2.40215291402857e-001

2.63901582154578e+004,-6.81288912484243e+000,-2.43568564152351e-001

2.67585510957221e+004,-6.81288869304491e+000,-2.46968646516395e-001

2.71320865489533e+004,-6.81288824910579e+000,-2.50416191918043e-001

2.75108363627948e+004,-6.81288779268359e+000,-2.53911862901898e-001

2.78948733270080e+004,-6.81288732342716e+000,-2.57456331261479e-001

2.82842712474618e+004,-6.81288684097535e+000,-2.61050278168083e-001

2.86791049603164e+004,-6.81288634495744e+000,-2.64694394297552e-001

2.90794503464061e+004,-6.81288583499161e+000,-2.68389379970459e-001

2.94853843458219e+004,-6.81288531068562e+000,-2.72135945281269e-001

2.98969849726987e+004,-6.81288477163621e+000,-2.75934810235585e-001

3.03143313302078e+004,-6.81288421742865e+000,-2.79786704890081e-001

3.07375036257601e+004,-6.81288364763640e+000,-2.83692369492704e-001

3.11665831864199e+004,-6.81288306182143e+000,-2.87652554620811e-001

3.16016524745350e+004,-6.81288245953299e+000,-2.91668021330999e-001

3.20427951035848e+004,-6.81288184030756e+000,-2.95739541303432e-001

3.24900958542493e+004,-6.81288120366886e+000,-2.99867896987951e-001

3.29436406907028e+004,-6.81288054912701e+000,-3.04053881756691e-001

3.34035167771346e+004,-6.81287987617846e+000,-3.08298300055520e-001

3.38698124945009e+004,-6.81287918430550e+000,-3.12601967558595e-001

3.43426174575100e+004,-6.81287847297564e+000,-3.16965711326631e-001

3.48220225318448e+004,-6.81287774164170e+000,-3.21390369962840e-001

3.53081198516260e+004,-6.81287698974084e+000,-3.25876793777060e-001

3.58010028371187e+004,-6.81287621669444e+000,-3.30425844946965e-001

3.63007662126863e+004,-6.81287542190776e+000,-3.35038397684212e-001

3.68075060249948e+004,-6.81287460476918e+000,-3.39715338402771e-001

3.73213196614721e+004,-6.81287376464992e+000,-3.44457565889037e-001

3.78423058690237e+004,-6.81287290090340e+000,-3.49265991474703e-001

3.83705647730104e+004,-6.81287201286488e+000,-3.54141539211542e-001

3.89061978964912e+004,-6.81287109985094e+000,-3.59085146048906e-001

3.94493081797342e+004,-6.81287016115886e+000,-3.64097762013769e-001

3.99999999999998e+004,-6.81286919606623e+000,-3.69180350392772e-001

4.05583791916010e+004,-6.81286820383013e+000,-3.74333887918666e-001

4.11245530662425e+004,-6.81286718368705e+000,-3.79559364954810e-001

4.16986304336447e+004,-6.81286613485158e+000,-3.84857785689695e-001

4.22807216224550e+004,-6.81286505651638e+000,-3.90230168327287e-001

4.28709385014515e+004,-6.81286394785140e+000,-3.95677545282003e-001

4.34693945010421e+004,-6.81286280800319e+000,-4.01200963378117e-001

4.40762046350642e+004,-6.81286163609435e+000,-4.06801484050617e-001

4.46914855228886e+004,-6.81286043122231e+000,-4.12480183550826e-001

4.53153554118317e+004,-6.81285919245979e+000,-4.18238153148204e-001

4.59479341998812e+004,-6.81285791885300e+000,-4.24076499344534e-001

4.65893434587380e+004,-6.81285660942115e+000,-4.29996344086240e-001

4.72397064571810e+004,-6.81285526315598e+000,-4.35998824977322e-001

4.78991481847569e+004,-6.81285387902102e+000,-4.42085095497614e-001

4.85677953758016e+004,-6.81285245595015e+000,-4.48256325229160e-001

4.92457765337964e+004,-6.81285099284759e+000,-4.54513700074236e-001

4.99332219560642e+004,-6.81284948858649e+000,-4.60858422488040e-001

5.06302637588109e+004,-6.81284794200832e+000,-4.67291711706756e-001

5.13370359025159e+004,-6.81284635192193e+000,-4.73814803982825e-001

5.20536742176771e+004,-6.81284471710247e+000,-4.80428952822983e-001

5.27803164309155e+004,-6.81284303629067e+000,-4.87135429227182e-001

5.35171021914442e+004,-6.81284130819168e+000,-4.93935521934472e-001

5.42641730979066e+004,-6.81283953147425e+000,-5.00830537668605e-001

5.50216727255895e+004,-6.81283770476954e+000,-5.07821801390220e-001

5.57897466540159e+004,-6.81283582667000e+000,-5.14910656551850e-001

5.65685424949235e+004,-6.81283389572863e+000,-5.22098465353140e-001

5.73582099206328e+004,-6.81283191045744e+000,-5.29386609005189e-001

5.81589006928121e+004,-6.81282986932651e+000,-5.36776487994276e-001

5.89707686916437e+004,-6.81282777076283e+000,-5.44269522350967e-001

5.97939699453972e+004,-6.81282561314889e+000,-5.51867151923464e-001

6.06286626604156e+004,-6.81282339482170e+000,-5.59570836651745e-001

6.14750072515201e+004,-6.81282111407134e+000,-5.67382056850227e-001

6.23331663728396e+004,-6.81281876913944e+000,-5.75302313491942e-001

6.32033049490698e+004,-6.81281635821822e+000,-5.83333128494185e-001

6.40855902071694e+004,-6.81281387944876e+000,-5.91476045012967e-001

6.49801917084985e+004,-6.81281133091984e+000,-5.99732627737901e-001

6.58872813814055e+004,-6.81280871066605e+000,-6.08104463193215e-001

6.68070335542691e+004,-6.81280601666669e+000,-6.16593160041497e-001

6.77396249890018e+004,-6.81280324684383e+000,-6.25200349393980e-001

6.86852349150199e+004,-6.81280039906107e+000,-6.33927685120628e-001

6.96440450636895e+004,-6.81279747112147e+000,-6.42776844171000e-001

7.06162397032520e+004,-6.81279446076622e+000,-6.51749526892792e-001

7.16020056742374e+004,-6.81279136567257e+000,-6.60847457360323e-001

7.26015324253724e+004,-6.81278818345210e+000,-6.70072383705417e-001

7.36150120499896e+004,-6.81278491164913e+000,-6.79426078449518e-001

7.46426393229441e+004,-6.81278154773834e+000,-6.88910338848350e-001

7.56846117380472e+004,-6.81277808912324e+000,-6.98526987233030e-001

7.67411295460207e+004,-6.81277453313370e+000,-7.08277871362592e-001

7.78123957929823e+004,-6.81277087702423e+000,-7.18164864775908e-001

7.88986163594682e+004,-6.81276711797189e+000,-7.28189867151061e-001

7.99999999999995e+004,-6.81276325307350e+000,-7.38354804673128e-001

8.11167583832018e+004,-6.81275927934403e+000,-7.48661630399259e-001

8.22491061324848e+004,-6.81275519371402e+000,-7.59112324635091e-001

8.33972608672892e+004,-6.81275099302700e+000,-7.69708895315762e-001

8.45614432449099e+004,-6.81274667403728e+000,-7.80453378388523e-001

8.57418770029029e+004,-6.81274223340733e+000,-7.91347838204369e-001

8.69387890020841e+004,-6.81273766770484e+000,-8.02394367915258e-001

8.81524092701283e+004,-6.81273297340084e+000,-8.13595089871118e-001

8.93829710457770e+004,-6.81272814686581e+000,-8.24952156032402e-001

9.06307108236633e+004,-6.81272318436798e+000,-8.36467748376996e-001

9.18958683997622e+004,-6.81271808206933e+000,-8.48144079323733e-001

9.31786869174758e+004,-6.81271283602339e+000,-8.59983392152387e-001

9.44794129143618e+004,-6.81270744217177e+000,-8.71987961434770e-001

9.57982963695136e+004,-6.81270189634097e+000,-8.84160093471813e-001

9.71355907516031e+004,-6.81269619423915e+000,-8.96502126734534e-001

9.84915530675926e+004,-6.81269033145265e+000,-9.09016432312203e-001

9.98664439121282e+004,-6.81268430344281e+000,-9.21705414366023e-001

1.01260527517622e+005,-6.81267810554193e+000,-9.34571510591328e-001

1.02674071805032e+005,-6.81267173294984e+000,-9.47617192683415e-001

1.04107348435354e+005,-6.81266518073015e+000,-9.60844966811247e-001

1.05560632861831e+005,-6.81265844380634e+000,-9.74257374096637e-001

1.07034204382888e+005,-6.81265151695748e+000,-9.87856991102988e-001

1.08528346195813e+005,-6.81264439481434e+000,-1.00164643032726e+000

1.10043345451179e+005,-6.81263707185522e+000,-1.01562834069954e+000

1.11579493308032e+005,-6.81262954240123e+000,-1.02980540809194e+000

1.13137084989847e+005,-6.81262180061196e+000,-1.04418035583253e+000

1.14716419841265e+005,-6.81261384048093e+000,-1.05875594522557e+000

1.16317801385624e+005,-6.81260565583072e+000,-1.07353497608037e+000

1.17941537383287e+005,-6.81259724030784e+000,-1.08852028724913e+000

1.19587939890794e+005,-6.81258858737822e+000,-1.10371475716621e+000

1.21257325320831e+005,-6.81257969032135e+000,-1.11912130440354e+000

1.22950014503040e+005,-6.81257054222520e+000,-1.13474288822635e+000

1.24666332745679e+005,-6.81256113598078e+000,-1.15058250916005e+000

1.26406609898139e+005,-6.81255146427644e+000,-1.16664320956320e+000

1.28171180414339e+005,-6.81254151959168e+000,-1.18292807421212e+000

1.29960383416997e+005,-6.81253129419158e+000,-1.19944023088785e+000

1.31774562762811e+005,-6.81252078012028e+000,-1.21618285097605e+000

1.33614067108538e+005,-6.81250996919456e+000,-1.23315915007375e+000

1.35479249978003e+005,-6.81249885299753e+000,-1.25037238860286e+000

1.37370469830040e+005,-6.81248742287167e+000,-1.26782587243381e+000

1.39288090127379e+005,-6.81247566991170e+000,-1.28552295351863e+000

1.41232479406504e+005,-6.81246358495758e+000,-1.30346703053090e+000

1.43204011348474e+005,-6.81245115858716e+000,-1.32166154951433e+000

1.45203064850745e+005,-6.81243838110829e+000,-1.34011000454285e+000

1.47230024099979e+005,-6.81242524255130e+000,-1.35881593838707e+000

1.49285278645888e+005,-6.81241173266040e+000,-1.37778294319244e+000

1.51369223476094e+005,-6.81239784088600e+000,-1.39701466116333e+000

1.53482259092041e+005,-6.81238355637551e+000,-1.41651478526088e+000

1.55624791585964e+005,-6.81236886796487e+000,-1.43628705990633e+000

1.57797232718936e+005,-6.81235376416932e+000,-1.45633528169773e+000

1.59999999999999e+005,-6.81233823317390e+000,-1.47666330013369e+000

1.62233516766403e+005,-6.81232226282401e+000,-1.49727501834834e+000

1.64498212264969e+005,-6.81230584061508e+000,-1.51817439385710e+000

1.66794521734578e+005,-6.81228895368282e+000,-1.53936543931018e+000

1.69122886489819e+005,-6.81227158879203e+000,-1.56085222326137e+000

1.71483754005805e+005,-6.81225373232612e+000,-1.58263887094114e+000

1.73877578004168e+005,-6.81223537027583e+000,-1.60472956504496e+000

1.76304818540256e+005,-6.81221648822727e+000,-1.62712854653239e+000

1.78765942091554e+005,-6.81219707135062e+000,-1.64984011543296e+000

1.81261421647326e+005,-6.81217710438719e+000,-1.67286863166900e+000

1.83791736799524e+005,-6.81215657163708e+000,-1.69621851588592e+000

1.86357373834951e+005,-6.81213545694604e+000,-1.71989425029501e+000

1.88958825828723e+005,-6.81211374369204e+000,-1.74390037952722e+000

1.91596592739027e+005,-6.81209141477115e+000,-1.76824151150113e+000

1.94271181503206e+005,-6.81206845258361e+000,-1.79292231829905e+000

1.96983106135185e+005,-6.81204483901863e+000,-1.81794753705921e+000

1.99732887824256e+005,-6.81202055543946e+000,-1.84332197087702e+000

2.02521055035243e+005,-6.81199558266764e+000,-1.86905048972074e+000

2.05348143610063e+005,-6.81196990096664e+000,-1.89513803135942e+000

2.08214696870707e+005,-6.81194349002537e+000,-1.92158960230304e+000

2.11121265723661e+005,-6.81191632894093e+000,-1.94841027875575e+000

2.14068408765776e+005,-6.81188839620073e+000,-1.97560520758365e+000

2.17056692391625e+005,-6.81185966966431e+000,-2.00317960729373e+000

2.20086690902357e+005,-6.81183012654442e+000,-2.03113876902800e+000

2.23158986616063e+005,-6.81179974338743e+000,-2.05948805757136e+000

2.26274169979693e+005,-6.81176849605348e+000,-2.08823291237204e+000

2.29432839682530e+005,-6.81173635969546e+000,-2.11737884857801e+000

2.32635602771247e+005,-6.81170330873777e+000,-2.14693145808646e+000

2.35883074766574e+005,-6.81166931685439e+000,-2.17689641060742e+000

2.39175879781588e+005,-6.81163435694585e+000,-2.20727945474486e+000

2.42514650641661e+005,-6.81159840111589e+000,-2.23808641908932e+000

2.45900029006080e+005,-6.81156142064728e+000,-2.26932321332753e+000

2.49332665491357e+005,-6.81152338597662e+000,-2.30099582936880e+000

2.52813219796278e+005,-6.81148426666884e+000,-2.33311034248257e+000

2.56342360828676e+005,-6.81144403139016e+000,-2.36567291245862e+000

2.59920766833993e+005,-6.81140264788102e+000,-2.39868978477633e+000

2.63549125525621e+005,-6.81136008292746e+000,-2.43216729179583e+000

2.67228134217075e+005,-6.81131630233190e+000,-2.46611185396277e+000

2.70958499956006e+005,-6.81127127088297e+000,-2.50052998103090e+000

2.74740939660078e+005,-6.81122495232420e+000,-2.53542827330217e+000

2.78576180254757e+005,-6.81117730932206e+000,-2.57081342288349e+000

2.82464958813007e+005,-6.81112830343242e+000,-2.60669221496167e+000

2.86408022696948e+005,-6.81107789506637e+000,-2.64307152909683e+000

2.90406129701488e+005,-6.81102604345506e+000,-2.67995834053190e+000

2.94460048199957e+005,-6.81097270661256e+000,-2.71735972152478e+000

2.98570557291775e+005,-6.81091784129866e+000,-2.75528284269453e+000

3.02738446952187e+005,-6.81086140297954e+000,-2.79373497439066e+000

3.06964518184081e+005,-6.81080334578771e+000,-2.83272348807964e+000

3.11249583171928e+005,-6.81074362248019e+000,-2.87225585775307e+000

3.15594465437872e+005,-6.81068218439608e+000,-2.91233966135277e+000

3.19999999999997e+005,-6.81061898141167e+000,-2.95298258222118e+000

3.24467033532806e+005,-6.81055396189512e+000,-2.99419241056846e+000

3.28996424529938e+005,-6.81048707265911e+000,-3.03597704496209e+000

3.33589043469155e+005,-6.81041825891183e+000,-3.07834449384012e+000

3.38245772979638e+005,-6.81034746420695e+000,-3.12130287704284e+000

3.42967508011610e+005,-6.81027463039138e+000,-3.16486042736966e+000

3.47755156008335e+005,-6.81019969755155e+000,-3.20902549215834e+000

3.52609637080511e+005,-6.81012260395810e+000,-3.25380653488523e+000

3.57531884183106e+005,-6.81004328600841e+000,-3.29921213679307e+000

3.62522843294651e+005,-6.80996167816755e+000,-3.34525099853930e+000

3.67583473599047e+005,-6.80987771290725e+000,-3.39193194187132e+000

3.72714747669902e+005,-6.80979132064265e+000,-3.43926391132547e+000

3.77917651657445e+005,-6.80970242966739e+000,-3.48725597595249e+000

3.83193185478053e+005,-6.80961096608634e+000,-3.53591733106803e+000

3.88542363006410e+005,-6.80951685374599e+000,-3.58525730003153e+000

3.93966212270369e+005,-6.80942001416306e+000,-3.63528533604970e+000

3.99465775648511e+005,-6.80932036645029e+000,-3.68601102401065e+000

4.05042110070485e+005,-6.80921782724000e+000,-3.73744408234442e+000

4.10696287220124e+005,-6.80911231060557e+000,-3.78959436491199e+000

4.16429393741414e+005,-6.80900372797958e+000,-3.84247186292641e+000

4.22242531447321e+005,-6.80889198807015e+000,-3.89608670690106e+000

4.28136817531551e+005,-6.80877699677404e+000,-3.95044916863103e+000

4.34113384783250e+005,-6.80865865708718e+000,-4.00556966320477e+000

4.40173381804713e+005,-6.80853686901228e+000,-4.06145875104930e+000

4.46317973232124e+005,-6.80841152946359e+000,-4.11812714000679e+000

4.52548339959385e+005,-6.80828253216852e+000,-4.17558568744587e+000

4.58865679365059e+005,-6.80814976756619e+000,-4.23384540240840e+000

4.65271205542494e+005,-6.80801312270286e+000,-4.29291744778932e+000

4.71766149533147e+005,-6.80787248112380e+000,-4.35281314255560e+000

4.78351759563174e+005,-6.80772772276224e+000,-4.41354396399992e+000

4.85029301283321e+005,-6.80757872382423e+000,-4.47512155003399e+000

4.91800058012158e+005,-6.80742535667064e+000,-4.53755770152003e+000

4.98665330982714e+005,-6.80726748969486e+000,-4.60086438464270e+000

5.05626439592555e+005,-6.80710498719725e+000,-4.66505373332176e+000

5.12684721657352e+005,-6.80693770925532e+000,-4.73013805166666e+000

5.19841533667984e+005,-6.80676551159029e+000,-4.79612981647488e+000

5.27098251051240e+005,-6.80658824542939e+000,-4.86304167977397e+000

5.34456268434150e+005,-6.80640575736429e+000,-4.93088647140852e+000

5.41916999912011e+005,-6.80621788920486e+000,-4.99967720167494e+000

