Freq.,VOut,OutRef

1.00000000000000e+004,-7.01908378350153e+000,-1.09979515836463e-001

1.01395947979003e+004,-7.01908368710639e+000,-1.11514772538466e-001

1.02811382665607e+004,-7.01908358800130e+000,-1.13071460619171e-001

1.04246576084112e+004,-7.01908348610985e+000,-1.14649879250539e-001

1.05701804056138e+004,-7.01908338135374e+000,-1.16250331779385e-001

1.07177346253629e+004,-7.01908327365251e+000,-1.17873125786946e-001

1.08673486252606e+004,-7.01908316292340e+000,-1.19518573147625e-001

1.10190511587661e+004,-7.01908304908126e+000,-1.21186990090683e-001

1.11728713807222e+004,-7.01908293203842e+000,-1.22878697260004e-001

1.13288388529580e+004,-7.01908281170511e+000,-1.24594019773407e-001

1.14869835499703e+004,-7.01908268798852e+000,-1.26333287290478e-001

1.16473358646846e+004,-7.01908256079385e+000,-1.28096834068655e-001

1.18099266142953e+004,-7.01908243002321e+000,-1.29884999034139e-001

1.19747870461893e+004,-7.01908229557599e+000,-1.31698125843918e-001

1.21419488439505e+004,-7.01908215734872e+000,-1.33536562952812e-001

1.23114441334492e+004,-7.01908201523551e+000,-1.35400663676600e-001

1.24833054890161e+004,-7.01908186912658e+000,-1.37290786268996e-001

1.26575659397028e+004,-7.01908171891008e+000,-1.39207293977990e-001

1.28342589756290e+004,-7.01908156447027e+000,-1.41150555127606e-001

1.30134185544193e+004,-7.01908140568859e+000,-1.43120943179992e-001

1.31950791077289e+004,-7.01908124244260e+000,-1.45118836814999e-001

1.33792755478611e+004,-7.01908107460726e+000,-1.47144619992210e-001

1.35660432744767e+004,-7.01908090205306e+000,-1.49198682038020e-001

1.37554181813974e+004,-7.01908072464763e+000,-1.51281417707994e-001

1.39474366635040e+004,-7.01908054225462e+000,-1.53393227270527e-001

1.41421356237309e+004,-7.01908035473366e+000,-1.55534516581943e-001

1.43395524801583e+004,-7.01908016194054e+000,-1.57705697164199e-001

1.45397251732031e+004,-7.01907996372722e+000,-1.59907186281909e-001

1.47426921729110e+004,-7.01907975994115e+000,-1.62139407026993e-001

1.49484924863494e+004,-7.01907955042555e+000,-1.64402788396522e-001

1.51571656651040e+004,-7.01907933501966e+000,-1.66697765374155e-001

1.53687518128801e+004,-7.01907911355754e+000,-1.69024779019408e-001

1.55832915932100e+004,-7.01907888586905e+000,-1.71384276546019e-001

1.58008262372675e+004,-7.01907865177917e+000,-1.73776711410615e-001

1.60213975517924e+004,-7.01907841110791e+000,-1.76202543401018e-001

1.62450479271247e+004,-7.01907816367028e+000,-1.78662238722187e-001

1.64718203453514e+004,-7.01907790927581e+000,-1.81156270089373e-001

1.67017583885674e+004,-7.01907764772915e+000,-1.83685116813192e-001

1.69349062472505e+004,-7.01907737882895e+000,-1.86249264898937e-001

1.71713087287550e+004,-7.01907710236885e+000,-1.88849207131248e-001

1.74110112659224e+004,-7.01907681813583e+000,-1.91485443179880e-001

1.76540599258131e+004,-7.01907652591166e+000,-1.94158479684636e-001

1.79005014185594e+004,-7.01907622547152e+000,-1.96868830360356e-001

1.81503831063432e+004,-7.01907591658449e+000,-1.99617016091610e-001

1.84037530124975e+004,-7.01907559901314e+000,-2.02403565034638e-001

1.86606598307361e+004,-7.01907527251301e+000,-2.05229012720316e-001

1.89211529345119e+004,-7.01907493683341e+000,-2.08093902151097e-001

1.91852823865052e+004,-7.01907459171590e+000,-2.10998783914231e-001

1.94530989482457e+004,-7.01907423689530e+000,-2.13944216278976e-001

1.97246540898671e+004,-7.01907387209884e+000,-2.16930765308996e-001

1.99999999999999e+004,-7.01907349704608e+000,-2.19959004969405e-001

2.02791895958005e+004,-7.01907311144836e+000,-2.23029517239838e-001

2.05622765331213e+004,-7.01907271500934e+000,-2.26142892221376e-001

2.08493152168224e+004,-7.01907230742424e+000,-2.29299728252948e-001

2.11403608112276e+004,-7.01907188837960e+000,-2.32500632026696e-001

2.14354692507258e+004,-7.01907145755319e+000,-2.35746218703497e-001

2.17346972505211e+004,-7.01907101461383e+000,-2.39037112030627e-001

2.20381023175322e+004,-7.01907055922084e+000,-2.42373944464098e-001

2.23457427614443e+004,-7.01907009102399e+000,-2.45757357287751e-001

2.26576777059159e+004,-7.01906960966353e+000,-2.49188000735866e-001

2.29739670999406e+004,-7.01906911476905e+000,-2.52666534122363e-001

2.32946717293690e+004,-7.01906860596001e+000,-2.56193625963466e-001

2.36198532285905e+004,-7.01906808284539e+000,-2.59769954105787e-001

2.39495740923785e+004,-7.01906754502278e+000,-2.63396205860733e-001

2.42838976879009e+004,-7.01906699207853e+000,-2.67073078133698e-001

2.46228882668982e+004,-7.01906642358760e+000,-2.70801277556582e-001

2.49666109780322e+004,-7.01906583911264e+000,-2.74581520627866e-001

2.53151318794055e+004,-7.01906523820441e+000,-2.78414533845163e-001

2.56685179512580e+004,-7.01906462040081e+000,-2.82301053849160e-001

2.60268371088386e+004,-7.01906398522655e+000,-2.86241827564307e-001

2.63901582154578e+004,-7.01906333219335e+000,-2.90237612339369e-001

2.67585510957221e+004,-7.01906266079891e+000,-2.94289176096976e-001

2.71320865489533e+004,-7.01906197052708e+000,-2.98397297478215e-001

2.75108363627948e+004,-7.01906126084689e+000,-3.02562765994075e-001

2.78948733270080e+004,-7.01906053121254e+000,-3.06786382177010e-001

2.82842712474618e+004,-7.01905978106310e+000,-3.11068957732441e-001

2.86791049603164e+004,-7.01905900982146e+000,-3.15411315699156e-001

2.90794503464061e+004,-7.01905821689470e+000,-3.19814290602262e-001

2.94853843458219e+004,-7.01905740167284e+000,-3.24278728618738e-001

2.98969849726987e+004,-7.01905656352910e+000,-3.28805487734965e-001

3.03143313302078e+004,-7.01905570181863e+000,-3.33395437917315e-001

3.07375036257601e+004,-7.01905481587892e+000,-3.38049461273101e-001

3.11665831864199e+004,-7.01905390502855e+000,-3.42768452224775e-001

3.16016524745350e+004,-7.01905296856694e+000,-3.47553317679870e-001

3.20427951035848e+004,-7.01905200577387e+000,-3.52404977205822e-001

3.24900958542493e+004,-7.01905101590886e+000,-3.57324363206035e-001

3.29436406907028e+004,-7.01904999821060e+000,-3.62312421099552e-001

3.34035167771346e+004,-7.01904895189625e+000,-3.67370109503375e-001

3.38698124945009e+004,-7.01904787616113e+000,-3.72498400415065e-001

3.43426174575100e+004,-7.01904677017769e+000,-3.77698279401499e-001

3.48220225318448e+004,-7.01904563309548e+000,-3.82970745785298e-001

3.53081198516260e+004,-7.01904446403970e+000,-3.88316812840992e-001

3.58010028371187e+004,-7.01904326211106e+000,-3.93737507987003e-001

3.63007662126863e+004,-7.01904202638523e+000,-3.99233872981727e-001

3.68075060249948e+004,-7.01904075591150e+000,-4.04806964128154e-001

3.73213196614721e+004,-7.01903944971276e+000,-4.10457852472296e-001

3.78423058690237e+004,-7.01903810678402e+000,-4.16187624012886e-001

3.83705647730104e+004,-7.01903672609238e+000,-4.21997379905979e-001

3.89061978964912e+004,-7.01903530657572e+000,-4.27888236680290e-001

3.94493081797342e+004,-7.01903384714186e+000,-4.33861326450575e-001

3.99999999999998e+004,-7.01903234666820e+000,-4.39917797132953e-001

4.05583791916010e+004,-7.01903080400048e+000,-4.46058812668538e-001

4.11245530662425e+004,-7.01902921795178e+000,-4.52285553245722e-001

4.16986304336447e+004,-7.01902758730198e+000,-4.58599215527396e-001

4.22807216224550e+004,-7.01902591079624e+000,-4.65001012881448e-001

4.28709385014515e+004,-7.01902418714513e+000,-4.71492175610045e-001

4.34693945010421e+004,-7.01902241502215e+000,-4.78073951192871e-001

4.40762046350642e+004,-7.01902059306403e+000,-4.84747604520168e-001

4.46914855228886e+004,-7.01901871986876e+000,-4.91514418140899e-001

4.53153554118317e+004,-7.01901679399512e+000,-4.98375692505297e-001

4.59479341998812e+004,-7.01901481396114e+000,-5.05332746217603e-001

4.65893434587380e+004,-7.01901277824333e+000,-5.12386916287432e-001

4.72397064571810e+004,-7.01901068527520e+000,-5.19539558387778e-001

4.78991481847569e+004,-7.01900853344598e+000,-5.26792047116465e-001

4.85677953758016e+004,-7.01900632109998e+000,-5.34145776256953e-001

4.92457765337964e+004,-7.01900404653448e+000,-5.41602159050155e-001

4.99332219560642e+004,-7.01900170799913e+000,-5.49162628462817e-001

5.06302637588109e+004,-7.01899930369408e+000,-5.56828637464915e-001

5.13370359025159e+004,-7.01899683176905e+000,-5.64601659307291e-001

5.20536742176771e+004,-7.01899429032130e+000,-5.72483187806998e-001

5.27803164309155e+004,-7.01899167739488e+000,-5.80474737631432e-001

5.35171021914442e+004,-7.01898899097857e+000,-5.88577844590940e-001

5.42641730979066e+004,-7.01898622900452e+000,-5.96794065934521e-001

5.50216727255895e+004,-7.01898338934667e+000,-6.05124980647873e-001

5.57897466540159e+004,-7.01898046981920e+000,-6.13572189756687e-001

5.65685424949235e+004,-7.01897746817444e+000,-6.22137316635732e-001

5.73582099206328e+004,-7.01897438210168e+000,-6.30822007319190e-001

5.81589006928121e+004,-7.01897120922508e+000,-6.39627930817151e-001

5.89707686916437e+004,-7.01896794710181e+000,-6.48556779437509e-001

5.97939699453972e+004,-7.01896459322012e+000,-6.57610269110166e-001

6.06286626604156e+004,-7.01896114499782e+000,-6.66790139715701e-001

6.14750072515201e+004,-7.01895759977961e+000,-6.76098155422683e-001

6.23331663728396e+004,-7.01895395483563e+000,-6.85536105022891e-001

6.32033049490698e+004,-7.01895020735900e+000,-6.95105802277887e-001

6.40855902071694e+004,-7.01894635446386e+000,-7.04809086265528e-001

6.49801917084985e+004,-7.01894239318267e+000,-7.14647821736145e-001

6.58872813814055e+004,-7.01893832046476e+000,-7.24623899466250e-001

6.68070335542691e+004,-7.01893413317309e+000,-7.34739236626421e-001

6.77396249890018e+004,-7.01892982808251e+000,-7.44995777146223e-001

6.86852349150199e+004,-7.01892540187660e+000,-7.55395492090577e-001

6.96440450636895e+004,-7.01892085114575e+000,-7.65940380035468e-001

7.06162397032520e+004,-7.01891617238409e+000,-7.76632467454594e-001

7.16020056742374e+004,-7.01891136198688e+000,-7.87473809107025e-001

7.26015324253724e+004,-7.01890641624794e+000,-7.98466488431611e-001

7.36150120499896e+004,-7.01890133135639e+000,-8.09612617949187e-001

7.46426393229441e+004,-7.01889610339381e+000,-8.20914339667106e-001

7.56846117380472e+004,-7.01889072833155e+000,-8.32373825490128e-001

7.67411295460207e+004,-7.01888520202706e+000,-8.43993277639265e-001

7.78123957929823e+004,-7.01887952022104e+000,-8.55774929073862e-001

7.88986163594682e+004,-7.01887367853395e+000,-8.67721043920840e-001

7.99999999999995e+004,-7.01886767246298e+000,-8.79833917908355e-001

8.11167583832018e+004,-7.01886149737785e+000,-8.92115878809673e-001

8.22491061324848e+004,-7.01885514851788e+000,-9.04569286887953e-001

8.33972608672892e+004,-7.01884862098801e+000,-9.17196535349930e-001

8.45614432449099e+004,-7.01884190975489e+000,-9.30000050806784e-001

8.57418770029029e+004,-7.01883500964325e+000,-9.42982293738824e-001

8.69387890020841e+004,-7.01882791533163e+000,-9.56145758969484e-001

8.81524092701283e+004,-7.01882062134829e+000,-9.69492976144073e-001

8.93829710457770e+004,-7.01881312206697e+000,-9.83026510215212e-001

9.06307108236633e+004,-7.01880541170267e+000,-9.96748961935616e-001

9.18958683997622e+004,-7.01879748430689e+000,-1.01066296835833e+000

9.31786869174758e+004,-7.01878933376300e+000,-1.02477120334331e+000

9.44794129143618e+004,-7.01878095378174e+000,-1.03907637806994e+000

9.57982963695136e+004,-7.01877233789597e+000,-1.05358124155894e+000

9.71355907516031e+004,-7.01876347945598e+000,-1.06828858119923e+000

9.84915530675926e+004,-7.01875437162391e+000,-1.08320122328529e+000

9.98664439121282e+004,-7.01874500736879e+000,-1.09832203355753e+000

1.01260527517622e+005,-7.01873537946073e+000,-1.11365391775503e+000

1.02674071805032e+005,-7.01872548046555e+000,-1.12919982217163e+000

1.04107348435354e+005,-7.01871530273866e+000,-1.14496273422344e+000

1.05560632861831e+005,-7.01870483841938e+000,-1.16094568302218e+000

1.07034204382888e+005,-7.01869407942462e+000,-1.17715173995591e+000

1.08528346195813e+005,-7.01868301744246e+000,-1.19358401928157e+000

1.10043345451179e+005,-7.01867164392605e+000,-1.21024567871910e+000

1.11579493308032e+005,-7.01865995008624e+000,-1.22713992006256e+000

1.13137084989847e+005,-7.01864792688534e+000,-1.24426998979152e+000

1.14716419841265e+005,-7.01863556502979e+000,-1.26163917969546e+000

1.16317801385624e+005,-7.01862285496254e+000,-1.27925082750815e+000

1.17941537383287e+005,-7.01860978685618e+000,-1.29710831754498e+000

1.19587939890794e+005,-7.01859635060455e+000,-1.31521508135677e+000

1.21257325320831e+005,-7.01858253581535e+000,-1.33357459838552e+000

1.22950014503040e+005,-7.01856833180175e+000,-1.35219039663456e+000

1.24666332745679e+005,-7.01855372757372e+000,-1.37106605334661e+000

1.26406609898139e+005,-7.01853871182979e+000,-1.39020519568897e+000

1.28171180414339e+005,-7.01852327294783e+000,-1.40961150145201e+000

1.29960383416997e+005,-7.01850739897622e+000,-1.42928869975390e+000

1.31774562762811e+005,-7.01849107762399e+000,-1.44924057175792e+000

1.33614067108538e+005,-7.01847429625134e+000,-1.46947095139924e+000

1.35479249978003e+005,-7.01845704185982e+000,-1.48998372611900e+000

1.37370469830040e+005,-7.01843930108174e+000,-1.51078283761299e+000

1.39288090127379e+005,-7.01842106016964e+000,-1.53187228258888e+000

1.41232479406504e+005,-7.01840230498552e+000,-1.55325611353244e+000

1.43204011348474e+005,-7.01838302098968e+000,-1.57493843948646e+000

1.45203064850745e+005,-7.01836319322904e+000,-1.59692342684006e+000

1.47230024099979e+005,-7.01834280632524e+000,-1.61921530012978e+000

1.49285278645888e+005,-7.01832184446266e+000,-1.64181834284923e+000

1.51369223476094e+005,-7.01830029137549e+000,-1.66473689827384e+000

1.53482259092041e+005,-7.01827813033501e+000,-1.68797537029413e+000

1.55624791585964e+005,-7.01825534413639e+000,-1.71153822426108e+000

1.57797232718936e+005,-7.01823191508458e+000,-1.73542998784537e+000

1.59999999999999e+005,-7.01820782498064e+000,-1.75965525190596e+000

1.62233516766403e+005,-7.01818305510682e+000,-1.78421867137245e+000

1.64498212264969e+005,-7.01815758621180e+000,-1.80912496614014e+000

1.66794521734578e+005,-7.01813139849514e+000,-1.83437892197580e+000

1.69122886489819e+005,-7.01810447159176e+000,-1.85998539143696e+000

1.71483754005805e+005,-7.01807678455510e+000,-1.88594929480584e+000

1.73877578004168e+005,-7.01804831584075e+000,-1.91227562103310e+000

1.76304818540256e+005,-7.01801904328882e+000,-1.93896942869793e+000

1.78765942091554e+005,-7.01798894410629e+000,-1.96603584697941e+000

1.81261421647326e+005,-7.01795799484871e+000,-1.99348007664216e+000

1.83791736799524e+005,-7.01792617140105e+000,-2.02130739103701e+000

1.86357373834951e+005,-7.01789344895859e+000,-2.04952313711293e+000

1.88958825828723e+005,-7.01785980200646e+000,-2.07813273644706e+000

1.91596592739027e+005,-7.01782520429946e+000,-2.10714168628489e+000

1.94271181503206e+005,-7.01778962884031e+000,-2.13655556059946e+000

1.96983106135185e+005,-7.01775304785826e+000,-2.16638001116110e+000

1.99732887824256e+005,-7.01771543278620e+000,-2.19662076862571e+000

2.02521055035243e+005,-7.01767675423751e+000,-2.22728364363670e+000

2.05348143610063e+005,-7.01763698198225e+000,-2.25837452794281e+000

2.08214696870707e+005,-7.01759608492240e+000,-2.28989939553157e+000

2.11121265723661e+005,-7.01755403106665e+000,-2.32186430377856e+000

2.14068408765776e+005,-7.01751078750404e+000,-2.35427539461403e+000

2.17056692391625e+005,-7.01746632037715e+000,-2.38713889570498e+000

2.20086690902357e+005,-7.01742059485454e+000,-2.42046112165271e+000

2.23158986616063e+005,-7.01737357510175e+000,-2.45424847521133e+000

2.26274169979693e+005,-7.01732522425239e+000,-2.48850744851879e+000

2.29432839682530e+005,-7.01727550437725e+000,-2.52324462434896e+000

2.32635602771247e+005,-7.01722437645354e+000,-2.55846667737963e+000

2.35883074766574e+005,-7.01717180033252e+000,-2.59418037547854e+000

2.39175879781588e+005,-7.01711773470619e+000,-2.63039258100926e+000

2.42514650641661e+005,-7.01706213707326e+000,-2.66711025215429e+000

2.45900029006080e+005,-7.01700496370397e+000,-2.70434044425682e+000

2.49332665491357e+005,-7.01694616960364e+000,-2.74209031118299e+000

2.52813219796278e+005,-7.01688570847543e+000,-2.78036710670257e+000

2.56342360828676e+005,-7.01682353268168e+000,-2.81917818589028e+000

2.59920766833993e+005,-7.01675959320425e+000,-2.85853100654607e+000

2.63549125525621e+005,-7.01669383960359e+000,-2.89843313063697e+000

2.67228134217075e+005,-7.01662621997660e+000,-2.93889222575874e+000

2.70958499956006e+005,-7.01655668091300e+000,-2.97991606662051e+000

2.74740939660078e+005,-7.01648516745065e+000,-3.02151253654778e+000

2.78576180254757e+005,-7.01641162302933e+000,-3.06368962901030e+000

2.82464958813007e+005,-7.01633598944308e+000,-3.10645544917051e+000

2.86408022696948e+005,-7.01625820679130e+000,-3.14981821545403e+000

2.90406129701488e+005,-7.01617821342787e+000,-3.19378626114548e+000

2.94460048199957e+005,-7.01609594590932e+000,-3.23836803600461e+000

2.98570557291775e+005,-7.01601133894084e+000,-3.28357210790856e+000

3.02738446952187e+005,-7.01592432532110e+000,-3.32940716451670e+000

3.06964518184081e+005,-7.01583483588493e+000,-3.37588201496064e+000

3.11249583171928e+005,-7.01574279944452e+000,-3.42300559156048e+000

3.15594465437872e+005,-7.01564814272880e+000,-3.47078695156351e+000

3.19999999999997e+005,-7.01555079032069e+000,-3.51923527891168e+000

3.24467033532806e+005,-7.01545066459279e+000,-3.56835988603453e+000

3.28996424529938e+005,-7.01534768564074e+000,-3.61817021566807e+000

3.33589043469155e+005,-7.01524177121479e+000,-3.66867584270202e+000

3.38245772979638e+005,-7.01513283664890e+000,-3.71988647605550e+000

3.42967508011610e+005,-7.01502079478813e+000,-3.77181196057952e+000

3.47755156008335e+005,-7.01490555591334e+000,-3.82446227898936e+000

3.52609637080511e+005,-7.01478702766376e+000,-3.87784755382732e+000

3.57531884183106e+005,-7.01466511495728e+000,-3.93197804945321e+000

3.62522843294651e+005,-7.01453971990808e+000,-3.98686417406765e+000

3.67583473599047e+005,-7.01441074174159e+000,-4.04251648176713e+000

3.72714747669902e+005,-7.01427807670737e+000,-4.09894567462782e+000

3.77917651657445e+005,-7.01414161798856e+000,-4.15616260482621e+000

3.83193185478053e+005,-7.01400125560927e+000,-4.21417827678946e+000

3.88542363006410e+005,-7.01385687633852e+000,-4.27300384938204e+000

3.93966212270369e+005,-7.01370836359153e+000,-4.33265063812611e+000

3.99465775648511e+005,-7.01355559732794e+000,-4.39313011745782e+000

4.05042110070485e+005,-7.01339845394691e+000,-4.45445392301888e+000

4.10696287220124e+005,-7.01323680617887e+000,-4.51663385398687e+000

4.16429393741414e+005,-7.01307052297409e+000,-4.57968187544178e+000

4.22242531447321e+005,-7.01289946938787e+000,-4.64361012077229e+000

4.28136817531551e+005,-7.01272350646201e+000,-4.70843089412084e+000

4.34113384783250e+005,-7.01254249110298e+000,-4.77415667287052e+000

4.40173381804713e+005,-7.01235627595617e+000,-4.84080011017127e+000

4.46317973232124e+005,-7.01216470927629e+000,-4.90837403751131e+000

4.52548339959385e+005,-7.01196763479406e+000,-4.97689146732917e+000

4.58865679365059e+005,-7.01176489157869e+000,-5.04636559567280e+000

4.65271205542494e+005,-7.01155631389639e+000,-5.11680980490137e+000

4.71766149533147e+005,-7.01134173106437e+000,-5.18823766643718e+000

4.78351759563174e+005,-7.01112096730083e+000,-5.26066294356192e+000

4.85029301283321e+005,-7.01089384157010e+000,-5.33409959426511e+000

4.91800058012158e+005,-7.01066016742361e+000,-5.40856177413980e+000

4.98665330982714e+005,-7.01041975283567e+000,-5.48406383933270e+000

5.05626439592555e+005,-7.01017240003483e+000,-5.56062034954475e+000

5.12684721657352e+005,-7.00991790533021e+000,-5.63824607108724e+000

5.19841533667984e+005,-7.00965605893241e+000,-5.71695597999346e+000

5.27098251051240e+005,-7.00938664476976e+000,-5.79676526518697e+000

5.34456268434150e+005,-7.00910944029893e+000,-5.87768933170849e+000

5.41916999912011e+005,-7.00882421630998e+000,-5.95974380400398e+000

