Freq.,VOut,OutRef

1.00000000000000e+004,-1.78311366843154e+001,-1.95757857229699e-001

1.01395947979003e+004,-1.78311371080486e+001,-1.98490527447746e-001

1.02811382665607e+004,-1.78311375436940e+001,-2.01261343998188e-001

1.04246576084112e+004,-1.78311379915869e+001,-2.04070839367527e-001

1.05701804056138e+004,-1.78311384520713e+001,-2.06919553478870e-001

1.07177346253629e+004,-1.78311389255014e+001,-2.09808033789857e-001

1.08673486252606e+004,-1.78311394122411e+001,-2.12736835399824e-001

1.10190511587661e+004,-1.78311399126643e+001,-2.15706521158940e-001

1.11728713807222e+004,-1.78311404271560e+001,-2.18717661769890e-001

1.13288388529580e+004,-1.78311409561115e+001,-2.21770835903899e-001

1.14869835499703e+004,-1.78311414999375e+001,-2.24866630307735e-001

1.16473358646846e+004,-1.78311420590520e+001,-2.28005639920404e-001

1.18099266142953e+004,-1.78311426338847e+001,-2.31188467983455e-001

1.19747870461893e+004,-1.78311432248777e+001,-2.34415726157702e-001

1.21419488439505e+004,-1.78311438324850e+001,-2.37688034644164e-001

1.23114441334492e+004,-1.78311444571740e+001,-2.41006022297151e-001

1.24833054890161e+004,-1.78311450994245e+001,-2.44370326752495e-001

1.26575659397028e+004,-1.78311457597305e+001,-2.47781594542495e-001

1.28342589756290e+004,-1.78311464385995e+001,-2.51240481225852e-001

1.30134185544193e+004,-1.78311471365532e+001,-2.54747651511061e-001

1.31950791077289e+004,-1.78311478541282e+001,-2.58303779383905e-001

1.33792755478611e+004,-1.78311485918760e+001,-2.61909548237384e-001

1.35660432744767e+004,-1.78311493503637e+001,-2.65565651004699e-001

1.37554181813974e+004,-1.78311501301745e+001,-2.69272790287325e-001

1.39474366635040e+004,-1.78311509319077e+001,-2.73031678497292e-001

1.41421356237309e+004,-1.78311517561795e+001,-2.76843037987148e-001

1.43395524801583e+004,-1.78311526036235e+001,-2.80707601194272e-001

1.45397251732031e+004,-1.78311534748911e+001,-2.84626110776549e-001

1.47426921729110e+004,-1.78311543706520e+001,-2.88599319758338e-001

1.49484924863494e+004,-1.78311552915947e+001,-2.92627991674924e-001

1.51571656651040e+004,-1.78311562384272e+001,-2.96712900717320e-001

1.53687518128801e+004,-1.78311572118773e+001,-3.00854831881351e-001

1.55832915932100e+004,-1.78311582126929e+001,-3.05054581122398e-001

1.58008262372675e+004,-1.78311592416435e+001,-3.09312955501367e-001

1.60213975517924e+004,-1.78311602995201e+001,-3.13630773344683e-001

1.62450479271247e+004,-1.78311613871356e+001,-3.18008864400992e-001

1.64718203453514e+004,-1.78311625053260e+001,-3.22448069998017e-001

1.67017583885674e+004,-1.78311636549508e+001,-3.26949243206489e-001

1.69349062472505e+004,-1.78311648368935e+001,-3.31513249003675e-001

1.71713087287550e+004,-1.78311660520627e+001,-3.36140964437514e-001

1.74110112659224e+004,-1.78311673013923e+001,-3.40833278797515e-001

1.76540599258131e+004,-1.78311685858426e+001,-3.45591093784002e-001

1.79005014185594e+004,-1.78311699064008e+001,-3.50415323682774e-001

1.81503831063432e+004,-1.78311712640817e+001,-3.55306895538583e-001

1.84037530124975e+004,-1.78311726599291e+001,-3.60266749333537e-001

1.86606598307361e+004,-1.78311740950156e+001,-3.65295838169851e-001

1.89211529345119e+004,-1.78311755704441e+001,-3.70395128451007e-001

1.91852823865052e+004,-1.78311770873487e+001,-3.75565600065724e-001

1.94530989482457e+004,-1.78311786468952e+001,-3.80808246579355e-001

1.97246540898671e+004,-1.78311802502822e+001,-3.86124075423116e-001

1.99999999999999e+004,-1.78311818987419e+001,-3.91514108087003e-001

2.02791895958005e+004,-1.78311835935413e+001,-3.96979380316301e-001

2.05622765331213e+004,-1.78311853359829e+001,-4.02520942310316e-001

2.08493152168224e+004,-1.78311871274058e+001,-4.08139858925015e-001

2.11403608112276e+004,-1.78311889691867e+001,-4.13837209876033e-001

2.14354692507258e+004,-1.78311908627411e+001,-4.19614089945520e-001

2.17346972505211e+004,-1.78311928095242e+001,-4.25471609194673e-001

2.20381023175322e+004,-1.78311948110319e+001,-4.31410893174500e-001

2.23457427614443e+004,-1.78311968688027e+001,-4.37433083141890e-001

2.26576777059159e+004,-1.78311989844177e+001,-4.43539336281191e-001

2.29739670999406e+004,-1.78312011595026e+001,-4.49730825922779e-001

2.32946717293690e+004,-1.78312033957293e+001,-4.56008741769852e-001

2.36198532285905e+004,-1.78312056948157e+001,-4.62374290128569e-001

2.39495740923785e+004,-1.78312080585289e+001,-4.68828694135524e-001

2.42838976879009e+004,-1.78312104886852e+001,-4.75373193995556e-001

2.46228882668982e+004,-1.78312129871520e+001,-4.82009047218998e-001

2.49666109780322e+004,-1.78312155558492e+001,-4.88737528861419e-001

2.53151318794055e+004,-1.78312181967503e+001,-4.95559931772399e-001

2.56685179512580e+004,-1.78312209118849e+001,-5.02477566837017e-001

2.60268371088386e+004,-1.78312237033392e+001,-5.09491763233115e-001

2.63901582154578e+004,-1.78312265732581e+001,-5.16603868683623e-001

2.67585510957221e+004,-1.78312295238468e+001,-5.23815249715044e-001

2.71320865489533e+004,-1.78312325573722e+001,-5.31127291921361e-001

2.75108363627948e+004,-1.78312356761652e+001,-5.38541400226668e-001

2.78948733270080e+004,-1.78312388826221e+001,-5.46058999157460e-001

2.82842712474618e+004,-1.78312421792064e+001,-5.53681533114553e-001

2.86791049603164e+004,-1.78312455684510e+001,-5.61410466649699e-001

2.90794503464061e+004,-1.78312490529598e+001,-5.69247284747632e-001

2.94853843458219e+004,-1.78312526354097e+001,-5.77193493109725e-001

2.98969849726987e+004,-1.78312563185532e+001,-5.85250618442566e-001

3.03143313302078e+004,-1.78312601052197e+001,-5.93420208751660e-001

3.07375036257601e+004,-1.78312639983185e+001,-6.01703833636698e-001

3.11665831864199e+004,-1.78312680008400e+001,-6.10103084594612e-001

3.16016524745350e+004,-1.78312721158593e+001,-6.18619575321628e-001

3.20427951035848e+004,-1.78312763465372e+001,-6.27254942025143e-001

3.24900958542493e+004,-1.78312806961239e+001,-6.36010843735570e-001

3.29436406907028e+004,-1.78312851679603e+001,-6.44888962625497e-001

3.34035167771346e+004,-1.78312897654816e+001,-6.53891004331267e-001

3.38698124945009e+004,-1.78312944922191e+001,-6.63018698278944e-001

3.43426174575100e+004,-1.78312993518034e+001,-6.72273798018359e-001

3.48220225318448e+004,-1.78313043479671e+001,-6.81658081554671e-001

3.53081198516260e+004,-1.78313094845478e+001,-6.91173351693208e-001

3.58010028371187e+004,-1.78313147654903e+001,-7.00821436382484e-001

3.63007662126863e+004,-1.78313201948506e+001,-7.10604189064321e-001

3.68075060249948e+004,-1.78313257767985e+001,-7.20523489029346e-001

3.73213196614721e+004,-1.78313315156207e+001,-7.30581241776279e-001

3.78423058690237e+004,-1.78313374157246e+001,-7.40779379376403e-001

3.83705647730104e+004,-1.78313434816409e+001,-7.51119860845178e-001

3.89061978964912e+004,-1.78313497180277e+001,-7.61604672514608e-001

3.94493081797342e+004,-1.78313561296741e+001,-7.72235828414416e-001

3.99999999999998e+004,-1.78313627215030e+001,-7.83015370659387e-001

4.05583791916010e+004,-1.78313694985761e+001,-7.93945369836567e-001

4.11245530662425e+004,-1.78313764660969e+001,-8.05027925402661e-001

4.16986304336447e+004,-1.78313836294148e+001,-8.16265166088420e-001

4.22807216224550e+004,-1.78313909940295e+001,-8.27659250300894e-001

4.28709385014515e+004,-1.78313985655952e+001,-8.39212366538919e-001

4.34693945010421e+004,-1.78314063499244e+001,-8.50926733812498e-001

4.40762046350642e+004,-1.78314143529930e+001,-8.62804602064532e-001

4.46914855228886e+004,-1.78314225809444e+001,-8.74848252602640e-001

4.53153554118317e+004,-1.78314310400944e+001,-8.87059998533512e-001

4.59479341998812e+004,-1.78314397369360e+001,-8.99442185207077e-001

4.65893434587380e+004,-1.78314486781444e+001,-9.11997190662286e-001

4.72397064571810e+004,-1.78314578705821e+001,-9.24727426082823e-001

4.78991481847569e+004,-1.78314673213038e+001,-9.37635336257794e-001

4.85677953758016e+004,-1.78314770375625e+001,-9.50723400046755e-001

4.92457765337964e+004,-1.78314870268142e+001,-9.63994130854970e-001

4.99332219560642e+004,-1.78314972967243e+001,-9.77450077111760e-001

5.06302637588109e+004,-1.78315078551732e+001,-9.91093822757111e-001

5.13370359025159e+004,-1.78315187102618e+001,-1.00492798773669e+000

5.20536742176771e+004,-1.78315298703189e+001,-1.01895522849729e+000

5.27803164309155e+004,-1.78315413439060e+001,-1.03317823849774e+000

5.35171021914442e+004,-1.78315531398253e+001,-1.04759974872082e+000

5.42641730979066e+004,-1.78315652671253e+001,-1.06222252819318e+000

5.50216727255895e+004,-1.78315777351082e+001,-1.07704938451443e+000

5.57897466540159e+004,-1.78315905533372e+001,-1.09208316439063e+000

5.65685424949235e+004,-1.78316037316432e+001,-1.10732675417895e+000

5.73582099206328e+004,-1.78316172801327e+001,-1.12278308043451e+000

5.81589006928121e+004,-1.78316312091954e+001,-1.13845511046987e+000

5.89707686916437e+004,-1.78316455295121e+001,-1.15434585291850e+000

5.97939699453972e+004,-1.78316602520627e+001,-1.17045835830901e+000

6.06286626604156e+004,-1.78316753881348e+001,-1.18679571964365e+000

6.14750072515201e+004,-1.78316909493323e+001,-1.20336107298739e+000

6.23331663728396e+004,-1.78317069475836e+001,-1.22015759806474e+000

6.32033049490698e+004,-1.78317233951517e+001,-1.23718851886339e+000

6.40855902071694e+004,-1.78317403046426e+001,-1.25445710424775e+000

6.49801917084985e+004,-1.78317576890154e+001,-1.27196666857913e+000

6.58872813814055e+004,-1.78317755615918e+001,-1.28972057234564e+000

6.68070335542691e+004,-1.78317939360666e+001,-1.30772222279985e+000

6.77396249890018e+004,-1.78318128265177e+001,-1.32597507460619e+000

6.86852349150199e+004,-1.78318322474171e+001,-1.34448263049559e+000

6.96440450636895e+004,-1.78318522136416e+001,-1.36324844192978e+000

7.06162397032520e+004,-1.78318727404842e+001,-1.38227610977613e+000

7.16020056742374e+004,-1.78318938436658e+001,-1.40156928498700e+000

7.26015324253724e+004,-1.78319155393468e+001,-1.42113166929437e+000

7.36150120499896e+004,-1.78319378441397e+001,-1.44096701590983e+000

7.46426393229441e+004,-1.78319607751214e+001,-1.46107913023425e+000

7.56846117380472e+004,-1.78319843498461e+001,-1.48147187057855e+000

7.67411295460207e+004,-1.78320085863588e+001,-1.50214914889327e+000

7.78123957929823e+004,-1.78320335032089e+001,-1.52311493150749e+000

7.88986163594682e+004,-1.78320591194638e+001,-1.54437323987997e+000

7.99999999999995e+004,-1.78320854547238e+001,-1.56592815135646e+000

8.11167583832018e+004,-1.78321125291367e+001,-1.58778379994097e+000

8.22491061324848e+004,-1.78321403634129e+001,-1.60994437707473e+000

8.33972608672892e+004,-1.78321689788411e+001,-1.63241413242773e+000

8.45614432449099e+004,-1.78321983973043e+001,-1.65519737469873e+000

8.57418770029029e+004,-1.78322286412963e+001,-1.67829847242771e+000

8.69387890020841e+004,-1.78322597339388e+001,-1.70172185481725e+000

8.81524092701283e+004,-1.78322916989981e+001,-1.72547201256753e+000

8.93829710457770e+004,-1.78323245609039e+001,-1.74955349871940e+000

9.06307108236633e+004,-1.78323583447671e+001,-1.77397092951084e+000

9.18958683997622e+004,-1.78323930763986e+001,-1.79872898524474e+000

9.31786869174758e+004,-1.78324287823287e+001,-1.82383241116565e+000

9.44794129143618e+004,-1.78324654898275e+001,-1.84928601835150e+000

9.57982963695136e+004,-1.78325032269245e+001,-1.87509468461451e+000

9.71355907516031e+004,-1.78325420224300e+001,-1.90126335541627e+000

9.84915530675926e+004,-1.78325819059566e+001,-1.92779704479227e+000

9.98664439121282e+004,-1.78326229079416e+001,-1.95470083629032e+000

1.01260527517622e+005,-1.78326650596691e+001,-1.98197988392083e+000

1.02674071805032e+005,-1.78327083932938e+001,-2.00963941312000e+000

1.04107348435354e+005,-1.78327529418649e+001,-2.03768472172408e+000

1.05560632861831e+005,-1.78327987393506e+001,-2.06612118095873e+000

1.07034204382888e+005,-1.78328458206633e+001,-2.09495423643834e+000

1.08528346195813e+005,-1.78328942216860e+001,-2.12418940918153e+000

1.10043345451179e+005,-1.78329439792983e+001,-2.15383229663672e+000

1.11579493308032e+005,-1.78329951314042e+001,-2.18388857372343e+000

1.13137084989847e+005,-1.78330477169600e+001,-2.21436399388565e+000

1.14716419841265e+005,-1.78331017760034e+001,-2.24526439015899e+000

1.16317801385624e+005,-1.78331573496826e+001,-2.27659567625194e+000

1.17941537383287e+005,-1.78332144802874e+001,-2.30836384764091e+000

1.19587939890794e+005,-1.78332732112797e+001,-2.34057498267871e+000

1.21257325320831e+005,-1.78333335873261e+001,-2.37323524371773e+000

1.22950014503040e+005,-1.78333956543304e+001,-2.40635087824789e+000

1.24666332745679e+005,-1.78334594594676e+001,-2.43992822004732e+000

1.26406609898139e+005,-1.78335250512184e+001,-2.47397369035016e+000

1.28171180414339e+005,-1.78335924794049e+001,-2.50849379902626e+000

1.29960383416997e+005,-1.78336617952270e+001,-2.54349514577786e+000

1.31774562762811e+005,-1.78337330512998e+001,-2.57898442135109e+000

1.33614067108538e+005,-1.78338063016923e+001,-2.61496840876145e+000

1.35479249978003e+005,-1.78338816019664e+001,-2.65145398453537e+000

1.37370469830040e+005,-1.78339590092180e+001,-2.68844811996728e+000

1.39288090127379e+005,-1.78340385821179e+001,-2.72595788239279e+000

1.41232479406504e+005,-1.78341203809548e+001,-2.76399043647576e+000

1.43204011348474e+005,-1.78342044676790e+001,-2.80255304551392e+000

1.45203064850745e+005,-1.78342909059470e+001,-2.84165307275786e+000

1.47230024099979e+005,-1.78343797611679e+001,-2.88129798274811e+000

1.49285278645888e+005,-1.78344711005503e+001,-2.92149534266770e+000

1.51369223476094e+005,-1.78345649931506e+001,-2.96225282371122e+000

1.53482259092041e+005,-1.78346615099232e+001,-3.00357820247055e+000

1.55624791585964e+005,-1.78347607237708e+001,-3.04547936233756e+000

1.57797232718936e+005,-1.78348627095972e+001,-3.08796429492246e+000

1.59999999999999e+005,-1.78349675443602e+001,-3.13104110149163e+000

1.62233516766403e+005,-1.78350753071271e+001,-3.17471799441990e+000

1.64498212264969e+005,-1.78351860791308e+001,-3.21900329866106e+000

1.66794521734578e+005,-1.78352999438273e+001,-3.26390545323665e+000

1.69122886489819e+005,-1.78354169869552e+001,-3.30943301274093e+000

1.71483754005805e+005,-1.78355372965962e+001,-3.35559464886443e+000

1.73877578004168e+005,-1.78356609632374e+001,-3.40239915193426e+000

1.76304818540256e+005,-1.78357880798346e+001,-3.44985543247310e+000

1.78765942091554e+005,-1.78359187418785e+001,-3.49797252277605e+000

1.81261421647326e+005,-1.78360530474604e+001,-3.54675957850592e+000

1.83791736799524e+005,-1.78361910973417e+001,-3.59622588030514e+000

1.86357373834951e+005,-1.78363329950239e+001,-3.64638083542801e+000

1.88958825828723e+005,-1.78364788468206e+001,-3.69723397939036e+000

1.91596592739027e+005,-1.78366287619308e+001,-3.74879497763758e+000

1.94271181503206e+005,-1.78367828525151e+001,-3.80107362723183e+000

1.96983106135185e+005,-1.78369412337726e+001,-3.85407985855810e+000

1.99732887824256e+005,-1.78371040240201e+001,-3.90782373704731e+000

2.02521055035243e+005,-1.78372713447733e+001,-3.96231546492194e+000

2.05348143610063e+005,-1.78374433208300e+001,-4.01756538295641e+000

2.08214696870707e+005,-1.78376200803546e+001,-4.07358397226024e+000

2.11121265723661e+005,-1.78378017549656e+001,-4.13038185607764e+000

2.14068408765776e+005,-1.78379884798245e+001,-4.18796980160795e+000

2.17056692391625e+005,-1.78381803937266e+001,-4.24635872184514e+000

2.20086690902357e+005,-1.78383776391948e+001,-4.30555967743583e+000

2.23158986616063e+005,-1.78385803625746e+001,-4.36558387855829e+000

2.26274169979693e+005,-1.78387887141321e+001,-4.42644268681934e+000

2.29432839682530e+005,-1.78390028481530e+001,-4.48814761717246e+000

2.32635602771247e+005,-1.78392229230461e+001,-4.55071033985341e+000

2.35883074766574e+005,-1.78394491014461e+001,-4.61414268233858e+000

2.39175879781588e+005,-1.78396815503218e+001,-4.67845663131944e+000

2.42514650641661e+005,-1.78399204410842e+001,-4.74366433470029e+000

2.45900029006080e+005,-1.78401659496986e+001,-4.80977810361305e+000

2.49332665491357e+005,-1.78404182567988e+001,-4.87681041445313e+000

2.52813219796278e+005,-1.78406775478028e+001,-4.94477391093636e+000

2.56342360828676e+005,-1.78409440130329e+001,-5.01368140617259e+000

2.59920766833993e+005,-1.78412178478366e+001,-5.08354588476289e+000

2.63549125525621e+005,-1.78414992527112e+001,-5.15438050491400e+000

2.67228134217075e+005,-1.78417884334303e+001,-5.22619860057441e+000

2.70958499956006e+005,-1.78420856011741e+001,-5.29901368358943e+000

2.74740939660078e+005,-1.78423909726607e+001,-5.37283944587708e+000

2.78576180254757e+005,-1.78427047702819e+001,-5.44768976162302e+000

2.82464958813007e+005,-1.78430272222405e+001,-5.52357868949688e+000

2.86408022696948e+005,-1.78433585626915e+001,-5.60052047488673e+000

2.90406129701488e+005,-1.78436990318850e+001,-5.67852955215572e+000

2.94460048199957e+005,-1.78440488763125e+001,-5.75762054691754e+000

2.98570557291775e+005,-1.78444083488568e+001,-5.83780827833174e+000

3.02738446952187e+005,-1.78447777089436e+001,-5.91910776141966e+000

3.06964518184081e+005,-1.78451572226970e+001,-6.00153420940063e+000

3.11249583171928e+005,-1.78455471630973e+001,-6.08510303604768e+000

3.15594465437872e+005,-1.78459478101428e+001,-6.16982985806321e+000

3.19999999999997e+005,-1.78463594510132e+001,-6.25573049747605e+000

3.24467033532806e+005,-1.78467823802380e+001,-6.34282098405653e+000

3.28996424529938e+005,-1.78472168998660e+001,-6.43111755775345e+000

3.33589043469155e+005,-1.78476633196393e+001,-6.52063667115081e+000

3.38245772979638e+005,-1.78481219571700e+001,-6.61139499194385e+000

3.42967508011610e+005,-1.78485931381200e+001,-6.70340940543648e+000

3.47755156008335e+005,-1.78490771963843e+001,-6.79669701705792e+000

3.52609637080511e+005,-1.78495744742773e+001,-6.89127515490061e+000

3.57531884183106e+005,-1.78500853227218e+001,-6.98716137227780e+000

3.62522843294651e+005,-1.78506101014429e+001,-7.08437345030179e+000

3.67583473599047e+005,-1.78511491791631e+001,-7.18292940048263e+000

3.72714747669902e+005,-1.78517029338022e+001,-7.28284746734770e+000

3.77917651657445e+005,-1.78522717526800e+001,-7.38414613108153e+000

3.83193185478053e+005,-1.78528560327223e+001,-7.48684411018734e+000

3.88542363006410e+005,-1.78534561806701e+001,-7.59096036416775e+000

3.93966212270369e+005,-1.78540726132927e+001,-7.69651409622935e+000

3.99465775648511e+005,-1.78547057576038e+001,-7.80352475600620e+000

4.05042110070485e+005,-1.78553560510807e+001,-7.91201204230583e+000

4.10696287220124e+005,-1.78560239418877e+001,-8.02199590587720e+000

4.16429393741414e+005,-1.78567098891025e+001,-8.13349655220004e+000

4.22242531447321e+005,-1.78574143629458e+001,-8.24653444429711e+000

4.28136817531551e+005,-1.78581378450147e+001,-8.36113030556854e+000

4.34113384783250e+005,-1.78588808285199e+001,-8.47730512264899e+000

4.40173381804713e+005,-1.78596438185257e+001,-8.59508014828852e+000

4.46317973232124e+005,-1.78604273321942e+001,-8.71447690425600e+000

4.52548339959385e+005,-1.78612318990329e+001,-8.83551718426866e+000

4.58865679365059e+005,-1.78620580611455e+001,-8.95822305694324e+000

4.65271205542494e+005,-1.78629063734870e+001,-9.08261686877436e+000

4.71766149533147e+005,-1.78637774041224e+001,-9.20872124713700e+000

4.78351759563174e+005,-1.78646717344887e+001,-9.33655910331539e+000

4.85029301283321e+005,-1.78655899596607e+001,-9.46615363555878e+000

4.91800058012158e+005,-1.78665326886218e+001,-9.59752833216318e+000

4.98665330982714e+005,-1.78675005445372e+001,-9.73070697458240e+000

5.05626439592555e+005,-1.78684941650317e+001,-9.86571364056592e+000

5.12684721657352e+005,-1.78695142024722e+001,-1.00025727073270e+001

5.19841533667984e+005,-1.78705613242533e+001,-1.01413088547402e+001

5.27098251051240e+005,-1.78716362130882e+001,-1.02819470685694e+001

5.34456268434150e+005,-1.78727395673029e+001,-1.04245126437274e+001

5.41916999912011e+005,-1.78738721011360e+001,-1.05690311875671e+001

