Freq.,VOut,OutRef

1.00000000000000e+004,-5.56543431745469e-001,-4.66539621679645e-002

1.01395947979003e+004,-5.56543425343741e-001,-4.73052273682042e-002

1.02811382665607e+004,-5.56543418762016e-001,-4.79655838988135e-002

1.04246576084112e+004,-5.56543411995243e-001,-4.86351586699613e-002

1.05701804056138e+004,-5.56543405038278e-001,-4.93140803638199e-002

1.07177346253629e+004,-5.56543397885849e-001,-5.00024794582550e-002

1.08673486252606e+004,-5.56543390532097e-001,-5.07004882554473e-002

1.10190511587661e+004,-5.56543382971898e-001,-5.14082408988051e-002

1.11728713807222e+004,-5.56543375198976e-001,-5.21258734105322e-002

1.13288388529580e+004,-5.56543367207565e-001,-5.28535237078463e-002

1.14869835499703e+004,-5.56543358991539e-001,-5.35913316338501e-002

1.16473358646846e+004,-5.56543350544506e-001,-5.43394389846495e-002

1.18099266142953e+004,-5.56543341859966e-001,-5.50979895354274e-002

1.19747870461893e+004,-5.56543332931427e-001,-5.58671290670952e-002

1.21419488439505e+004,-5.56543323751768e-001,-5.66470053980569e-002

1.23114441334492e+004,-5.56543314314038e-001,-5.74377684086848e-002

1.24833054890161e+004,-5.56543304611093e-001,-5.82395700709630e-002

1.26575659397028e+004,-5.56543294635192e-001,-5.90525644812065e-002

1.28342589756290e+004,-5.56543284378991e-001,-5.98769078826611e-002

1.30134185544193e+004,-5.56543273834621e-001,-6.07127587016071e-002

1.31950791077289e+004,-5.56543262993607e-001,-6.15602775788544e-002

1.33792755478611e+004,-5.56543251847869e-001,-6.24196273934784e-002

1.35660432744767e+004,-5.56543240388822e-001,-6.32909732997871e-002

1.37554181813974e+004,-5.56543228607723e-001,-6.41744827572298e-002

1.39474366635040e+004,-5.56543216495276e-001,-6.50703255647443e-002

1.41421356237309e+004,-5.56543204042525e-001,-6.59786738883788e-002

1.43395524801583e+004,-5.56543191239551e-001,-6.68997023012328e-002

1.45397251732031e+004,-5.56543178076764e-001,-6.78335878098981e-002

1.47426921729110e+004,-5.56543164544004e-001,-6.87805098939988e-002

1.49484924863494e+004,-5.56543150630676e-001,-6.97406505394968e-002

1.51571656651040e+004,-5.56543136326379e-001,-7.07141942693724e-002

1.53687518128801e+004,-5.56543121619851e-001,-7.17013281867066e-002

1.55832915932100e+004,-5.56543106500041e-001,-7.27022420024346e-002

1.58008262372675e+004,-5.56543090954972e-001,-7.37171280803079e-002

1.60213975517924e+004,-5.56543074973099e-001,-7.47461814640139e-002

1.62450479271247e+004,-5.56543058541915e-001,-7.57895999245045e-002

1.64718203453514e+004,-5.56543041648890e-001,-7.68475839912630e-002

1.67017583885674e+004,-5.56543024280959e-001,-7.79203369941336e-002

1.69349062472505e+004,-5.56543006424957e-001,-7.90080651003092e-002

1.71713087287550e+004,-5.56542988066799e-001,-8.01109773574714e-002

1.74110112659224e+004,-5.56542969192640e-001,-8.12292857283576e-002

1.76540599258131e+004,-5.56542949788035e-001,-8.23632051357434e-002

1.79005014185594e+004,-5.56542929837831e-001,-8.35129535044965e-002

1.81503831063432e+004,-5.56542909326865e-001,-8.46787517990253e-002

1.84037530124975e+004,-5.56542888239440e-001,-8.58608240691379e-002

1.86606598307361e+004,-5.56542866559109e-001,-8.70593974946048e-002

1.89211529345119e+004,-5.56542844269495e-001,-8.82747024223822e-002

1.91852823865052e+004,-5.56542821353289e-001,-8.95069724188320e-002

1.94530989482457e+004,-5.56542797792968e-001,-9.07564443084876e-002

1.97246540898671e+004,-5.56542773570284e-001,-9.20233582239674e-002

1.99999999999999e+004,-5.56542748666841e-001,-9.33079576473968e-002

2.02791895958005e+004,-5.56542723063238e-001,-9.46104894629166e-002

2.05622765331213e+004,-5.56542696740041e-001,-9.59312039983278e-002

2.08493152168224e+004,-5.56542669676959e-001,-9.72703550774683e-002

2.11403608112276e+004,-5.56542641853162e-001,-9.86282000675666e-002

2.14354692507258e+004,-5.56542613247319e-001,-1.00004999928113e-001

2.17346972505211e+004,-5.56542583837434e-001,-1.01401019261720e-001

2.20381023175322e+004,-5.56542553600873e-001,-1.02816526365487e-001

2.23457427614443e+004,-5.56542522514374e-001,-1.04251793281232e-001

2.26576777059159e+004,-5.56542490554154e-001,-1.05707095848250e-001

2.29739670999406e+004,-5.56542457695565e-001,-1.07182713757288e-001

2.32946717293690e+004,-5.56542423913563e-001,-1.08678930602087e-001

2.36198532285905e+004,-5.56542389181919e-001,-1.10196033937687e-001

2.39495740923785e+004,-5.56542353474080e-001,-1.11734315331799e-001

2.42838976879009e+004,-5.56542316762701e-001,-1.13294070421722e-001

2.46228882668982e+004,-5.56542279019387e-001,-1.14875598974353e-001

2.49666109780322e+004,-5.56542240215331e-001,-1.16479204938590e-001

2.53151318794055e+004,-5.56542200320644e-001,-1.18105196508114e-001

2.56685179512580e+004,-5.56542159304743e-001,-1.19753886178374e-001

2.60268371088386e+004,-5.56542117136026e-001,-1.21425590807907e-001

2.63901582154578e+004,-5.56542073782038e-001,-1.23120631678766e-001

2.67585510957221e+004,-5.56542029209711e-001,-1.24839334555903e-001

2.71320865489533e+004,-5.56541983384694e-001,-1.26582029754732e-001

2.75108363627948e+004,-5.56541936271639e-001,-1.28349052201445e-001

2.78948733270080e+004,-5.56541887834651e-001,-1.30140741495521e-001

2.82842712474618e+004,-5.56541838036334e-001,-1.31957441980270e-001

2.86791049603164e+004,-5.56541786838518e-001,-1.33799502804408e-001

2.90794503464061e+004,-5.56541734201854e-001,-1.35667277991320e-001

2.94853843458219e+004,-5.56541680085992e-001,-1.37561126506398e-001

2.98969849726987e+004,-5.56541624449233e-001,-1.39481412327120e-001

3.03143313302078e+004,-5.56541567248932e-001,-1.41428504511049e-001

3.07375036257601e+004,-5.56541508441267e-001,-1.43402777267888e-001

3.11665831864199e+004,-5.56541447980954e-001,-1.45404610032702e-001

3.16016524745350e+004,-5.56541385821572e-001,-1.47434387536863e-001

3.20427951035848e+004,-5.56541321915467e-001,-1.49492499882011e-001

3.24900958542493e+004,-5.56541256213546e-001,-1.51579342616596e-001

3.29436406907028e+004,-5.56541188665366e-001,-1.53695316811191e-001

3.34035167771346e+004,-5.56541119219134e-001,-1.55840829134696e-001

3.38698124945009e+004,-5.56541047821389e-001,-1.58016291934682e-001

3.43426174575100e+004,-5.56540974417432e-001,-1.60222123313629e-001

3.48220225318448e+004,-5.56540898950899e-001,-1.62458747211911e-001

3.53081198516260e+004,-5.56540821363902e-001,-1.64726593487977e-001

3.58010028371187e+004,-5.56540741596864e-001,-1.67026098001751e-001

3.63007662126863e+004,-5.56540659588524e-001,-1.69357702698028e-001

3.68075060249948e+004,-5.56540575275988e-001,-1.71721855690650e-001

3.73213196614721e+004,-5.56540488594569e-001,-1.74119011350200e-001

3.78423058690237e+004,-5.56540399477667e-001,-1.76549630390733e-001

3.83705647730104e+004,-5.56540307857051e-001,-1.79014179956751e-001

3.89061978964912e+004,-5.56540213662255e-001,-1.81513133716816e-001

3.94493081797342e+004,-5.56540116821089e-001,-1.84046971950396e-001

3.99999999999998e+004,-5.56540017259284e-001,-1.86616181642540e-001

4.05583791916010e+004,-5.56539914900430e-001,-1.89221256577179e-001

4.11245530662425e+004,-5.56539809665966e-001,-1.91862697432285e-001

4.16986304336447e+004,-5.56539701475222e-001,-1.94541011875038e-001

4.22807216224550e+004,-5.56539590245167e-001,-1.97256714660987e-001

4.28709385014515e+004,-5.56539475890608e-001,-2.00010327730721e-001

4.34693945010421e+004,-5.56539358323636e-001,-2.02802380314014e-001

4.40762046350642e+004,-5.56539237454303e-001,-2.05633409026907e-001

4.46914855228886e+004,-5.56539113189780e-001,-2.08503957978846e-001

4.53153554118317e+004,-5.56538985434813e-001,-2.11414578875457e-001

4.59479341998812e+004,-5.56538854091509e-001,-2.14365831123697e-001

4.65893434587380e+004,-5.56538719059188e-001,-2.17358281941795e-001

4.72397064571810e+004,-5.56538580234246e-001,-2.20392506467182e-001

4.78991481847569e+004,-5.56538437510266e-001,-2.23469087866756e-001

4.85677953758016e+004,-5.56538290777969e-001,-2.26588617448114e-001

4.92457765337964e+004,-5.56538139924782e-001,-2.29751694776734e-001

4.99332219560642e+004,-5.56537984835178e-001,-2.32958927786820e-001

5.06302637588109e+004,-5.56537825390277e-001,-2.36210932901720e-001

5.13370359025159e+004,-5.56537661467871e-001,-2.39508335150804e-001

5.20536742176771e+004,-5.56537492942529e-001,-2.42851768289089e-001

5.27803164309155e+004,-5.56537319685007e-001,-2.46241874921258e-001

5.35171021914442e+004,-5.56537141562572e-001,-2.49679306623676e-001

5.42641730979066e+004,-5.56536958438931e-001,-2.53164724068908e-001

5.50216727255895e+004,-5.56536770173786e-001,-2.56698797155150e-001

5.57897466540159e+004,-5.56536576622972e-001,-2.60282205133225e-001

5.65685424949235e+004,-5.56536377638221e-001,-2.63915636738372e-001

5.73582099206328e+004,-5.56536173067374e-001,-2.67599790320523e-001

5.81589006928121e+004,-5.56535962753687e-001,-2.71335373982375e-001

5.89707686916437e+004,-5.56535746536265e-001,-2.75123105711927e-001

5.97939699453972e+004,-5.56535524249594e-001,-2.78963713522793e-001

6.06286626604156e+004,-5.56535295723603e-001,-2.82857935593123e-001

6.14750072515201e+004,-5.56535060783488e-001,-2.86806520408021e-001

6.23331663728396e+004,-5.56534819249493e-001,-2.90810226904012e-001

6.32033049490698e+004,-5.56534570936825e-001,-2.94869824614216e-001

6.40855902071694e+004,-5.56534315655717e-001,-2.98986093816305e-001

6.49801917084985e+004,-5.56534053210816e-001,-3.03159825683723e-001

6.58872813814055e+004,-5.56533783401511e-001,-3.07391822436916e-001

6.68070335542691e+004,-5.56533506021631e-001,-3.11682897497611e-001

6.77396249890018e+004,-5.56533220859140e-001,-3.16033875645680e-001

6.86852349150199e+004,-5.56532927696090e-001,-3.20445593178356e-001

6.96440450636895e+004,-5.56532626308527e-001,-3.24918898069900e-001

7.06162397032520e+004,-5.56532316466199e-001,-3.29454650135928e-001

7.16020056742374e+004,-5.56531997932467e-001,-3.34053721197636e-001

7.26015324253724e+004,-5.56531670464059e-001,-3.38716995250988e-001

7.36150120499896e+004,-5.56531333811035e-001,-3.43445368635473e-001

7.46426393229441e+004,-5.56530987716302e-001,-3.48239750208141e-001

7.56846117380472e+004,-5.56530631915874e-001,-3.53101061516093e-001

7.67411295460207e+004,-5.56530266138056e-001,-3.58030236976997e-001

7.78123957929823e+004,-5.56529890103961e-001,-3.63028224056010e-001

7.88986163594682e+004,-5.56529503526729e-001,-3.68095983449762e-001

7.99999999999995e+004,-5.56529106111648e-001,-3.73234489270685e-001

8.11167583832018e+004,-5.56528697555628e-001,-3.78444729235201e-001

8.22491061324848e+004,-5.56528277547317e-001,-3.83727704852924e-001

8.33972608672892e+004,-5.56527845766757e-001,-3.89084431619235e-001

8.45614432449099e+004,-5.56527401884846e-001,-3.94515939212920e-001

8.57418770029029e+004,-5.56526945563658e-001,-4.00023271691278e-001

8.69387890020841e+004,-5.56526476455689e-001,-4.05607487693528e-001

8.81524092701283e+004,-5.56525994203763e-001,-4.11269660644031e-001

8.93829710457770e+004,-5.56525498441058e-001,-4.17010878957510e-001

9.06307108236633e+004,-5.56524988790230e-001,-4.22832246251371e-001

9.18958683997622e+004,-5.56524464863779e-001,-4.28734881555470e-001

9.31786869174758e+004,-5.56523926263233e-001,-4.34719919529850e-001

9.44794129143618e+004,-5.56523372579316e-001,-4.40788510680926e-001

9.57982963695136e+004,-5.56522803391206e-001,-4.46941821585799e-001

9.71355907516031e+004,-5.56522218266632e-001,-4.53181035114059e-001

9.84915530675926e+004,-5.56521616761157e-001,-4.59507350658608e-001

9.98664439121282e+004,-5.56520998418277e-001,-4.65921984363550e-001

1.01260527517622e+005,-5.56520362768740e-001,-4.72426169361154e-001

1.02674071805032e+005,-5.56519709330407e-001,-4.79021156007752e-001

1.04107348435354e+005,-5.56519037607725e-001,-4.85708212125558e-001

1.05560632861831e+005,-5.56518347091544e-001,-4.92488623246511e-001

1.07034204382888e+005,-5.56517637258757e-001,-4.99363692859222e-001

1.08528346195813e+005,-5.56516907571716e-001,-5.06334742662134e-001

1.10043345451179e+005,-5.56516157478020e-001,-5.13403112816177e-001

1.11579493308032e+005,-5.56515386410020e-001,-5.20570162204663e-001

1.13137084989847e+005,-5.56514593784481e-001,-5.27837268693832e-001

1.14716419841265e+005,-5.56513779002150e-001,-5.35205829399526e-001

1.16317801385624e+005,-5.56512941447319e-001,-5.42677260955460e-001

1.17941537383287e+005,-5.56512080487371e-001,-5.50252999787115e-001

1.19587939890794e+005,-5.56511195472244e-001,-5.57934502389190e-001

1.21257325320831e+005,-5.56510285734147e-001,-5.65723245604654e-001

1.22950014503040e+005,-5.56509350586988e-001,-5.73620726911316e-001

1.24666332745679e+005,-5.56508389325871e-001,-5.81628464709325e-001

1.26406609898139e+005,-5.56507401226533e-001,-5.89747998615482e-001

1.28171180414339e+005,-5.56506385545084e-001,-5.97980889757992e-001

1.29960383416997e+005,-5.56505341517145e-001,-6.06328721080242e-001

1.31774562762811e+005,-5.56504268357565e-001,-6.14793097644075e-001

1.33614067108538e+005,-5.56503165259749e-001,-6.23375646940450e-001

1.35479249978003e+005,-5.56502031395135e-001,-6.32078019203159e-001

1.37370469830040e+005,-5.56500865912619e-001,-6.40901887727337e-001

1.39288090127379e+005,-5.56499667937841e-001,-6.49848949193268e-001

1.41232479406504e+005,-5.56498436572875e-001,-6.58920923991692e-001

1.43204011348474e+005,-5.56497170895211e-001,-6.68119556558681e-001

1.45203064850745e+005,-5.56495869957451e-001,-6.77446615710064e-001

1.47230024099979e+005,-5.56494532786463e-001,-6.86903894984283e-001

1.49285278645888e+005,-5.56493158382772e-001,-6.96493212988426e-001

1.51369223476094e+005,-5.56491745719976e-001,-7.06216413749255e-001

1.53482259092041e+005,-5.56490293743759e-001,-7.16075367069746e-001

1.55624791585964e+005,-5.56488801371566e-001,-7.26071968889603e-001

1.57797232718936e+005,-5.56487267491520e-001,-7.36208141652490e-001

1.59999999999999e+005,-5.56485690961908e-001,-7.46485834676871e-001

1.62233516766403e+005,-5.56484070610208e-001,-7.56907024533021e-001

1.64498212264969e+005,-5.56482405232580e-001,-7.67473715424312e-001

1.66794521734578e+005,-5.56480693592827e-001,-7.78187939575676e-001

1.69122886489819e+005,-5.56478934421479e-001,-7.89051757626416e-001

1.71483754005805e+005,-5.56477126415483e-001,-8.00067259027044e-001

1.73877578004168e+005,-5.56475268236614e-001,-8.11236562445932e-001

1.76304818540256e+005,-5.56473358511190e-001,-8.22561816176864e-001

1.78765942091554e+005,-5.56471395828802e-001,-8.34045198555903e-001

1.81261421647326e+005,-5.56469378741777e-001,-8.45688918381392e-001

1.83791736799524e+005,-5.56467305763702e-001,-8.57495215344125e-001

1.86357373834951e+005,-5.56465175369009e-001,-8.69466360457252e-001

1.88958825828723e+005,-5.56462985991621e-001,-8.81604656499112e-001

1.91596592739027e+005,-5.56460736024196e-001,-8.93912438456334e-001

1.94271181503206e+005,-5.56458423816923e-001,-9.06392073977899e-001

1.96983106135185e+005,-5.56456047676695e-001,-9.19045963832577e-001

1.99732887824256e+005,-5.56453605865729e-001,-9.31876542375015e-001

2.02521055035243e+005,-5.56451096600850e-001,-9.44886278015697e-001

2.05348143610063e+005,-5.56448518052092e-001,-9.58077673700672e-001

2.08214696870707e+005,-5.56445868341734e-001,-9.71453267396160e-001

2.11121265723661e+005,-5.56443145543254e-001,-9.85015632579773e-001

2.14068408765776e+005,-5.56440347679736e-001,-9.98767378741007e-001

2.17056692391625e+005,-5.56437472723181e-001,-1.01271115188550e+000

2.20086690902357e+005,-5.56434518593003e-001,-1.02684963504948e+000

2.23158986616063e+005,-5.56431483154912e-001,-1.04118554881909e+000

2.26274169979693e+005,-5.56428364219439e-001,-1.05572165185991e+000

2.29432839682530e+005,-5.56425159541032e-001,-1.07046074144991e+000

2.32635602771247e+005,-5.56421866816451e-001,-1.08540565402441e+000

2.35883074766574e+005,-5.56418483683530e-001,-1.10055926572566e+000

2.39175879781588e+005,-5.56415007719833e-001,-1.11592449296162e+000

2.42514650641661e+005,-5.56411436441264e-001,-1.13150429297253e+000

2.45900029006080e+005,-5.56407767300778e-001,-1.14730166440437e+000

2.49332665491357e+005,-5.56403997686862e-001,-1.16331964789265e+000

2.52813219796278e+005,-5.56400124921942e-001,-1.17956132665301e+000

2.56342360828676e+005,-5.56396146261420e-001,-1.19602982707942e+000

2.59920766833993e+005,-5.56392058891595e-001,-1.21272831935334e+000

2.63549125525621e+005,-5.56387859928610e-001,-1.22966001805930e+000

2.67228134217075e+005,-5.56383546416677e-001,-1.24682818281025e+000

2.70958499956006e+005,-5.56379115326678e-001,-1.26423611888193e+000

2.74740939660078e+005,-5.56374563554507e-001,-1.28188717785546e+000

2.78576180254757e+005,-5.56369887919583e-001,-1.29978475826936e+000

2.82464958813007e+005,-5.56365085163130e-001,-1.31793230628247e+000

2.86408022696948e+005,-5.56360151946673e-001,-1.33633331634270e+000

2.90406129701488e+005,-5.56355084850336e-001,-1.35499133186914e+000

2.94460048199957e+005,-5.56349880371183e-001,-1.37390994594158e+000

2.98570557291775e+005,-5.56344534921657e-001,-1.39309280199994e+000

3.02738446952187e+005,-5.56339044827666e-001,-1.41254359455514e+000

3.06964518184081e+005,-5.56333406327085e-001,-1.43226606990820e+000

3.11249583171928e+005,-5.56327615568027e-001,-1.45226402688045e+000

3.15594465437872e+005,-5.56321668606976e-001,-1.47254131755479e+000

3.19999999999997e+005,-5.56315561407155e-001,-1.49310184802589e+000

3.24467033532806e+005,-5.56309289836776e-001,-1.51394957916234e+000

3.28996424529938e+005,-5.56302849667211e-001,-1.53508852737920e+000

3.33589043469155e+005,-5.56296236571289e-001,-1.55652276542123e+000

3.38245772979638e+005,-5.56289446121473e-001,-1.57825642315768e+000

3.42967508011610e+005,-5.56282473788099e-001,-1.60029368838826e+000

3.47755156008335e+005,-5.56275314937550e-001,-1.62263880765997e+000

3.52609637080511e+005,-5.56267964830530e-001,-1.64529608709657e+000

3.57531884183106e+005,-5.56260418620164e-001,-1.66826989323865e+000

3.62522843294651e+005,-5.56252671350323e-001,-1.69156465389669e+000

3.67583473599047e+005,-5.56244717953707e-001,-1.71518485901485e+000

3.72714747669902e+005,-5.56236553250175e-001,-1.73913506154823e+000

3.77917651657445e+005,-5.56228171944812e-001,-1.76341987835197e+000

3.83193185478053e+005,-5.56219568626299e-001,-1.78804399108294e+000

3.88542363006410e+005,-5.56210737765002e-001,-1.81301214711383e+000

3.93966212270369e+005,-5.56201673711339e-001,-1.83832916046055e+000

3.99465775648511e+005,-5.56192370693842e-001,-1.86399991272316e+000

4.05042110070485e+005,-5.56182822817651e-001,-1.89002935403819e+000

4.10696287220124e+005,-5.56173024062533e-001,-1.91642250404665e+000

4.16429393741414e+005,-5.56162968281396e-001,-1.94318445287389e+000

4.22242531447321e+005,-5.56152649198429e-001,-1.97032036212423e+000

4.28136817531551e+005,-5.56142060407555e-001,-1.99783546588859e+000

4.34113384783250e+005,-5.56131195370707e-001,-2.02573507176733e+000

4.40173381804713e+005,-5.56120047416197e-001,-2.05402456190593e+000

4.46317973232124e+005,-5.56108609737186e-001,-2.08270939404685e+000

4.52548339959385e+005,-5.56096875389971e-001,-2.11179510259472e+000

4.58865679365059e+005,-5.56084837292635e-001,-2.14128729969600e+000

4.65271205542494e+005,-5.56072488223415e-001,-2.17119167633542e+000

4.71766149533147e+005,-5.56059820819189e-001,-2.20151400344573e+000

4.78351759563174e+005,-5.56046827574113e-001,-2.23226013303409e+000

4.85029301283321e+005,-5.56033500838163e-001,-2.26343599932296e+000

4.91800058012158e+005,-5.56019832815729e-001,-2.29504761990777e+000

4.98665330982714e+005,-5.56005815564335e-001,-2.32710109692942e+000

5.05626439592555e+005,-5.55991440993281e-001,-2.35960261826382e+000

5.12684721657352e+005,-5.55976700862432e-001,-2.39255845872691e+000

5.19841533667984e+005,-5.55961586780783e-001,-2.42597498129758e+000

5.27098251051240e+005,-5.55946090205600e-001,-2.45985863835438e+000

5.34456268434150e+005,-5.55930202440897e-001,-2.49421597293298e+000

5.41916999912011e+005,-5.55913914636609e-001,-2.52905361999729e+000

