Freq.,VOut,OutRef

1.00000000000000e+004,-4.01947530074877e+001,-2.76506509964737e-001

1.01395947979003e+004,-4.01947542496086e+001,-2.80366377110402e-001

1.02811382665607e+004,-4.01947555266498e+001,-2.84280125148177e-001

1.04246576084112e+004,-4.01947568395928e+001,-2.88248506191962e-001

1.05701804056138e+004,-4.01947581894468e+001,-2.92272282853857e-001

1.07177346253629e+004,-4.01947595772497e+001,-2.96352228387064e-001

1.08673486252606e+004,-4.01947610040683e+001,-3.00489126839500e-001

1.10190511587661e+004,-4.01947624709994e+001,-3.04683773202779e-001

1.11728713807222e+004,-4.01947639791706e+001,-3.08936973563297e-001

1.13288388529580e+004,-4.01947655297414e+001,-3.13249545257883e-001

1.14869835499703e+004,-4.01947671239036e+001,-3.17622317032325e-001

1.16473358646846e+004,-4.01947687628829e+001,-3.22056129197046e-001

1.18099266142953e+004,-4.01947704479391e+001,-3.26551833792823e-001

1.19747870461893e+004,-4.01947721803674e+001,-3.31110294751602e-001

1.21419488439505e+004,-4.01947739614998e+001,-3.35732388062700e-001

1.23114441334492e+004,-4.01947757927053e+001,-3.40419001940960e-001

1.24833054890161e+004,-4.01947776753917e+001,-3.45171036999074e-001

1.26575659397028e+004,-4.01947796110060e+001,-3.49989406418774e-001

1.28342589756290e+004,-4.01947816010364e+001,-3.54875036125694e-001

1.30134185544193e+004,-4.01947836470126e+001,-3.59828864968327e-001

1.31950791077289e+004,-4.01947857505073e+001,-3.64851844899580e-001

1.33792755478611e+004,-4.01947879131375e+001,-3.69944941155425e-001

1.35660432744767e+004,-4.01947901365655e+001,-3.75109132445400e-001

1.37554181813974e+004,-4.01947924225006e+001,-3.80345411136642e-001

1.39474366635040e+004,-4.01947947727001e+001,-3.85654783444937e-001

1.41421356237309e+004,-4.01947971889703e+001,-3.91038269630661e-001

1.43395524801583e+004,-4.01947996731687e+001,-3.96496904191369e-001

1.45397251732031e+004,-4.01948022272051e+001,-4.02031736061202e-001

1.47426921729110e+004,-4.01948048530424e+001,-4.07643828814867e-001

1.49484924863494e+004,-4.01948075526993e+001,-4.13334260867297e-001

1.51571656651040e+004,-4.01948103282510e+001,-4.19104125684303e-001

1.53687518128801e+004,-4.01948131818309e+001,-4.24954531991366e-001

1.55832915932100e+004,-4.01948161156324e+001,-4.30886603986001e-001

1.58008262372675e+004,-4.01948191319109e+001,-4.36901481553296e-001

1.60213975517924e+004,-4.01948222329849e+001,-4.43000320485977e-001

1.62450479271247e+004,-4.01948254212380e+001,-4.49184292705750e-001

1.64718203453514e+004,-4.01948286991209e+001,-4.55454586487310e-001

1.67017583885674e+004,-4.01948320691533e+001,-4.61812406686982e-001

1.69349062472505e+004,-4.01948355339256e+001,-4.68258974974377e-001

1.71713087287550e+004,-4.01948390961011e+001,-4.74795530066101e-001

1.74110112659224e+004,-4.01948427584176e+001,-4.81423327965335e-001

1.76540599258131e+004,-4.01948465236906e+001,-4.88143642198364e-001

1.79005014185594e+004,-4.01948503948140e+001,-4.94957764064080e-001

1.81503831063432e+004,-4.01948543747633e+001,-5.01867002879738e-001

1.84037530124975e+004,-4.01948584665980e+001,-5.08872686229591e-001

1.86606598307361e+004,-4.01948626734628e+001,-5.15976160225104e-001

1.89211529345119e+004,-4.01948669985915e+001,-5.23178789757838e-001

1.91852823865052e+004,-4.01948714453087e+001,-5.30481958763014e-001

1.94530989482457e+004,-4.01948760170319e+001,-5.37887070487607e-001

1.97246540898671e+004,-4.01948807172753e+001,-5.45395547755631e-001

1.99999999999999e+004,-4.01948855496515e+001,-5.53008833242703e-001

2.02791895958005e+004,-4.01948905178749e+001,-5.60728389753407e-001

2.05622765331213e+004,-4.01948956257640e+001,-5.68555700500518e-001

2.08493152168224e+004,-4.01949008772447e+001,-5.76492269391143e-001

2.11403608112276e+004,-4.01949062763535e+001,-5.84539621311735e-001

2.14354692507258e+004,-4.01949118272400e+001,-5.92699302424465e-001

2.17346972505211e+004,-4.01949175341707e+001,-6.00972880461732e-001

2.20381023175322e+004,-4.01949234015317e+001,-6.09361945026984e-001

2.23457427614443e+004,-4.01949294338328e+001,-6.17868107897621e-001

2.26576777059159e+004,-4.01949356357102e+001,-6.26493003338031e-001

2.29739670999406e+004,-4.01949420119303e+001,-6.35238288409010e-001

2.32946717293690e+004,-4.01949485673940e+001,-6.44105643286931e-001

2.36198532285905e+004,-4.01949553071393e+001,-6.53096771585840e-001

2.39495740923785e+004,-4.01949622363462e+001,-6.62213400683432e-001

2.42838976879009e+004,-4.01949693603400e+001,-6.71457282052852e-001

2.46228882668982e+004,-4.01949766845961e+001,-6.80830191596216e-001

2.49666109780322e+004,-4.01949842147431e+001,-6.90333929988111e-001

2.53151318794055e+004,-4.01949919565683e+001,-6.99970323017606e-001

2.56685179512580e+004,-4.01949999160215e+001,-7.09741221938670e-001

2.60268371088386e+004,-4.01950080992196e+001,-7.19648503826336e-001

2.63901582154578e+004,-4.01950165124516e+001,-7.29694071933540e-001

2.67585510957221e+004,-4.01950251621829e+001,-7.39879856058062e-001

2.71320865489533e+004,-4.01950340550608e+001,-7.50207812910755e-001

2.75108363627948e+004,-4.01950431979194e+001,-7.60679926489970e-001

2.78948733270080e+004,-4.01950525977847e+001,-7.71298208461389e-001

2.82842712474618e+004,-4.01950622618803e+001,-7.82064698544129e-001

2.86791049603164e+004,-4.01950721976327e+001,-7.92981464899803e-001

2.90794503464061e+004,-4.01950824126770e+001,-8.04050604528703e-001

2.94853843458219e+004,-4.01950929148629e+001,-8.15274243671818e-001

2.98969849726987e+004,-4.01951037122605e+001,-8.26654538216156e-001

3.03143313302078e+004,-4.01951148131669e+001,-8.38193674108431e-001

3.07375036257601e+004,-4.01951262261122e+001,-8.49893867772347e-001

3.11665831864199e+004,-4.01951379598661e+001,-8.61757366533147e-001

3.16016524745350e+004,-4.01951500234447e+001,-8.73786449046221e-001

3.20427951035848e+004,-4.01951624261176e+001,-8.85983425733820e-001

3.24900958542493e+004,-4.01951751774145e+001,-8.98350639226379e-001

3.29436406907028e+004,-4.01951882871331e+001,-9.10890464810141e-001

3.34035167771346e+004,-4.01952017653462e+001,-9.23605310881041e-001

3.38698124945009e+004,-4.01952156224096e+001,-9.36497619404664e-001

3.43426174575100e+004,-4.01952298689701e+001,-9.49569866383800e-001

3.48220225318448e+004,-4.01952445159733e+001,-9.62824562330315e-001

3.53081198516260e+004,-4.01952595746727e+001,-9.76264252743921e-001

3.58010028371187e+004,-4.01952750566377e+001,-9.89891518600067e-001

3.63007662126863e+004,-4.01952909737624e+001,-1.00370897684159e+000

3.68075060249948e+004,-4.01953073382755e+001,-1.01771928087849e+000

3.73213196614721e+004,-4.01953241627488e+001,-1.03192512109318e+000

3.78423058690237e+004,-4.01953414601075e+001,-1.04632922535514e+000

3.83705647730104e+004,-4.01953592436395e+001,-1.06093435954117e+000

3.89061978964912e+004,-4.01953775270061e+001,-1.07574332806224e+000

3.94493081797342e+004,-4.01953963242522e+001,-1.09075897439789e+000

3.99999999999998e+004,-4.01954156498173e+001,-1.10598418163993e+000

4.05583791916010e+004,-4.01954355185463e+001,-1.12142187303941e+000

4.11245530662425e+004,-4.01954559457008e+001,-1.13707501256605e+000

4.16986304336447e+004,-4.01954769469712e+001,-1.15294660547162e+000

4.22807216224550e+004,-4.01954985384886e+001,-1.16903969886156e+000

4.28709385014515e+004,-4.01955207368366e+001,-1.18535738227707e+000

4.34693945010421e+004,-4.01955435590650e+001,-1.20190278828143e+000

4.40762046350642e+004,-4.01955670227019e+001,-1.21867909305658e+000

4.46914855228886e+004,-4.01955911457678e+001,-1.23568951700819e+000

4.53153554118317e+004,-4.01956159467889e+001,-1.25293732537701e+000

4.59479341998812e+004,-4.01956414448117e+001,-1.27042582886007e+000

4.65893434587380e+004,-4.01956676594174e+001,-1.28815838424010e+000

4.72397064571810e+004,-4.01956946107368e+001,-1.30613839502342e+000

4.78991481847569e+004,-4.01957223194659e+001,-1.32436931208597e+000

4.85677953758016e+004,-4.01957508068815e+001,-1.34285463432934e+000

4.92457765337964e+004,-4.01957800948577e+001,-1.36159790934358e+000

4.99332219560642e+004,-4.01958102058825e+001,-1.38060273408202e+000

5.06302637588109e+004,-4.01958411630752e+001,-1.39987275554257e+000

5.13370359025159e+004,-4.01958729902038e+001,-1.41941167145976e+000

5.20536742176771e+004,-4.01959057117034e+001,-1.43922323100480e+000

5.27803164309155e+004,-4.01959393526947e+001,-1.45931123549719e+000

5.35171021914442e+004,-4.01959739390033e+001,-1.47967953912330e+000

5.42641730979066e+004,-4.01960094971797e+001,-1.50033204966734e+000

5.50216727255895e+004,-4.01960460545189e+001,-1.52127272925005e+000

5.57897466540159e+004,-4.01960836390822e+001,-1.54250559507842e+000

5.65685424949235e+004,-4.01961222797177e+001,-1.56403472020492e+000

5.73582099206328e+004,-4.01961620060831e+001,-1.58586423429773e+000

5.81589006928121e+004,-4.01962028486679e+001,-1.60799832442077e+000

5.89707686916437e+004,-4.01962448388167e+001,-1.63044123582344e+000

5.97939699453972e+004,-4.01962880087535e+001,-1.65319727274291e+000

6.06286626604156e+004,-4.01963323916058e+001,-1.67627079921516e+000

6.14750072515201e+004,-4.01963780214301e+001,-1.69966623989808e+000

6.23331663728396e+004,-4.01964249332383e+001,-1.72338808090441e+000

6.32033049490698e+004,-4.01964731630236e+001,-1.74744087064714e+000

6.40855902071694e+004,-4.01965227477885e+001,-1.77182922069579e+000

6.49801917084985e+004,-4.01965737255731e+001,-1.79655780664256e+000

6.58872813814055e+004,-4.01966261354835e+001,-1.82163136898265e+000

6.68070335542691e+004,-4.01966800177222e+001,-1.84705471400387e+000

6.77396249890018e+004,-4.01967354136187e+001,-1.87283271468830e+000

6.86852349150199e+004,-4.01967923656606e+001,-1.89897031162857e+000

6.96440450636895e+004,-4.01968509175262e+001,-1.92547251395205e+000

7.06162397032520e+004,-4.01969111141178e+001,-1.95234440026031e+000

7.16020056742374e+004,-4.01969730015958e+001,-1.97959111957931e+000

7.26015324253724e+004,-4.01970366274139e+001,-2.00721789232380e+000

7.36150120499896e+004,-4.01971020403548e+001,-2.03523001127196e+000

7.46426393229441e+004,-4.01971692905683e+001,-2.06363284255386e+000

7.56846117380472e+004,-4.01972384296082e+001,-2.09243182665442e+000

7.67411295460207e+004,-4.01973095104723e+001,-2.12163247942684e+000

7.78123957929823e+004,-4.01973825876426e+001,-2.15124039311969e+000

7.88986163594682e+004,-4.01974577171261e+001,-2.18126123742033e+000

7.99999999999995e+004,-4.01975349564982e+001,-2.21170076050645e+000

8.11167583832018e+004,-4.01976143649458e+001,-2.24256479011626e+000

8.22491061324848e+004,-4.01976960033122e+001,-2.27385923462968e+000

8.33972608672892e+004,-4.01977799341437e+001,-2.30559008416419e+000

8.45614432449099e+004,-4.01978662217367e+001,-2.33776341168418e+000

8.57418770029029e+004,-4.01979549321863e+001,-2.37038537412575e+000

8.69387890020841e+004,-4.01980461334369e+001,-2.40346221353397e+000

8.81524092701283e+004,-4.01981398953331e+001,-2.43700025821680e+000

8.93829710457770e+004,-4.01982362896727e+001,-2.47100592391173e+000

9.06307108236633e+004,-4.01983353902614e+001,-2.50548571496824e+000

9.18958683997622e+004,-4.01984372729685e+001,-2.54044622554421e+000

9.31786869174758e+004,-4.01985420157836e+001,-2.57589414081911e+000

9.44794129143618e+004,-4.01986496988765e+001,-2.61183623822037e+000

9.57982963695136e+004,-4.01987604046573e+001,-2.64827938866610e+000

9.71355907516031e+004,-4.01988742178385e+001,-2.68523055782346e+000

9.84915530675926e+004,-4.01989912254991e+001,-2.72269680738200e+000

9.98664439121282e+004,-4.01991115171504e+001,-2.76068529634304e+000

1.01260527517622e+005,-4.01992351848030e+001,-2.79920328232521e+000

1.02674071805032e+005,-4.01993623230368e+001,-2.83825812288505e+000

1.04107348435354e+005,-4.01994930290716e+001,-2.87785727685472e+000

1.05560632861831e+005,-4.01996274028407e+001,-2.91800830569618e+000

1.07034204382888e+005,-4.01997655470657e+001,-2.95871887486989e+000

1.08528346195813e+005,-4.01999075673340e+001,-2.99999675522287e+000

1.10043345451179e+005,-4.02000535721780e+001,-3.04184982439034e+000

1.11579493308032e+005,-4.02002036731564e+001,-3.08428606821687e+000

1.13137084989847e+005,-4.02003579849383e+001,-3.12731358219308e+000

1.14716419841265e+005,-4.02005166253887e+001,-3.17094057290799e+000

1.16317801385624e+005,-4.02006797156571e+001,-3.21517535952179e+000

1.17941537383287e+005,-4.02008473802681e+001,-3.26002637525333e+000

1.19587939890794e+005,-4.02010197472145e+001,-3.30550216888473e+000

1.21257325320831e+005,-4.02011969480531e+001,-3.35161140628556e+000

1.22950014503040e+005,-4.02013791180029e+001,-3.39836287195215e+000

1.24666332745679e+005,-4.02015663960457e+001,-3.44576547056615e+000

1.26406609898139e+005,-4.02017589250304e+001,-3.49382822856997e+000

1.28171180414339e+005,-4.02019568517787e+001,-3.54256029576043e+000

1.29960383416997e+005,-4.02021603271951e+001,-3.59197094689949e+000

1.31774562762811e+005,-4.02023695063784e+001,-3.64206958334460e+000

1.33614067108538e+005,-4.02025845487375e+001,-3.69286573469484e+000

1.35479249978003e+005,-4.02028056181095e+001,-3.74436906045644e+000

1.37370469830040e+005,-4.02030328828813e+001,-3.79658935172700e+000

1.39288090127379e+005,-4.02032665161140e+001,-3.84953653289572e+000

1.41232479406504e+005,-4.02035066956717e+001,-3.90322066336430e+000

1.43204011348474e+005,-4.02037536043523e+001,-3.95765193928390e+000

1.45203064850745e+005,-4.02040074300227e+001,-4.01284069531205e+000

1.47230024099979e+005,-4.02042683657578e+001,-4.06879740638662e+000

1.49285278645888e+005,-4.02045366099820e+001,-4.12553268951931e+000

1.51369223476094e+005,-4.02048123666159e+001,-4.18305730560542e+000

1.53482259092041e+005,-4.02050958452259e+001,-4.24138216125375e+000

1.55624791585964e+005,-4.02053872611783e+001,-4.30051831063439e+000

1.57797232718936e+005,-4.02056868357967e+001,-4.36047695734366e+000

1.59999999999999e+005,-4.02059947965248e+001,-4.42126945628755e+000

1.62233516766403e+005,-4.02063113770919e+001,-4.48290731558512e+000

1.64498212264969e+005,-4.02066368176846e+001,-4.54540219848619e+000

1.66794521734578e+005,-4.02069713651209e+001,-4.60876592531083e+000

1.69122886489819e+005,-4.02073152730308e+001,-4.67301047540387e+000

1.71483754005805e+005,-4.02076688020401e+001,-4.73814798910850e+000

1.73877578004168e+005,-4.02080322199601e+001,-4.80419076975739e+000

1.76304818540256e+005,-4.02084058019814e+001,-4.87115128568029e+000

1.78765942091554e+005,-4.02087898308730e+001,-4.93904217223049e+000

1.81261421647326e+005,-4.02091845971872e+001,-5.00787623382648e+000

1.83791736799524e+005,-4.02095903994683e+001,-5.07766644601233e+000

1.86357373834951e+005,-4.02100075444681e+001,-5.14842595753342e+000

1.88958825828723e+005,-4.02104363473663e+001,-5.22016809242961e+000

1.91596592739027e+005,-4.02108771319966e+001,-5.29290635214381e+000

1.94271181503206e+005,-4.02113302310783e+001,-5.36665441764721e+000

1.96983106135185e+005,-4.02117959864543e+001,-5.44142615157949e+000

1.99732887824256e+005,-4.02122747493351e+001,-5.51723560040494e+000

2.02521055035243e+005,-4.02127668805484e+001,-5.59409699658311e+000

2.05348143610063e+005,-4.02132727507954e+001,-5.67202476075495e+000

2.08214696870707e+005,-4.02137927409138e+001,-5.75103350394162e+000

2.11121265723661e+005,-4.02143272421469e+001,-5.83113802975910e+000

2.14068408765776e+005,-4.02148766564196e+001,-5.91235333664450e+000

2.17056692391625e+005,-4.02154413966213e+001,-5.99469462009667e+000

2.20086690902357e+005,-4.02160218868961e+001,-6.07817727492794e+000

2.23158986616063e+005,-4.02166185629395e+001,-6.16281689752902e+000

2.26274169979693e+005,-4.02172318723029e+001,-6.24862928814460e+000

2.29432839682530e+005,-4.02178622747057e+001,-6.33563045316007e+000

2.32635602771247e+005,-4.02185102423547e+001,-6.42383660739776e+000

2.35883074766574e+005,-4.02191762602712e+001,-6.51326417642354e+000

2.39175879781588e+005,-4.02198608266268e+001,-6.60392979886176e+000

2.42514650641661e+005,-4.02205644530858e+001,-6.69585032871859e+000

2.45900029006080e+005,-4.02212876651579e+001,-6.78904283771259e+000

2.49332665491357e+005,-4.02220310025572e+001,-6.88352461761196e+000

2.52813219796278e+005,-4.02227950195717e+001,-6.97931318257722e+000

2.56342360828676e+005,-4.02235802854398e+001,-7.07642627150911e+000

2.59920766833993e+005,-4.02243873847373e+001,-7.17488185040016e+000

2.63549125525621e+005,-4.02252169177726e+001,-7.27469811469052e+000

2.67228134217075e+005,-4.02260695009907e+001,-7.37589349162295e+000

2.70958499956006e+005,-4.02269457673880e+001,-7.47848664260235e+000

2.74740939660078e+005,-4.02278463669357e+001,-7.58249646555240e+000

2.78576180254757e+005,-4.02287719670128e+001,-7.68794209727254e+000

2.82464958813007e+005,-4.02297232528497e+001,-7.79484291579159e+000

2.86408022696948e+005,-4.02307009279815e+001,-7.90321854271848e+000

2.90406129701488e+005,-4.02317057147116e+001,-8.01308884558791e+000

2.94460048199957e+005,-4.02327383545859e+001,-8.12447394019915e+000

2.98570557291775e+005,-4.02337996088773e+001,-8.23739419294768e+000

3.02738446952187e+005,-4.02348902590811e+001,-8.35187022314851e+000

3.06964518184081e+005,-4.02360111074214e+001,-8.46792290534739e+000

3.11249583171928e+005,-4.02371629773687e+001,-8.58557337162130e+000

3.15594465437872e+005,-4.02383467141684e+001,-8.70484301386470e+000

3.19999999999997e+005,-4.02395631853811e+001,-8.82575348606021e+000

3.24467033532806e+005,-4.02408132814339e+001,-8.94832670653330e+000

3.28996424529938e+005,-4.02420979161846e+001,-9.07258486018679e+000

3.33589043469155e+005,-4.02434180274965e+001,-9.19855040071585e+000

3.38245772979638e+005,-4.02447745778262e+001,-9.32624605279977e+000

3.42967508011610e+005,-4.02461685548226e+001,-9.45569481426992e+000

3.47755156008335e+005,-4.02476009719398e+001,-9.58691995825072e+000

3.52609637080511e+005,-4.02490728690609e+001,-9.71994503527197e+000

3.57531884183106e+005,-4.02505853131354e+001,-9.85479387535124e+000

3.62522843294651e+005,-4.02521393988293e+001,-9.99149059004260e+000

3.67583473599047e+005,-4.02537362491875e+001,-1.01300595744508e+001

3.72714747669902e+005,-4.02553770163103e+001,-1.02705255092071e+001

3.77917651657445e+005,-4.02570628820422e+001,-1.04129133624065e+001

3.83193185478053e+005,-4.02587950586741e+001,-1.05572483915012e+001

3.88542363006410e+005,-4.02605747896593e+001,-1.07035561451509e+001

3.93966212270369e+005,-4.02624033503431e+001,-1.08518624650232e+001

3.99465775648511e+005,-4.02642820487052e+001,-1.10021934875465e+001

4.05042110070485e+005,-4.02662122261169e+001,-1.11545756456082e+001

4.10696287220124e+005,-4.02681952581114e+001,-1.13090356701977e+001

4.16429393741414e+005,-4.02702325551681e+001,-1.14656005919913e+001

4.22242531447321e+005,-4.02723255635114e+001,-1.16242977428745e+001

4.28136817531551e+005,-4.02744757659225e+001,-1.17851547574011e+001

4.34113384783250e+005,-4.02766846825668e+001,-1.19481995741837e+001

4.40173381804713e+005,-4.02789538718341e+001,-1.21134604372133e+001

4.46317973232124e+005,-4.02812849311935e+001,-1.22809658971060e+001

4.52548339959385e+005,-4.02836794980630e+001,-1.24507448122709e+001

4.58865679365059e+005,-4.02861392506931e+001,-1.26228263499985e+001

4.65271205542494e+005,-4.02886659090642e+001,-1.27972399874644e+001

4.71766149533147e+005,-4.02912612357988e+001,-1.29740155126447e+001

4.78351759563174e+005,-4.02939270370883e+001,-1.31531830251420e+001

4.85029301283321e+005,-4.02966651636339e+001,-1.33347729369138e+001

4.91800058012158e+005,-4.02994775116009e+001,-1.35188159729050e+001

4.98665330982714e+005,-4.03023660235890e+001,-1.37053431715752e+001

5.05626439592555e+005,-4.03053326896152e+001,-1.38943858853213e+001

5.12684721657352e+005,-4.03083795481119e+001,-1.40859757807896e+001

5.19841533667984e+005,-4.03115086869385e+001,-1.42801448390723e+001

5.27098251051240e+005,-4.03147222444076e+001,-1.44769253557864e+001

5.34456268434150e+005,-4.03180224103246e+001,-1.46763499410290e+001

5.41916999912011e+005,-4.03214114270414e+001,-1.48784515192058e+001

