Freq.,VOut,OutRef

1.00000000000000e+004,-2.73401954981061e+001,-1.79186746270739e-001

1.01395947979003e+004,-2.73401960494796e+001,-1.81688091340412e-001

1.02811382665607e+004,-2.73401966163541e+001,-1.84224353516613e-001

1.04246576084112e+004,-2.73401971991652e+001,-1.86796020208474e-001

1.05701804056138e+004,-2.73401977983610e+001,-1.89403585628277e-001

1.07177346253629e+004,-2.73401984144019e+001,-1.92047550887065e-001

1.08673486252606e+004,-2.73401990477619e+001,-1.94728424088542e-001

1.10190511587661e+004,-2.73401996989275e+001,-1.97446720431991e-001

1.11728713807222e+004,-2.73402003683993e+001,-2.00202962304040e-001

1.13288388529580e+004,-2.73402010566922e+001,-2.02997679384093e-001

1.14869835499703e+004,-2.73402017643351e+001,-2.05831408746345e-001

1.16473358646846e+004,-2.73402024918718e+001,-2.08704694960380e-001

1.18099266142953e+004,-2.73402032398619e+001,-2.11618090194723e-001

1.19747870461893e+004,-2.73402040088802e+001,-2.14572154328069e-001

1.21419488439505e+004,-2.73402047995178e+001,-2.17567455052633e-001

1.23114441334492e+004,-2.73402056123827e+001,-2.20604567982136e-001

1.24833054890161e+004,-2.73402064480995e+001,-2.23684076767834e-001

1.26575659397028e+004,-2.73402073073107e+001,-2.26806573205381e-001

1.28342589756290e+004,-2.73402081906769e+001,-2.29972657350496e-001

1.30134185544193e+004,-2.73402090988771e+001,-2.33182937634033e-001

1.31950791077289e+004,-2.73402100326092e+001,-2.36438030980844e-001

1.33792755478611e+004,-2.73402109925911e+001,-2.39738562924113e-001

1.35660432744767e+004,-2.73402119795608e+001,-2.43085167727348e-001

1.37554181813974e+004,-2.73402129942770e+001,-2.46478488508740e-001

1.39474366635040e+004,-2.73402140375194e+001,-2.49919177362131e-001

1.41421356237309e+004,-2.73402151100903e+001,-2.53407895480208e-001

1.43395524801583e+004,-2.73402162128139e+001,-2.56945313287595e-001

1.45397251732031e+004,-2.73402173465379e+001,-2.60532110563004e-001

1.47426921729110e+004,-2.73402185121338e+001,-2.64168976573905e-001

1.49484924863494e+004,-2.73402197104975e+001,-2.67856610208350e-001

1.51571656651040e+004,-2.73402209425503e+001,-2.71595720106494e-001

1.53687518128801e+004,-2.73402222092391e+001,-2.75387024800602e-001

1.55832915932100e+004,-2.73402235115376e+001,-2.79231252850868e-001

1.58008262372675e+004,-2.73402248504466e+001,-2.83129142985523e-001

1.60213975517924e+004,-2.73402262269956e+001,-2.87081444240990e-001

1.62450479271247e+004,-2.73402276422426e+001,-2.91088916110026e-001

1.64718203453514e+004,-2.73402290972753e+001,-2.95152328683903e-001

1.67017583885674e+004,-2.73402305932122e+001,-2.99272462800838e-001

1.69349062472505e+004,-2.73402321312031e+001,-3.03450110196810e-001

1.71713087287550e+004,-2.73402337124301e+001,-3.07686073657936e-001

1.74110112659224e+004,-2.73402353381088e+001,-3.11981167171926e-001

1.76540599258131e+004,-2.73402370094884e+001,-3.16336216089219e-001

1.79005014185594e+004,-2.73402387278538e+001,-3.20752057275467e-001

1.81503831063432e+004,-2.73402404945259e+001,-3.25229539275939e-001

1.84037530124975e+004,-2.73402423108623e+001,-3.29769522478986e-001

1.86606598307361e+004,-2.73402441782592e+001,-3.34372879279304e-001

1.89211529345119e+004,-2.73402460981519e+001,-3.39040494244536e-001

1.91852823865052e+004,-2.73402480720159e+001,-3.43773264288537e-001

1.94530989482457e+004,-2.73402501013686e+001,-3.48572098839987e-001

1.97246540898671e+004,-2.73402521877694e+001,-3.53437920019187e-001

1.99999999999999e+004,-2.73402543328222e+001,-3.58371662813240e-001

2.02791895958005e+004,-2.73402565381754e+001,-3.63374275258547e-001

2.05622765331213e+004,-2.73402588055241e+001,-3.68446718618323e-001

2.08493152168224e+004,-2.73402611366110e+001,-3.73589967570148e-001

2.11403608112276e+004,-2.73402635332275e+001,-3.78805010393538e-001

2.14354692507258e+004,-2.73402659972156e+001,-3.84092849157162e-001

2.17346972505211e+004,-2.73402685304691e+001,-3.89454499911973e-001

2.20381023175322e+004,-2.73402711349349e+001,-3.94890992887549e-001

2.23457427614443e+004,-2.73402738126147e+001,-4.00403372687108e-001

2.26576777059159e+004,-2.73402765655662e+001,-4.05992698491738e-001

2.29739670999406e+004,-2.73402793959053e+001,-4.11660044258548e-001

2.32946717293690e+004,-2.73402823058071e+001,-4.17406498931689e-001

2.36198532285905e+004,-2.73402852975079e+001,-4.23233166647777e-001

2.39495740923785e+004,-2.73402883733069e+001,-4.29141166949397e-001

2.42838976879009e+004,-2.73402915355677e+001,-4.35131634999277e-001

2.46228882668982e+004,-2.73402947867208e+001,-4.41205721796888e-001

2.49666109780322e+004,-2.73402981292642e+001,-4.47364594402435e-001

2.53151318794055e+004,-2.73403015657670e+001,-4.53609436156628e-001

2.56685179512580e+004,-2.73403050988697e+001,-4.59941446910971e-001

2.60268371088386e+004,-2.73403087312876e+001,-4.66361843254820e-001

2.63901582154578e+004,-2.73403124658119e+001,-4.72871858751003e-001

2.67585510957221e+004,-2.73403163053124e+001,-4.79472744171168e-001

2.71320865489533e+004,-2.73403202527395e+001,-4.86165767736766e-001

2.75108363627948e+004,-2.73403243111265e+001,-4.92952215360099e-001

2.78948733270080e+004,-2.73403284835919e+001,-4.99833390892220e-001

2.82842712474618e+004,-2.73403327733418e+001,-5.06810616372883e-001

2.86791049603164e+004,-2.73403371836724e+001,-5.13885232283542e-001

2.90794503464061e+004,-2.73403417179726e+001,-5.21058597803325e-001

2.94853843458219e+004,-2.73403463797263e+001,-5.28332091071597e-001

2.98969849726987e+004,-2.73403511725156e+001,-5.35707109449936e-001

3.03143313302078e+004,-2.73403561000228e+001,-5.43185069791320e-001

3.07375036257601e+004,-2.73403611660339e+001,-5.50767408710419e-001

3.11665831864199e+004,-2.73403663744414e+001,-5.58455582859708e-001

3.16016524745350e+004,-2.73403717292469e+001,-5.66251069207166e-001

3.20427951035848e+004,-2.73403772345645e+001,-5.74155365320717e-001

3.24900958542493e+004,-2.73403828946236e+001,-5.82169989654998e-001

3.29436406907028e+004,-2.73403887137731e+001,-5.90296481839313e-001

3.34035167771346e+004,-2.73403946964832e+001,-5.98536402976724e-001

3.38698124945009e+004,-2.73404008473502e+001,-6.06891335938880e-001

3.43426174575100e+004,-2.73404071710994e+001,-6.15362885671403e-001

3.48220225318448e+004,-2.73404136725887e+001,-6.23952679500160e-001

3.53081198516260e+004,-2.73404203568127e+001,-6.32662367443447e-001

3.58010028371187e+004,-2.73404272289058e+001,-6.41493622526798e-001

3.63007662126863e+004,-2.73404342941471e+001,-6.50448141103173e-001

3.68075060249948e+004,-2.73404415579635e+001,-6.59527643178453e-001

3.73213196614721e+004,-2.73404490259348e+001,-6.68733872738078e-001

3.78423058690237e+004,-2.73404567037971e+001,-6.78068598084516e-001

3.83705647730104e+004,-2.73404645974476e+001,-6.87533612171493e-001

3.89061978964912e+004,-2.73404727129494e+001,-6.97130732948337e-001

3.94493081797342e+004,-2.73404810565354e+001,-7.06861803707894e-001

3.99999999999998e+004,-2.73404896346139e+001,-7.16728693438644e-001

4.05583791916010e+004,-2.73404984537728e+001,-7.26733297181546e-001

4.11245530662425e+004,-2.73405075207853e+001,-7.36877536392056e-001

4.16986304336447e+004,-2.73405168426143e+001,-7.47163359308333e-001

4.22807216224550e+004,-2.73405264264188e+001,-7.57592741320250e-001

4.28709385014515e+004,-2.73405362795581e+001,-7.68167685351701e-001

4.34693945010421e+004,-2.73405464095985e+001,-7.78890222238811e-001

4.40762046350642e+004,-2.73405568243187e+001,-7.89762411118238e-001

4.46914855228886e+004,-2.73405675317154e+001,-8.00786339822847e-001

4.53153554118317e+004,-2.73405785400101e+001,-8.11964125277204e-001

4.59479341998812e+004,-2.73405898576548e+001,-8.23297913902950e-001

4.65893434587380e+004,-2.73406014933390e+001,-8.34789882027233e-001

4.72397064571810e+004,-2.73406134559957e+001,-8.46442236299436e-001

4.78991481847569e+004,-2.73406257548088e+001,-8.58257214110850e-001

4.85677953758016e+004,-2.73406383992199e+001,-8.70237084020751e-001

4.92457765337964e+004,-2.73406513989353e+001,-8.82384146190007e-001

4.99332219560642e+004,-2.73406647639340e+001,-8.94700732818064e-001

5.06302637588109e+004,-2.73406785044748e+001,-9.07189208588005e-001

5.13370359025159e+004,-2.73406926311040e+001,-9.19851971118029e-001

5.20536742176771e+004,-2.73407071546643e+001,-9.32691451415039e-001

5.27803164309155e+004,-2.73407220863023e+001,-9.45710114340072e-001

5.35171021914442e+004,-2.73407374374770e+001,-9.58910459076927e-001

5.42641730979066e+004,-2.73407532199692e+001,-9.72295019606241e-001

5.50216727255895e+004,-2.73407694458899e+001,-9.85866365189055e-001

5.57897466540159e+004,-2.73407861276897e+001,-9.99627100854343e-001

5.65685424949235e+004,-2.73408032781684e+001,-1.01357986789541e+000

5.73582099206328e+004,-2.73408209104849e+001,-1.02772734436946e+000

5.81589006928121e+004,-2.73408390381665e+001,-1.04207224560990e+000

5.89707686916437e+004,-2.73408576751203e+001,-1.05661732473891e+000

5.97939699453972e+004,-2.73408768356430e+001,-1.07136537319063e+000

6.06286626604156e+004,-2.73408965344321e+001,-1.08631922124339e+000

6.14750072515201e+004,-2.73409167865970e+001,-1.10148173855342e+000

6.23331663728396e+004,-2.73409376076707e+001,-1.11685583470056e+000

6.32033049490698e+004,-2.73409590136212e+001,-1.13244445974092e+000

6.40855902071694e+004,-2.73409810208642e+001,-1.14825060476374e+000

6.49801917084985e+004,-2.73410036462755e+001,-1.16427730245906e+000

6.58872813814055e+004,-2.73410269072033e+001,-1.18052762769309e+000

6.68070335542691e+004,-2.73410508214819e+001,-1.19700469808811e+000

6.77396249890018e+004,-2.73410754074452e+001,-1.21371167461346e+000

6.86852349150199e+004,-2.73411006839408e+001,-1.23065176218390e+000

6.96440450636895e+004,-2.73411266703437e+001,-1.24782821026359e+000

7.06162397032520e+004,-2.73411533865717e+001,-1.26524431348280e+000

7.16020056742374e+004,-2.73411808531003e+001,-1.28290341225710e+000

7.26015324253724e+004,-2.73412090909779e+001,-1.30080889342000e+000

7.36150120499896e+004,-2.73412381218425e+001,-1.31896419086136e+000

7.46426393229441e+004,-2.73412679679375e+001,-1.33737278617397e+000

7.56846117380472e+004,-2.73412986521288e+001,-1.35603820931197e+000

7.67411295460207e+004,-2.73413301979221e+001,-1.37496403925283e+000

7.78123957929823e+004,-2.73413626294807e+001,-1.39415390467391e+000

7.88986163594682e+004,-2.73413959716440e+001,-1.41361148463319e+000

7.99999999999995e+004,-2.73414302499460e+001,-1.43334050926222e+000

8.11167583832018e+004,-2.73414654906350e+001,-1.45334476046699e+000

8.22491061324848e+004,-2.73415017206929e+001,-1.47362807263709e+000

8.33972608672892e+004,-2.73415389678562e+001,-1.49419433336711e+000

8.45614432449099e+004,-2.73415772606368e+001,-1.51504748418460e+000

8.57418770029029e+004,-2.73416166283433e+001,-1.53619152128941e+000

8.69387890020841e+004,-2.73416571011033e+001,-1.55763049630186e+000

8.81524092701283e+004,-2.73416987098863e+001,-1.57936851702137e+000

8.93829710457770e+004,-2.73417414865268e+001,-1.60140974819459e+000

9.06307108236633e+004,-2.73417854637485e+001,-1.62375841229390e+000

9.18958683997622e+004,-2.73418306751889e+001,-1.64641879030586e+000

9.31786869174758e+004,-2.73418771554246e+001,-1.66939522252997e+000

9.44794129143618e+004,-2.73419249399973e+001,-1.69269210938847e+000

9.57982963695136e+004,-2.73419740654409e+001,-1.71631391224513e+000

9.71355907516031e+004,-2.73420245693084e+001,-1.74026515423617e+000

9.84915530675926e+004,-2.73420764902005e+001,-1.76455042111213e+000

9.98664439121282e+004,-2.73421298677946e+001,-1.78917436208792e+000

1.01260527517622e+005,-2.73421847428743e+001,-1.81414169070829e+000

1.02674071805032e+005,-2.73422411573604e+001,-1.83945718571968e+000

1.04107348435354e+005,-2.73422991543421e+001,-1.86512569195708e+000

1.05560632861831e+005,-2.73423587781091e+001,-1.89115212123972e+000

1.07034204382888e+005,-2.73424200741852e+001,-1.91754145327958e+000

1.08528346195813e+005,-2.73424830893617e+001,-1.94429873660142e+000

1.10043345451179e+005,-2.73425478717332e+001,-1.97142908947272e+000

1.11579493308032e+005,-2.73426144707329e+001,-1.99893770084826e+000

1.13137084989847e+005,-2.73426829371697e+001,-2.02682983132467e+000

1.14716419841265e+005,-2.73427533232660e+001,-2.05511081410694e+000

1.16317801385624e+005,-2.73428256826967e+001,-2.08378605598855e+000

1.17941537383287e+005,-2.73429000706292e+001,-2.11286103834206e+000

1.19587939890794e+005,-2.73429765437642e+001,-2.14234131812372e+000

1.21257325320831e+005,-2.73430551603782e+001,-2.17223252888880e+000

1.22950014503040e+005,-2.73431359803663e+001,-2.20254038182200e+000

1.24666332745679e+005,-2.73432190652869e+001,-2.23327066677718e+000

1.26406609898139e+005,-2.73433044784074e+001,-2.26442925333370e+000

1.28171180414339e+005,-2.73433922847508e+001,-2.29602209186221e+000

1.29960383416997e+005,-2.73434825511438e+001,-2.32805521460657e+000

1.31774562762811e+005,-2.73435753462662e+001,-2.36053473677634e+000

1.33614067108538e+005,-2.73436707407019e+001,-2.39346685765399e+000

1.35479249978003e+005,-2.73437688069899e+001,-2.42685786171545e+000

1.37370469830040e+005,-2.73438696196792e+001,-2.46071411976309e+000

1.39288090127379e+005,-2.73439732553822e+001,-2.49504209007390e+000

1.41232479406504e+005,-2.73440797928317e+001,-2.52984831956019e+000

1.43204011348474e+005,-2.73441893129385e+001,-2.56513944494363e+000

1.45203064850745e+005,-2.73443018988505e+001,-2.60092219394530e+000

1.47230024099979e+005,-2.73444176360138e+001,-2.63720338648657e+000

1.49285278645888e+005,-2.73445366122349e+001,-2.67398993590753e+000

1.51369223476094e+005,-2.73446589177445e+001,-2.71128885019681e+000

1.53482259092041e+005,-2.73447846452640e+001,-2.74910723323638e+000

1.55624791585964e+005,-2.73449138900719e+001,-2.78745228606236e+000

1.57797232718936e+005,-2.73450467500739e+001,-2.82633130813749e+000

1.59999999999999e+005,-2.73451833258733e+001,-2.86575169864030e+000

1.62233516766403e+005,-2.73453237208439e+001,-2.90572095776804e+000

1.64498212264969e+005,-2.73454680412051e+001,-2.94624668805346e+000

1.66794521734578e+005,-2.73456163960980e+001,-2.98733659569865e+000

1.69122886489819e+005,-2.73457688976642e+001,-3.02899849192051e+000

1.71483754005805e+005,-2.73459256611266e+001,-3.07124029431428e+000

1.73877578004168e+005,-2.73460868048719e+001,-3.11407002822963e+000

1.76304818540256e+005,-2.73462524505353e+001,-3.15749582816257e+000

1.78765942091554e+005,-2.73464227230877e+001,-3.20152593916271e+000

1.81261421647326e+005,-2.73465977509247e+001,-3.24616871825520e+000

1.83791736799524e+005,-2.73467776659581e+001,-3.29143263587755e+000

1.86357373834951e+005,-2.73469626037095e+001,-3.33732627733287e+000

1.88958825828723e+005,-2.73471527034065e+001,-3.38385834425637e+000

1.91596592739027e+005,-2.73473481080812e+001,-3.43103765609868e+000

1.94271181503206e+005,-2.73475489646712e+001,-3.47887315162378e+000

1.96983106135185e+005,-2.73477554241229e+001,-3.52737389042201e+000

1.99732887824256e+005,-2.73479676414979e+001,-3.57654905443933e+000

2.02521055035243e+005,-2.73481857760812e+001,-3.62640794952024e+000

2.05348143610063e+005,-2.73484099914933e+001,-3.67696000696770e+000

2.08214696870707e+005,-2.73486404558034e+001,-3.72821478511744e+000

2.11121265723661e+005,-2.73488773416473e+001,-3.78018197092709e+000

2.14068408765776e+005,-2.73491208263462e+001,-3.83287138158187e+000

2.17056692391625e+005,-2.73493710920303e+001,-3.88629296611504e+000

2.20086690902357e+005,-2.73496283257636e+001,-3.94045680704201e+000

2.23158986616063e+005,-2.73498927196735e+001,-3.99537312201215e+000

2.26274169979693e+005,-2.73501644710819e+001,-4.05105226547440e+000

2.29432839682530e+005,-2.73504437826405e+001,-4.10750473035765e+000

2.32635602771247e+005,-2.73507308624688e+001,-4.16474114976607e+000

2.35883074766574e+005,-2.73510259242955e+001,-4.22277229869151e+000

2.39175879781588e+005,-2.73513291876040e+001,-4.28160909573730e+000

2.42514650641661e+005,-2.73516408777794e+001,-4.34126260485966e+000

2.45900029006080e+005,-2.73519612262613e+001,-4.40174403712269e+000

2.49332665491357e+005,-2.73522904706984e+001,-4.46306475246770e+000

2.52813219796278e+005,-2.73526288551075e+001,-4.52523626149791e+000

2.56342360828676e+005,-2.73529766300361e+001,-4.58827022727622e+000

2.59920766833993e+005,-2.73533340527284e+001,-4.65217846713914e+000

2.63549125525621e+005,-2.73537013872955e+001,-4.71697295452311e+000

2.67228134217075e+005,-2.73540789048892e+001,-4.78266582080493e+000

2.70958499956006e+005,-2.73544668838800e+001,-4.84926935715792e+000

2.74740939660078e+005,-2.73548656100386e+001,-4.91679601641901e+000

2.78576180254757e+005,-2.73552753767220e+001,-4.98525841497165e+000

2.82464958813007e+005,-2.73556964850635e+001,-5.05466933464104e+000

2.86408022696948e+005,-2.73561292441668e+001,-5.12504172460233e+000

2.90406129701488e+005,-2.73565739713045e+001,-5.19638870330263e+000

2.94460048199957e+005,-2.73570309921213e+001,-5.26872356039525e+000

2.98570557291775e+005,-2.73575006408404e+001,-5.34205975868655e+000

3.02738446952187e+005,-2.73579832604759e+001,-5.41641093609570e+000

3.06964518184081e+005,-2.73584792030487e+001,-5.49179090762602e+000

3.11249583171928e+005,-2.73589888298073e+001,-5.56821366734886e+000

3.15594465437872e+005,-2.73595125114533e+001,-5.64569339039875e+000

3.19999999999997e+005,-2.73600506283718e+001,-5.72424443498060e+000

3.24467033532806e+005,-2.73606035708659e+001,-5.80388134438768e+000

3.28996424529938e+005,-2.73611717393974e+001,-5.88461884903100e+000

3.33589043469155e+005,-2.73617555448307e+001,-5.96647186847983e+000

3.38245772979638e+005,-2.73623554086832e+001,-6.04945551351213e+000

3.42967508011610e+005,-2.73629717633802e+001,-6.13358508817541e+000

3.47755156008335e+005,-2.73636050525145e+001,-6.21887609185904e+000

3.52609637080511e+005,-2.73642557311121e+001,-6.30534422137365e+000

3.57531884183106e+005,-2.73649242659022e+001,-6.39300537304373e+000

3.62522843294651e+005,-2.73656111355936e+001,-6.48187564480623e+000

3.67583473599047e+005,-2.73663168311553e+001,-6.57197133832055e+000

3.72714747669902e+005,-2.73670418561038e+001,-6.66330896108642e+000

3.77917651657445e+005,-2.73677867267948e+001,-6.75590522857065e+000

3.83193185478053e+005,-2.73685519727214e+001,-6.84977706634235e+000

3.88542363006410e+005,-2.73693381368176e+001,-6.94494161221606e+000

3.93966212270369e+005,-2.73701457757671e+001,-7.04141621840357e+000

3.99465775648511e+005,-2.73709754603191e+001,-7.13921845367205e+000

4.05042110070485e+005,-2.73718277756086e+001,-7.23836610551181e+000

4.10696287220124e+005,-2.73727033214837e+001,-7.33887718230918e+000

4.16429393741414e+005,-2.73736027128384e+001,-7.44076991552758e+000

4.22242531447321e+005,-2.73745265799517e+001,-7.54406276189608e+000

4.28136817531551e+005,-2.73754755688328e+001,-7.64877440560396e+000

4.34113384783250e+005,-2.73764503415728e+001,-7.75492376050142e+000

4.40173381804713e+005,-2.73774515767024e+001,-7.86252997230834e+000

4.46317973232124e+005,-2.73784799695560e+001,-7.97161242082771e+000

4.52548339959385e+005,-2.73795362326432e+001,-8.08219072216647e+000

4.58865679365059e+005,-2.73806210960258e+001,-8.19428473096143e+000

4.65271205542494e+005,-2.73817353077020e+001,-8.30791454261244e+000

4.71766149533147e+005,-2.73828796339977e+001,-8.42310049552015e+000

4.78351759563174e+005,-2.73840548599644e+001,-8.53986317333080e+000

4.85029301283321e+005,-2.73852617897841e+001,-8.65822340718580e+000

4.91800058012158e+005,-2.73865012471818e+001,-8.77820227797821e+000

4.98665330982714e+005,-2.73877740758451e+001,-8.89982111861355e+000

5.05626439592555e+005,-2.73890811398508e+001,-9.02310151627791e+000

5.12684721657352e+005,-2.73904233241000e+001,-9.14806531471030e+000

5.19841533667984e+005,-2.73918015347603e+001,-9.27473461648204e+000

5.27098251051240e+005,-2.73932166997162e+001,-9.40313178528103e+000

5.34456268434150e+005,-2.73946697690273e+001,-9.53327944820161e+000

5.41916999912011e+005,-2.73961617153954e+001,-9.66520049804116e+000

