Freq.,VOut,OutRef

1.00000000000000e+004,-1.35313282635896e+001,-7.53418548515473e-002

1.01395947979003e+004,-1.35313283394770e+001,-7.63935850177100e-002

1.02811382665607e+004,-1.35313284174978e+001,-7.74599966656839e-002

1.04246576084112e+004,-1.35313284977118e+001,-7.85412947359706e-002

1.05701804056138e+004,-1.35313285801809e+001,-7.96376870285920e-002

1.07177346253629e+004,-1.35313286649683e+001,-8.07493842462258e-002

1.08673486252606e+004,-1.35313287521391e+001,-8.18766000322207e-002

1.10190511587661e+004,-1.35313288417605e+001,-8.30195510098176e-002

1.11728713807222e+004,-1.35313289339011e+001,-8.41784568299569e-002

1.13288388529580e+004,-1.35313290286320e+001,-8.53535402047324e-002

1.14869835499703e+004,-1.35313291260260e+001,-8.65450269581466e-002

1.16473358646846e+004,-1.35313292261577e+001,-8.77531460663989e-002

1.18099266142953e+004,-1.35313293291042e+001,-8.89781297003463e-002

1.19747870461893e+004,-1.35313294349447e+001,-9.02202132715888e-002

1.21419488439505e+004,-1.35313295437604e+001,-9.14796354778350e-002

1.23114441334492e+004,-1.35313296556350e+001,-9.27566383497844e-002

1.24833054890161e+004,-1.35313297706547e+001,-9.40514672926568e-002

1.26575659397028e+004,-1.35313298889072e+001,-9.53643711437447e-002

1.28342589756290e+004,-1.35313300104843e+001,-9.66956022054739e-002

1.30134185544193e+004,-1.35313301354787e+001,-9.80454163092066e-002

1.31950791077289e+004,-1.35313302639869e+001,-9.94140728506609e-002

1.33792755478611e+004,-1.35313303961075e+001,-1.00801834851408e-001

1.35660432744767e+004,-1.35313305319419e+001,-1.02208969002498e-001

1.37554181813974e+004,-1.35313306715947e+001,-1.03635745715201e-001

1.39474366635040e+004,-1.35313308151730e+001,-1.05082439178081e-001

1.41421356237309e+004,-1.35313309627872e+001,-1.06549327405875e-001

1.43395524801583e+004,-1.35313311145509e+001,-1.08036692290804e-001

1.45397251732031e+004,-1.35313312705808e+001,-1.09544819663318e-001

1.47426921729110e+004,-1.35313314309964e+001,-1.11073999342856e-001

1.49484924863494e+004,-1.35313315959213e+001,-1.12624525191475e-001

1.51571656651040e+004,-1.35313317654818e+001,-1.14196695176849e-001

1.53687518128801e+004,-1.35313319398089e+001,-1.15790811419337e-001

1.55832915932100e+004,-1.35313321190359e+001,-1.17407180262902e-001

1.58008262372675e+004,-1.35313323033008e+001,-1.19046112322371e-001

1.60213975517924e+004,-1.35313324927451e+001,-1.20707922549141e-001

1.62450479271247e+004,-1.35313326875145e+001,-1.22392930290738e-001

1.64718203453514e+004,-1.35313328877584e+001,-1.24101459352590e-001

1.67017583885674e+004,-1.35313330936310e+001,-1.25833838055540e-001

1.69349062472505e+004,-1.35313333052902e+001,-1.27590399308694e-001

1.71713087287550e+004,-1.35313335228985e+001,-1.29371480663455e-001

1.74110112659224e+004,-1.35313337466235e+001,-1.31177424381101e-001

1.76540599258131e+004,-1.35313339766368e+001,-1.33008577503231e-001

1.79005014185594e+004,-1.35313342131151e+001,-1.34865291913735e-001

1.81503831063432e+004,-1.35313344562401e+001,-1.36747924406312e-001

1.84037530124975e+004,-1.35313347061988e+001,-1.38656836754197e-001

1.86606598307361e+004,-1.35313349631828e+001,-1.40592395781480e-001

1.89211529345119e+004,-1.35313352273900e+001,-1.42554973428553e-001

1.91852823865052e+004,-1.35313354990229e+001,-1.44544946830115e-001

1.94530989482457e+004,-1.35313357782904e+001,-1.46562698381437e-001

1.97246540898671e+004,-1.35313360654071e+001,-1.48608615815295e-001

1.99999999999999e+004,-1.35313363605933e+001,-1.50683092275684e-001

2.02791895958005e+004,-1.35313366640759e+001,-1.52786526392456e-001

2.05622765331213e+004,-1.35313369760881e+001,-1.54919322358898e-001

2.08493152168224e+004,-1.35313372968692e+001,-1.57081890009537e-001

2.11403608112276e+004,-1.35313376266660e+001,-1.59274644896224e-001

2.14354692507258e+004,-1.35313379657314e+001,-1.61498008372601e-001

2.17346972505211e+004,-1.35313383143263e+001,-1.63752407668778e-001

2.20381023175322e+004,-1.35313386727177e+001,-1.66038275981903e-001

2.23457427614443e+004,-1.35313390411815e+001,-1.68356052548340e-001

2.26576777059159e+004,-1.35313394200004e+001,-1.70706182736155e-001

2.29739670999406e+004,-1.35313398094653e+001,-1.73089118130397e-001

2.32946717293690e+004,-1.35313402098752e+001,-1.75505316615235e-001

2.36198532285905e+004,-1.35313406215377e+001,-1.77955242463743e-001

2.39495740923785e+004,-1.35313410447689e+001,-1.80439366428428e-001

2.42838976879009e+004,-1.35313414798937e+001,-1.82958165831446e-001

2.46228882668982e+004,-1.35313419272461e+001,-1.85512124653721e-001

2.49666109780322e+004,-1.35313423871696e+001,-1.88101733630141e-001

2.53151318794055e+004,-1.35313428600176e+001,-1.90727490340810e-001

2.56685179512580e+004,-1.35313433461526e+001,-1.93389899313349e-001

2.60268371088386e+004,-1.35313438459483e+001,-1.96089472109065e-001

2.63901582154578e+004,-1.35313443597880e+001,-1.98826727432571e-001

2.67585510957221e+004,-1.35313448880665e+001,-2.01602191220743e-001

2.71320865489533e+004,-1.35313454311888e+001,-2.04416396752862e-001

2.75108363627948e+004,-1.35313459895721e+001,-2.07269884745244e-001

2.78948733270080e+004,-1.35313465636451e+001,-2.10163203458332e-001

2.82842712474618e+004,-1.35313471538480e+001,-2.13096908805442e-001

2.86791049603164e+004,-1.35313477606341e+001,-2.16071564450628e-001

2.90794503464061e+004,-1.35313483844689e+001,-2.19087741924833e-001

2.94853843458219e+004,-1.35313490258312e+001,-2.22146020731909e-001

2.98969849726987e+004,-1.35313496852130e+001,-2.25246988460071e-001

3.03143313302078e+004,-1.35313503631202e+001,-2.28391240895283e-001

3.07375036257601e+004,-1.35313510600732e+001,-2.31579382132104e-001

3.11665831864199e+004,-1.35313517766065e+001,-2.34812024696357e-001

3.16016524745350e+004,-1.35313525132699e+001,-2.38089789655074e-001

3.20427951035848e+004,-1.35313532706284e+001,-2.41413306740055e-001

3.24900958542493e+004,-1.35313540492630e+001,-2.44783214468657e-001

3.29436406907028e+004,-1.35313548497710e+001,-2.48200160262263e-001

3.34035167771346e+004,-1.35313556727664e+001,-2.51664800573983e-001

3.38698124945009e+004,-1.35313565188801e+001,-2.55177801015016e-001

3.43426174575100e+004,-1.35313573887612e+001,-2.58739836477603e-001

3.48220225318448e+004,-1.35313582830768e+001,-2.62351591268347e-001

3.53081198516260e+004,-1.35313592025125e+001,-2.66013759238611e-001

3.58010028371187e+004,-1.35313601477732e+001,-2.69727043917104e-001

3.63007662126863e+004,-1.35313611195838e+001,-2.73492158641683e-001

3.68075060249948e+004,-1.35313621186890e+001,-2.77309826702999e-001

3.73213196614721e+004,-1.35313631458549e+001,-2.81180781474565e-001

3.78423058690237e+004,-1.35313642018687e+001,-2.85105766559558e-001

3.83705647730104e+004,-1.35313652875396e+001,-2.89085535929975e-001

3.89061978964912e+004,-1.35313664036998e+001,-2.93120854070775e-001

3.94493081797342e+004,-1.35313675512045e+001,-2.97212496129482e-001

3.99999999999998e+004,-1.35313687309329e+001,-3.01361248060156e-001

4.05583791916010e+004,-1.35313699437887e+001,-3.05567906777170e-001

4.11245530662425e+004,-1.35313711907012e+001,-3.09833280304182e-001

4.16986304336447e+004,-1.35313724726255e+001,-3.14158187932417e-001

4.22807216224550e+004,-1.35313737905432e+001,-3.18543460375885e-001

4.28709385014515e+004,-1.35313751454640e+001,-3.22989939928258e-001

4.34693945010421e+004,-1.35313765384250e+001,-3.27498480628284e-001

4.40762046350642e+004,-1.35313779704928e+001,-3.32069948418593e-001

4.46914855228886e+004,-1.35313794427640e+001,-3.36705221312120e-001

4.53153554118317e+004,-1.35313809563653e+001,-3.41405189564168e-001

4.59479341998812e+004,-1.35313825124552e+001,-3.46170755836497e-001

4.65893434587380e+004,-1.35313841122246e+001,-3.51002835372782e-001

4.72397064571810e+004,-1.35313857568978e+001,-3.55902356173739e-001

4.78991481847569e+004,-1.35313874477328e+001,-3.60870259174166e-001

4.85677953758016e+004,-1.35313891860233e+001,-3.65907498420350e-001

4.92457765337964e+004,-1.35313909730987e+001,-3.71015041256541e-001

4.99332219560642e+004,-1.35313928103258e+001,-3.76193868505505e-001

5.06302637588109e+004,-1.35313946991094e+001,-3.81444974657605e-001

5.13370359025159e+004,-1.35313966408935e+001,-3.86769368060128e-001

5.20536742176771e+004,-1.35313986371625e+001,-3.92168071110454e-001

5.27803164309155e+004,-1.35314006894421e+001,-3.97642120449403e-001

5.35171021914442e+004,-1.35314027993006e+001,-4.03192567160810e-001

5.42641730979066e+004,-1.35314049683501e+001,-4.08820476970552e-001

5.50216727255895e+004,-1.35314071982475e+001,-4.14526930449639e-001

5.57897466540159e+004,-1.35314094906958e+001,-4.20313023222295e-001

5.65685424949235e+004,-1.35314118474457e+001,-4.26179866171098e-001

5.73582099206328e+004,-1.35314142702967e+001,-4.32128585651112e-001

5.81589006928121e+004,-1.35314167610980e+001,-4.38160323704278e-001

5.89707686916437e+004,-1.35314193217505e+001,-4.44276238276493e-001

5.97939699453972e+004,-1.35314219542084e+001,-4.50477503435884e-001

6.06286626604156e+004,-1.35314246604796e+001,-4.56765309600336e-001

6.14750072515201e+004,-1.35314274426283e+001,-4.63140863761275e-001

6.23331663728396e+004,-1.35314303027760e+001,-4.69605389712072e-001

6.32033049490698e+004,-1.35314332431031e+001,-4.76160128283828e-001

6.40855902071694e+004,-1.35314362658507e+001,-4.82806337579483e-001

6.49801917084985e+004,-1.35314393733221e+001,-4.89545293212703e-001

6.58872813814055e+004,-1.35314425678846e+001,-4.96378288550344e-001

6.68070335542691e+004,-1.35314458519711e+001,-5.03306634958130e-001

6.77396249890018e+004,-1.35314492280822e+001,-5.10331662049751e-001

6.86852349150199e+004,-1.35314526987879e+001,-5.17454717938720e-001

6.96440450636895e+004,-1.35314562667293e+001,-5.24677169494759e-001

7.06162397032520e+004,-1.35314599346207e+001,-5.32000402602402e-001

7.16020056742374e+004,-1.35314637052517e+001,-5.39425822423674e-001

7.26015324253724e+004,-1.35314675814893e+001,-5.46954853664126e-001

7.36150120499896e+004,-1.35314715662797e+001,-5.54588940843282e-001

7.46426393229441e+004,-1.35314756626507e+001,-5.62329548568440e-001

7.56846117380472e+004,-1.35314798737137e+001,-5.70178161810222e-001

7.67411295460207e+004,-1.35314842026665e+001,-5.78136286184621e-001

7.78123957929823e+004,-1.35314886527950e+001,-5.86205448237926e-001

7.88986163594682e+004,-1.35314932274758e+001,-5.94387195734741e-001

7.99999999999995e+004,-1.35314979301791e+001,-6.02683097949572e-001

8.11167583832018e+004,-1.35315027644703e+001,-6.11094745965115e-001

8.22491061324848e+004,-1.35315077340138e+001,-6.19623752970296e-001

8.33972608672892e+004,-1.35315128425745e+001,-6.28271754566230e-001

8.45614432449099e+004,-1.35315180940211e+001,-6.37040409074275e-001

8.57418770029029e+004,-1.35315234923292e+001,-6.45931397847274e-001

8.69387890020841e+004,-1.35315290415833e+001,-6.54946425587441e-001

8.81524092701283e+004,-1.35315347459807e+001,-6.64087220667264e-001

8.93829710457770e+004,-1.35315406098335e+001,-6.73355535454500e-001

9.06307108236633e+004,-1.35315466375730e+001,-6.82753146640053e-001

9.18958683997622e+004,-1.35315528337513e+001,-6.92281855574627e-001

9.31786869174758e+004,-1.35315592030461e+001,-7.01943488604800e-001

9.44794129143618e+004,-1.35315657502628e+001,-7.11739897416887e-001

9.57982963695136e+004,-1.35315724803387e+001,-7.21672959382626e-001

9.71355907516031e+004,-1.35315793983462e+001,-7.31744577914351e-001

9.84915530675926e+004,-1.35315865094964e+001,-7.41956682816375e-001

9.98664439121282e+004,-1.35315938191426e+001,-7.52311230652285e-001

1.01260527517622e+005,-1.35316013327848e+001,-7.62810205104686e-001

1.02674071805032e+005,-1.35316090560726e+001,-7.73455617350767e-001

1.04107348435354e+005,-1.35316169948099e+001,-7.84249506435411e-001

1.05560632861831e+005,-1.35316251549582e+001,-7.95193939652461e-001

1.07034204382888e+005,-1.35316335426419e+001,-8.06291012929250e-001

1.08528346195813e+005,-1.35316421641515e+001,-8.17542851218437e-001

1.10043345451179e+005,-1.35316510259483e+001,-8.28951608893104e-001

1.11579493308032e+005,-1.35316601346691e+001,-8.40519470146057e-001

1.13137084989847e+005,-1.35316694971305e+001,-8.52248649398074e-001

1.14716419841265e+005,-1.35316791203337e+001,-8.64141391706304e-001

1.16317801385624e+005,-1.35316890114694e+001,-8.76199973183908e-001

1.17941537383287e+005,-1.35316991779222e+001,-8.88426701418749e-001

1.19587939890794e+005,-1.35317096272764e+001,-9.00823915902680e-001

1.21257325320831e+005,-1.35317203673206e+001,-9.13393988461675e-001

1.22950014503040e+005,-1.35317314060530e+001,-9.26139323698057e-001

1.24666332745679e+005,-1.35317427516869e+001,-9.39062359430982e-001

1.26406609898139e+005,-1.35317544126563e+001,-9.52165567145771e-001

1.28171180414339e+005,-1.35317663976211e+001,-9.65451452452236e-001

1.29960383416997e+005,-1.35317787154735e+001,-9.78922555541489e-001

1.31774562762811e+005,-1.35317913753432e+001,-9.92581451655939e-001

1.33614067108538e+005,-1.35318043866039e+001,-1.00643075155987e+000

1.35479249978003e+005,-1.35318177588792e+001,-1.02047310201932e+000

1.37370469830040e+005,-1.35318315020491e+001,-1.03471118628568e+000

1.39288090127379e+005,-1.35318456262558e+001,-1.04914772458673e+000

1.41232479406504e+005,-1.35318601419113e+001,-1.06378547462336e+000

1.43204011348474e+005,-1.35318750597029e+001,-1.07862723207208e+000

1.45203064850745e+005,-1.35318903906011e+001,-1.09367583109457e+000

1.47230024099979e+005,-1.35319061458655e+001,-1.10893414485411e+000

1.49285278645888e+005,-1.35319223370530e+001,-1.12440508603416e+000

1.51369223476094e+005,-1.35319389760242e+001,-1.14009160737048e+000

1.53482259092041e+005,-1.35319560749509e+001,-1.15599670218332e+000

1.55624791585964e+005,-1.35319736463245e+001,-1.17212340491856e+000

1.57797232718936e+005,-1.35319917029622e+001,-1.18847479169705e+000

1.59999999999999e+005,-1.35320102580163e+001,-1.20505398086813e+000

1.62233516766403e+005,-1.35320293249810e+001,-1.22186413356961e+000

1.64498212264969e+005,-1.35320489177015e+001,-1.23890845429791e+000

1.66794521734578e+005,-1.35320690503814e+001,-1.25619019148057e+000

1.69122886489819e+005,-1.35320897375918e+001,-1.27371263805966e+000

1.71483754005805e+005,-1.35321109942795e+001,-1.29147913207864e+000

1.73877578004168e+005,-1.35321328357757e+001,-1.30949305727862e+000

1.76304818540256e+005,-1.35321552778050e+001,-1.32775784370148e+000

1.78765942091554e+005,-1.35321783364944e+001,-1.34627696829820e+000

1.81261421647326e+005,-1.35322020283824e+001,-1.36505395554602e+000

1.83791736799524e+005,-1.35322263704280e+001,-1.38409237807330e+000

1.86357373834951e+005,-1.35322513800208e+001,-1.40339585728903e+000

1.88958825828723e+005,-1.35322770749898e+001,-1.42296806402363e+000

1.91596592739027e+005,-1.35323034736136e+001,-1.44281271917301e+000

1.94271181503206e+005,-1.35323305946300e+001,-1.46293359435284e+000

1.96983106135185e+005,-1.35323584572461e+001,-1.48333451255921e+000

1.99732887824256e+005,-1.35323870811482e+001,-1.50401934883745e+000

2.02521055035243e+005,-1.35324164865120e+001,-1.52499203095716e+000

2.05348143610063e+005,-1.35324466940132e+001,-1.54625654009770e+000

2.08214696870707e+005,-1.35324777248375e+001,-1.56781691153683e+000

2.11121265723661e+005,-1.35325096006916e+001,-1.58967723535337e+000

2.14068408765776e+005,-1.35325423438132e+001,-1.61184165713134e+000

2.17056692391625e+005,-1.35325759769822e+001,-1.63431437867642e+000

2.20086690902357e+005,-1.35326105235316e+001,-1.65709965873791e+000

2.23158986616063e+005,-1.35326460073578e+001,-1.68020181374041e+000

2.26274169979693e+005,-1.35326824529319e+001,-1.70362521852213e+000

2.29432839682530e+005,-1.35327198853107e+001,-1.72737430708225e+000

2.32635602771247e+005,-1.35327583301478e+001,-1.75145357333586e+000

2.35883074766574e+005,-1.35327978137042e+001,-1.77586757187779e+000

2.39175879781588e+005,-1.35328383628600e+001,-1.80062091875398e+000

2.42514650641661e+005,-1.35328800051252e+001,-1.82571829224201e+000

2.45900029006080e+005,-1.35329227686505e+001,-1.85116443363935e+000

2.49332665491357e+005,-1.35329666822390e+001,-1.87696414806014e+000

2.52813219796278e+005,-1.35330117753569e+001,-1.90312230524171e+000

2.56342360828676e+005,-1.35330580781441e+001,-1.92964384035848e+000

2.59920766833993e+005,-1.35331056214259e+001,-1.95653375484404e+000

2.63549125525621e+005,-1.35331544367232e+001,-1.98379711722433e+000

2.67228134217075e+005,-1.35332045562635e+001,-2.01143906395759e+000

2.70958499956006e+005,-1.35332560129912e+001,-2.03946480028429e+000

2.74740939660078e+005,-1.35333088405785e+001,-2.06787960108488e+000

2.78576180254757e+005,-1.35333630734350e+001,-2.09668881174871e+000

2.82464958813007e+005,-1.35334187467183e+001,-2.12589784905085e+000

2.86408022696948e+005,-1.35334758963435e+001,-2.15551220203771e+000

2.90406129701488e+005,-1.35335345589926e+001,-2.18553743292442e+000

2.94460048199957e+005,-1.35335947721245e+001,-2.21597917799771e+000

2.98570557291775e+005,-1.35336565739829e+001,-2.24684314853338e+000

3.02738446952187e+005,-1.35337200036055e+001,-2.27813513172039e+000

3.06964518184081e+005,-1.35337851008323e+001,-2.30986099159492e+000

3.11249583171928e+005,-1.35338519063129e+001,-2.34202666998596e+000

3.15594465437872e+005,-1.35339204615141e+001,-2.37463818747029e+000

3.19999999999997e+005,-1.35339908087268e+001,-2.40770164433789e+000

3.24467033532806e+005,-1.35340629910719e+001,-2.44122322156905e+000

3.28996424529938e+005,-1.35341370525065e+001,-2.47520918181910e+000

3.33589043469155e+005,-1.35342130378284e+001,-2.50966587041853e+000

3.38245772979638e+005,-1.35342909926809e+001,-2.54459971638026e+000

3.42967508011610e+005,-1.35343709635563e+001,-2.58001723342133e+000

3.47755156008335e+005,-1.35344529977988e+001,-2.61592502099440e+000

3.52609637080511e+005,-1.35345371436066e+001,-2.65232976533116e+000

3.57531884183106e+005,-1.35346234500331e+001,-2.68923824049990e+000

3.62522843294651e+005,-1.35347119669869e+001,-2.72665730947261e+000

3.67583473599047e+005,-1.35348027452315e+001,-2.76459392520736e+000

3.72714747669902e+005,-1.35348958363833e+001,-2.80305513174228e+000

3.77917651657445e+005,-1.35349912929088e+001,-2.84204806530368e+000

3.83193185478053e+005,-1.35350891681204e+001,-2.88157995542785e+000

3.88542363006410e+005,-1.35351895161711e+001,-2.92165812609772e+000

3.93966212270369e+005,-1.35352923920484e+001,-2.96228999689228e+000

3.99465775648511e+005,-1.35353978515657e+001,-3.00348308415351e+000

4.05042110070485e+005,-1.35355059513534e+001,-3.04524500216848e+000

4.10696287220124e+005,-1.35356167488480e+001,-3.08758346436510e+000

4.16429393741414e+005,-1.35357303022794e+001,-3.13050628452844e+000

4.22242531447321e+005,-1.35358466706574e+001,-3.17402137803106e+000

4.28136817531551e+005,-1.35359659137553e+001,-3.21813676308349e+000

4.34113384783250e+005,-1.35360880920928e+001,-3.26286056200166e+000

4.40173381804713e+005,-1.35362132669166e+001,-3.30820100249447e+000

4.46317973232124e+005,-1.35363415001790e+001,-3.35416641897048e+000

4.52548339959385e+005,-1.35364728545147e+001,-3.40076525386714e+000

4.58865679365059e+005,-1.35366073932154e+001,-3.44800605899948e+000

4.65271205542494e+005,-1.35367451802025e+001,-3.49589749693182e+000

4.71766149533147e+005,-1.35368862799975e+001,-3.54444834237311e+000

4.78351759563174e+005,-1.35370307576897e+001,-3.59366748359723e+000

4.85029301283321e+005,-1.35371786789024e+001,-3.64356392388637e+000

4.91800058012158e+005,-1.35373301097562e+001,-3.69414678300278e+000

4.98665330982714e+005,-1.35374851168300e+001,-3.74542529868689e+000

5.05626439592555e+005,-1.35376437671190e+001,-3.79740882818381e+000

5.12684721657352e+005,-1.35378061279913e+001,-3.85010684980057e+000

5.19841533667984e+005,-1.35379722671407e+001,-3.90352896449210e+000

5.27098251051240e+005,-1.35381422525375e+001,-3.95768489748234e+000

5.34456268434150e+005,-1.35383161523764e+001,-4.01258449991636e+000

5.41916999912011e+005,-1.35384940350219e+001,-4.06823775054928e+000

