Freq.,VOut,OutRef

1.00000000000000e+004,-1.81970672912397e+001,-1.65706499148418e-001

1.01395947979003e+004,-1.81970676208321e+001,-1.68019669785333e-001

1.02811382665607e+004,-1.81970679596904e+001,-1.70365130830493e-001

1.04246576084112e+004,-1.81970683080750e+001,-1.72743333031386e-001

1.05701804056138e+004,-1.81970686662536e+001,-1.75154733426196e-001

1.07177346253629e+004,-1.81970690345019e+001,-1.77599795431895e-001

1.08673486252606e+004,-1.81970694131027e+001,-1.80078988936343e-001

1.10190511587661e+004,-1.81970698023470e+001,-1.82592790384921e-001

1.11728713807222e+004,-1.81970702025339e+001,-1.85141682873475e-001

1.13288388529580e+004,-1.81970706139714e+001,-1.87726156240208e-001

1.14869835499703e+004,-1.81970710369758e+001,-1.90346707160849e-001

1.16473358646846e+004,-1.81970714718717e+001,-1.93003839246762e-001

1.18099266142953e+004,-1.81970719189938e+001,-1.95698063135256e-001

1.19747870461893e+004,-1.81970723786859e+001,-1.98429896591780e-001

1.21419488439505e+004,-1.81970728513012e+001,-2.01199864610482e-001

1.23114441334492e+004,-1.81970733372028e+001,-2.04008499512946e-001

1.24833054890161e+004,-1.81970738367645e+001,-2.06856341049858e-001

1.26575659397028e+004,-1.81970743503703e+001,-2.09743936505636e-001

1.28342589756290e+004,-1.81970748784147e+001,-2.12671840806380e-001

1.30134185544193e+004,-1.81970754213039e+001,-2.15640616620718e-001

1.31950791077289e+004,-1.81970759794552e+001,-2.18650834471706e-001

1.33792755478611e+004,-1.81970765532974e+001,-2.21703072847415e-001

1.35660432744767e+004,-1.81970771432717e+001,-2.24797918309051e-001

1.37554181813974e+004,-1.81970777498317e+001,-2.27935965603707e-001

1.39474366635040e+004,-1.81970783734435e+001,-2.31117817781646e-001

1.41421356237309e+004,-1.81970790145864e+001,-2.34344086311242e-001

1.43395524801583e+004,-1.81970796737535e+001,-2.37615391191453e-001

1.45397251732031e+004,-1.81970803514512e+001,-2.40932361078815e-001

1.47426921729110e+004,-1.81970810482004e+001,-2.44295633403660e-001

1.49484924863494e+004,-1.81970817645369e+001,-2.47705854491454e-001

1.51571656651040e+004,-1.81970825010110e+001,-2.51163679690727e-001

1.53687518128801e+004,-1.81970832581890e+001,-2.54669773495771e-001

1.55832915932100e+004,-1.81970840366528e+001,-2.58224809675408e-001

1.58008262372675e+004,-1.81970848370007e+001,-2.61829471403430e-001

1.60213975517924e+004,-1.81970856598481e+001,-2.65484451386950e-001

1.62450479271247e+004,-1.81970865058271e+001,-2.69190452004450e-001

1.64718203453514e+004,-1.81970873755883e+001,-2.72948185433207e-001

1.67017583885674e+004,-1.81970882697999e+001,-2.76758373794804e-001

1.69349062472505e+004,-1.81970891891493e+001,-2.80621749286053e-001

1.71713087287550e+004,-1.81970901343431e+001,-2.84539054324630e-001

1.74110112659224e+004,-1.81970911061080e+001,-2.88511041689127e-001

1.76540599258131e+004,-1.81970921051905e+001,-2.92538474665117e-001

1.79005014185594e+004,-1.81970931323587e+001,-2.96622127190945e-001

1.81503831063432e+004,-1.81970941884021e+001,-3.00762784006119e-001

1.84037530124975e+004,-1.81970952741322e+001,-3.04961240802088e-001

1.86606598307361e+004,-1.81970963903835e+001,-3.09218304376183e-001

1.89211529345119e+004,-1.81970975380141e+001,-3.13534792784293e-001

1.91852823865052e+004,-1.81970987179058e+001,-3.17911535500311e-001

1.94530989482457e+004,-1.81970999309655e+001,-3.22349373574511e-001

1.97246540898671e+004,-1.81971011781254e+001,-3.26849159794390e-001

1.99999999999999e+004,-1.81971024603441e+001,-3.31411758848802e-001

2.02791895958005e+004,-1.81971037786070e+001,-3.36038047493561e-001

2.05622765331213e+004,-1.81971051339272e+001,-3.40728914721183e-001

2.08493152168224e+004,-1.81971065273463e+001,-3.45485261929715e-001

2.11403608112276e+004,-1.81971079599351e+001,-3.50308003098162e-001

2.14354692507258e+004,-1.81971094327946e+001,-3.55198064958984e-001

2.17346972505211e+004,-1.81971109470568e+001,-3.60156387176936e-001

2.20381023175322e+004,-1.81971125038852e+001,-3.65183922531744e-001

2.23457427614443e+004,-1.81971141044762e+001,-3.70281637098517e-001

2.26576777059159e+004,-1.81971157500599e+001,-3.75450510432600e-001

2.29739670999406e+004,-1.81971174419010e+001,-3.80691535760231e-001

2.32946717293690e+004,-1.81971191812993e+001,-3.86005720167783e-001

2.36198532285905e+004,-1.81971209695916e+001,-3.91394084794150e-001

2.39495740923785e+004,-1.81971228081520e+001,-3.96857665027858e-001

2.42838976879009e+004,-1.81971246983936e+001,-4.02397510704952e-001

2.46228882668982e+004,-1.81971266417684e+001,-4.08014686313104e-001

2.49666109780322e+004,-1.81971286397702e+001,-4.13710271190646e-001

2.53151318794055e+004,-1.81971306939339e+001,-4.19485359738641e-001

2.56685179512580e+004,-1.81971328058381e+001,-4.25341061628852e-001

2.60268371088386e+004,-1.81971349771054e+001,-4.31278502016551e-001

2.63901582154578e+004,-1.81971372094043e+001,-4.37298821756070e-001

2.67585510957221e+004,-1.81971395044497e+001,-4.43403177621656e-001

2.71320865489533e+004,-1.81971418640052e+001,-4.49592742525587e-001

2.75108363627948e+004,-1.81971442898838e+001,-4.55868705746964e-001

2.78948733270080e+004,-1.81971467839490e+001,-4.62232273159541e-001

2.82842712474618e+004,-1.81971493481173e+001,-4.68684667458292e-001

2.86791049603164e+004,-1.81971519843587e+001,-4.75227128400941e-001

2.90794503464061e+004,-1.81971546946983e+001,-4.81860913040413e-001

2.94853843458219e+004,-1.81971574812187e+001,-4.88587295967998e-001

2.98969849726987e+004,-1.81971603460605e+001,-4.95407569556858e-001

3.03143313302078e+004,-1.81971632914245e+001,-5.02323044211845e-001

3.07375036257601e+004,-1.81971663195734e+001,-5.09335048618067e-001

3.11665831864199e+004,-1.81971694328335e+001,-5.16444929997356e-001

3.16016524745350e+004,-1.81971726335963e+001,-5.23654054366171e-001

3.20427951035848e+004,-1.81971759243206e+001,-5.30963806796635e-001

3.24900958542493e+004,-1.81971793075341e+001,-5.38375591683524e-001

3.29436406907028e+004,-1.81971827858357e+001,-5.45890833011934e-001

3.34035167771346e+004,-1.81971863618970e+001,-5.53510974631138e-001

3.38698124945009e+004,-1.81971900384647e+001,-5.61237480531838e-001

3.43426174575100e+004,-1.81971938183630e+001,-5.69071835123515e-001

3.48220225318448e+004,-1.81971977044949e+001,-5.77015543524180e-001

3.53081198516260e+004,-1.81972016998450e+001,-5.85070131843634e-001

3.58010028371187e+004,-1.81972058074821e+001,-5.93237147478394e-001

3.63007662126863e+004,-1.81972100305605e+001,-6.01518159408484e-001

3.68075060249948e+004,-1.81972143723237e+001,-6.09914758495460e-001

3.73213196614721e+004,-1.81972188361059e+001,-6.18428557790542e-001

3.78423058690237e+004,-1.81972234253351e+001,-6.27061192839720e-001

3.83705647730104e+004,-1.81972281435352e+001,-6.35814322000704e-001

3.89061978964912e+004,-1.81972329943292e+001,-6.44689626758116e-001

3.94493081797342e+004,-1.81972379814421e+001,-6.53688812044665e-001

3.99999999999998e+004,-1.81972431087030e+001,-6.62813606570207e-001

4.05583791916010e+004,-1.81972483800487e+001,-6.72065763150153e-001

4.11245530662425e+004,-1.81972537995263e+001,-6.81447059042800e-001

4.16986304336447e+004,-1.81972593712968e+001,-6.90959296287508e-001

4.22807216224550e+004,-1.81972650996377e+001,-7.00604302050792e-001

4.28709385014515e+004,-1.81972709889465e+001,-7.10383928975977e-001

4.34693945010421e+004,-1.81972770437444e+001,-7.20300055536723e-001

4.40762046350642e+004,-1.81972832686791e+001,-7.30354586395895e-001

4.46914855228886e+004,-1.81972896685290e+001,-7.40549452772084e-001

4.53153554118317e+004,-1.81972962482064e+001,-7.50886612806409e-001

4.59479341998812e+004,-1.81973030127613e+001,-7.61368051937765e-001

4.65893434587380e+004,-1.81973099673856e+001,-7.71995783282163e-001

4.72397064571810e+004,-1.81973171174167e+001,-7.82771848019016e-001

4.78991481847569e+004,-1.81973244683417e+001,-7.93698315778009e-001

4.85677953758016e+004,-1.81973320258016e+001,-8.04777285037023e-001

4.92457765337964e+004,-1.81973397955956e+001,-8.16010883523163e-001

4.99332219560642e+004,-1.81973477836857e+001,-8.27401268616205e-001

5.06302637588109e+004,-1.81973559962007e+001,-8.38950627765308e-001

5.13370359025159e+004,-1.81973644394415e+001,-8.50661178901225e-001

5.20536742176771e+004,-1.81973731198858e+001,-8.62535170863961e-001

5.27803164309155e+004,-1.81973820441925e+001,-8.74574883830560e-001

5.35171021914442e+004,-1.81973912192075e+001,-8.86782629749282e-001

5.42641730979066e+004,-1.81974006519683e+001,-8.99160752781702e-001

5.50216727255895e+004,-1.81974103497100e+001,-9.11711629749672e-001

5.57897466540159e+004,-1.81974203198700e+001,-9.24437670588549e-001

5.65685424949235e+004,-1.81974305700947e+001,-9.37341318806143e-001

5.73582099206328e+004,-1.81974411082442e+001,-9.50425051949381e-001

5.81589006928121e+004,-1.81974519423991e+001,-9.63691382075490e-001

5.89707686916437e+004,-1.81974630808664e+001,-9.77142856231811e-001

5.97939699453972e+004,-1.81974745321856e+001,-9.90782056939981e-001

6.06286626604156e+004,-1.81974863051355e+001,-1.00461160268765e+000

6.14750072515201e+004,-1.81974984087407e+001,-1.01863414842757e+000

6.23331663728396e+004,-1.81975108522788e+001,-1.03285238608255e+000

6.32033049490698e+004,-1.81975236452868e+001,-1.04726904505818e+000

6.40855902071694e+004,-1.81975367975686e+001,-1.06188689276192e+000

6.49801917084985e+004,-1.81975503192032e+001,-1.07670873512809e+000

6.58872813814055e+004,-1.81975642205510e+001,-1.09173741715338e+000

6.68070335542691e+004,-1.81975785122627e+001,-1.10697582343644e+000

6.77396249890018e+004,-1.81975932052871e+001,-1.12242687872564e+000

6.86852349150199e+004,-1.81976083108790e+001,-1.13809354847564e+000

6.96440450636895e+004,-1.81976238406085e+001,-1.15397883940965e+000

7.06162397032520e+004,-1.81976398063691e+001,-1.17008580009057e+000

7.16020056742374e+004,-1.81976562203868e+001,-1.18641752149928e+000

7.26015324253724e+004,-1.81976730952296e+001,-1.20297713762086e+000

7.36150120499896e+004,-1.81976904438171e+001,-1.21976782603931e+000

7.46426393229441e+004,-1.81977082794298e+001,-1.23679280853940e+000

7.56846117380472e+004,-1.81977266157196e+001,-1.25405535171667e+000

7.67411295460207e+004,-1.81977454667196e+001,-1.27155876759833e+000

7.78123957929823e+004,-1.81977648468554e+001,-1.28930641426629e+000

7.88986163594682e+004,-1.81977847709552e+001,-1.30730169649719e+000

7.99999999999995e+004,-1.81978052542619e+001,-1.32554806640258e+000

8.11167583832018e+004,-1.81978263124435e+001,-1.34404902408513e+000

8.22491061324848e+004,-1.81978479616059e+001,-1.36280811829649e+000

8.33972608672892e+004,-1.81978702183043e+001,-1.38182894711098e+000

8.45614432449099e+004,-1.81978930995563e+001,-1.40111515860296e+000

8.57418770029029e+004,-1.81979166228542e+001,-1.42067045153569e+000

8.69387890020841e+004,-1.81979408061781e+001,-1.44049857605944e+000

8.81524092701283e+004,-1.81979656680101e+001,-1.46060333441829e+000

8.93829710457770e+004,-1.81979912273473e+001,-1.48098858166645e+000

9.06307108236633e+004,-1.81980175037167e+001,-1.50165822639498e+000

9.18958683997622e+004,-1.81980445171893e+001,-1.52261623146643e+000

9.31786869174758e+004,-1.81980722883958e+001,-1.54386661476109e+000

9.44794129143618e+004,-1.81981008385416e+001,-1.56541344993155e+000

9.57982963695136e+004,-1.81981301894224e+001,-1.58726086716959e+000

9.71355907516031e+004,-1.81981603634413e+001,-1.60941305398043e+000

9.84915530675926e+004,-1.81981913836248e+001,-1.63187425596884e+000

9.98664439121282e+004,-1.81982232736404e+001,-1.65464877763570e+000

1.01260527517622e+005,-1.81982560578140e+001,-1.67774098318443e+000

1.02674071805032e+005,-1.81982897611481e+001,-1.70115529733842e+000

1.04107348435354e+005,-1.81983244093407e+001,-1.72489620616865e+000

1.05560632861831e+005,-1.81983600288040e+001,-1.74896825793374e+000

1.07034204382888e+005,-1.81983966466841e+001,-1.77337606392844e+000

1.08528346195813e+005,-1.81984342908814e+001,-1.79812429934618e+000

1.10043345451179e+005,-1.81984729900713e+001,-1.82321770414981e+000

1.11579493308032e+005,-1.81985127737249e+001,-1.84866108395680e+000

1.13137084989847e+005,-1.81985536721315e+001,-1.87445931093360e+000

1.14716419841265e+005,-1.81985957164206e+001,-1.90061732470236e+000

1.16317801385624e+005,-1.81986389385852e+001,-1.92714013325974e+000

1.17941537383287e+005,-1.81986833715049e+001,-1.95403281390735e+000

1.19587939890794e+005,-1.81987290489706e+001,-1.98130051419421e+000

1.21257325320831e+005,-1.81987760057092e+001,-2.00894845287123e+000

1.22950014503040e+005,-1.81988242774093e+001,-2.03698192085831e+000

1.24666332745679e+005,-1.81988739007470e+001,-2.06540628222291e+000

1.26406609898139e+005,-1.81989249134132e+001,-2.09422697517292e+000

1.28171180414339e+005,-1.81989773541410e+001,-2.12344951306024e+000

1.29960383416997e+005,-1.81990312627343e+001,-2.15307948539789e+000

1.31774562762811e+005,-1.81990866800963e+001,-2.18312255889169e+000

1.33614067108538e+005,-1.81991436482600e+001,-2.21358447848115e+000

1.35479249978003e+005,-1.81992022104185e+001,-2.24447106839735e+000

1.37370469830040e+005,-1.81992624109563e+001,-2.27578823323277e+000

1.39288090127379e+005,-1.81993242954817e+001,-2.30754195902347e+000

1.41232479406504e+005,-1.81993879108597e+001,-2.33973831434698e+000

1.43204011348474e+005,-1.81994533052465e+001,-2.37238345143101e+000

1.45203064850745e+005,-1.81995205281234e+001,-2.40548360727947e+000

1.47230024099979e+005,-1.81995896303331e+001,-2.43904510481001e+000

1.49285278645888e+005,-1.81996606641161e+001,-2.47307435400597e+000

1.51369223476094e+005,-1.81997336831485e+001,-2.50757785308330e+000

1.53482259092041e+005,-1.81998087425800e+001,-2.54256218967131e+000

1.55624791585964e+005,-1.81998858990740e+001,-2.57803404200824e+000

1.57797232718936e+005,-1.81999652108476e+001,-2.61400018015092e+000

1.59999999999999e+005,-1.82000467377136e+001,-2.65046746719967e+000

1.62233516766403e+005,-1.82001305411224e+001,-2.68744286053787e+000

1.64498212264969e+005,-1.82002166842066e+001,-2.72493341308606e+000

1.66794521734578e+005,-1.82003052318247e+001,-2.76294627457237e+000

1.69122886489819e+005,-1.82003962506078e+001,-2.80148869281678e+000

1.71483754005805e+005,-1.82004898090062e+001,-2.84056801503172e+000

1.73877578004168e+005,-1.82005859773374e+001,-2.88019168913760e+000

1.76304818540256e+005,-1.82006848278363e+001,-2.92036726509381e+000

1.78765942091554e+005,-1.82007864347049e+001,-2.96110239624660e+000

1.81261421647326e+005,-1.82008908741643e+001,-3.00240484069107e+000

1.83791736799524e+005,-1.82009982245084e+001,-3.04428246265007e+000

1.86357373834951e+005,-1.82011085661577e+001,-3.08674323386974e+000

1.88958825828723e+005,-1.82012219817153e+001,-3.12979523502971e+000

1.91596592739027e+005,-1.82013385560240e+001,-3.17344665717116e+000

1.94271181503206e+005,-1.82014583762246e+001,-3.21770580313929e+000

1.96983106135185e+005,-1.82015815318159e+001,-3.26258108904547e+000

1.99732887824256e+005,-1.82017081147161e+001,-3.30808104574225e+000

2.02521055035243e+005,-1.82018382193253e+001,-3.35421432031767e+000

2.05348143610063e+005,-1.82019719425901e+001,-3.40098967760564e+000

2.08214696870707e+005,-1.82021093840690e+001,-3.44841600171335e+000

2.11121265723661e+005,-1.82022506459999e+001,-3.49650229756467e+000

2.14068408765776e+005,-1.82023958333690e+001,-3.54525769246275e+000

2.17056692391625e+005,-1.82025450539814e+001,-3.59469143766783e+000

2.20086690902357e+005,-1.82026984185329e+001,-3.64481290999333e+000

2.23158986616063e+005,-1.82028560406839e+001,-3.69563161341941e+000

2.26274169979693e+005,-1.82030180371352e+001,-3.74715718072317e+000

2.29432839682530e+005,-1.82031845277044e+001,-3.79939937512779e+000

2.32635602771247e+005,-1.82033556354058e+001,-3.85236809196750e+000

2.35883074766574e+005,-1.82035314865302e+001,-3.90607336037257e+000

2.39175879781588e+005,-1.82037122107279e+001,-3.96052534496999e+000

2.42514650641661e+005,-1.82038979410929e+001,-4.01573434760280e+000

2.45900029006080e+005,-1.82040888142491e+001,-4.07171080906833e+000

2.49332665491357e+005,-1.82042849704380e+001,-4.12846531087349e+000

2.52813219796278e+005,-1.82044865536092e+001,-4.18600857700790e+000

2.56342360828676e+005,-1.82046937115121e+001,-4.24435147573603e+000

2.59920766833993e+005,-1.82049065957896e+001,-4.30350502140722e+000

2.63549125525621e+005,-1.82051253620740e+001,-4.36348037628499e+000

2.67228134217075e+005,-1.82053501700853e+001,-4.42428885239236e+000

2.70958499956006e+005,-1.82055811837304e+001,-4.48594191337910e+000

2.74740939660078e+005,-1.82058185712057e+001,-4.54845117640423e+000

2.78576180254757e+005,-1.82060625051009e+001,-4.61182841403947e+000

2.82464958813007e+005,-1.82063131625054e+001,-4.67608555619050e+000

2.86408022696948e+005,-1.82065707251165e+001,-4.74123469203654e+000

2.90406129701488e+005,-1.82068353793500e+001,-4.80728807199038e+000

2.94460048199957e+005,-1.82071073164527e+001,-4.87425810967560e+000

2.98570557291775e+005,-1.82073867326180e+001,-4.94215738392361e+000

3.02738446952187e+005,-1.82076738291021e+001,-5.01099864079001e+000

3.06964518184081e+005,-1.82079688123445e+001,-5.08079479558979e+000

3.11249583171928e+005,-1.82082718940886e+001,-5.15155893495204e+000

3.15594465437872e+005,-1.82085832915067e+001,-5.22330431889338e+000

3.19999999999997e+005,-1.82089032273260e+001,-5.29604438291170e+000

3.24467033532806e+005,-1.82092319299567e+001,-5.36979274009968e+000

3.28996424529938e+005,-1.82095696336241e+001,-5.44456318327626e+000

3.33589043469155e+005,-1.82099165785011e+001,-5.52036968714035e+000

3.38245772979638e+005,-1.82102730108445e+001,-5.59722641044240e+000

3.42967508011610e+005,-1.82106391831328e+001,-5.67514769817711e+000

3.47755156008335e+005,-1.82110153542074e+001,-5.75414808379634e+000

3.52609637080511e+005,-1.82114017894151e+001,-5.83424229144202e+000

3.57531884183106e+005,-1.82117987607540e+001,-5.91544523819936e+000

3.62522843294651e+005,-1.82122065470212e+001,-5.99777203637179e+000

3.67583473599047e+005,-1.82126254339634e+001,-6.08123799577592e+000

3.72714747669902e+005,-1.82130557144301e+001,-6.16585862605729e+000

3.77917651657445e+005,-1.82134976885286e+001,-6.25164963902898e+000

3.83193185478053e+005,-1.82139516637824e+001,-6.33862695103011e+000

3.88542363006410e+005,-1.82144179552912e+001,-6.42680668530754e+000

3.93966212270369e+005,-1.82148968858949e+001,-6.51620517441865e+000

3.99465775648511e+005,-1.82153887863382e+001,-6.60683896265689e+000

4.05042110070485e+005,-1.82158939954394e+001,-6.69872480850070e+000

4.10696287220124e+005,-1.82164128602611e+001,-6.79187968708457e+000

4.16429393741414e+005,-1.82169457362837e+001,-6.88632079269442e+000

4.22242531447321e+005,-1.82174929875813e+001,-6.98206554128586e+000

4.28136817531551e+005,-1.82180549870002e+001,-7.07913157302809e+000

4.34113384783250e+005,-1.82186321163408e+001,-7.17753675487155e+000

4.40173381804713e+005,-1.82192247665411e+001,-7.27729918314055e+000

4.46317973232124e+005,-1.82198333378639e+001,-7.37843718615311e+000

4.52548339959385e+005,-1.82204582400858e+001,-7.48096932686548e+000

4.58865679365059e+005,-1.82210998926901e+001,-7.58491440554438e+000

4.65271205542494e+005,-1.82217587250614e+001,-7.69029146246693e+000

4.71766149533147e+005,-1.82224351766838e+001,-7.79711978064810e+000

4.78351759563174e+005,-1.82231296973418e+001,-7.90541888859702e+000

4.85029301283321e+005,-1.82238427473236e+001,-8.01520856310386e+000

4.91800058012158e+005,-1.82245747976289e+001,-8.12650883205515e+000

4.98665330982714e+005,-1.82253263301777e+001,-8.23933997728224e+000

5.05626439592555e+005,-1.82260978380241e+001,-8.35372253743978e+000

5.12684721657352e+005,-1.82268898255723e+001,-8.46967731091867e+000

5.19841533667984e+005,-1.82277028087958e+001,-8.58722535879089e+000

5.27098251051240e+005,-1.82285373154611e+001,-8.70638800779066e+000

5.34456268434150e+005,-1.82293938853535e+001,-8.82718685332990e+000

5.41916999912011e+005,-1.82302730705075e+001,-8.94964376255026e+000

