Freq.,VOut,OutRef

1.00000000000000e+004,-1.92163466230977e+001,-2.74024943480718e-001

1.01395947979003e+004,-1.92163474482035e+001,-2.77850176109017e-001

1.02811382665607e+004,-1.92163482965056e+001,-2.81728806442155e-001

1.04246576084112e+004,-1.92163491686566e+001,-2.85661579858807e-001

1.05701804056138e+004,-1.92163500653265e+001,-2.89649252145998e-001

1.07177346253629e+004,-1.92163509872047e+001,-2.93692589636799e-001

1.08673486252606e+004,-1.92163519349999e+001,-2.97792369362395e-001

1.10190511587661e+004,-1.92163529094408e+001,-3.01949379197863e-001

1.11728713807222e+004,-1.92163539112763e+001,-3.06164418018714e-001

1.13288388529580e+004,-1.92163549412766e+001,-3.10438295848585e-001

1.14869835499703e+004,-1.92163560002336e+001,-3.14771834017164e-001

1.16473358646846e+004,-1.92163570889613e+001,-3.19165865319894e-001

1.18099266142953e+004,-1.92163582082965e+001,-3.23621234174550e-001

1.19747870461893e+004,-1.92163593590997e+001,-3.28138796787159e-001

1.21419488439505e+004,-1.92163605422557e+001,-3.32719421311449e-001

1.23114441334492e+004,-1.92163617586738e+001,-3.37363988021023e-001

1.24833054890161e+004,-1.92163630092892e+001,-3.42073389475712e-001

1.26575659397028e+004,-1.92163642950633e+001,-3.46848530691520e-001

1.28342589756290e+004,-1.92163656169843e+001,-3.51690329318474e-001

1.30134185544193e+004,-1.92163669760686e+001,-3.56599715813359e-001

1.31950791077289e+004,-1.92163683733609e+001,-3.61577633619344e-001

1.33792755478611e+004,-1.92163698099351e+001,-3.66625039349622e-001

1.35660432744767e+004,-1.92163712868957e+001,-3.71742902966122e-001

1.37554181813974e+004,-1.92163728053780e+001,-3.76932207971505e-001

1.39474366635040e+004,-1.92163743665493e+001,-3.82193951593393e-001

1.41421356237309e+004,-1.92163759716096e+001,-3.87529144978806e-001

1.43395524801583e+004,-1.92163776217928e+001,-3.92938813386988e-001

1.45397251732031e+004,-1.92163793183672e+001,-3.98423996387137e-001

1.47426921729110e+004,-1.92163810626371e+001,-4.03985748056704e-001

1.49484924863494e+004,-1.92163828559432e+001,-4.09625137185555e-001

1.51571656651040e+004,-1.92163846996641e+001,-4.15343247479425e-001

1.53687518128801e+004,-1.92163865952170e+001,-4.21141177770371e-001

1.55832915932100e+004,-1.92163885440590e+001,-4.27020042225004e-001

1.58008262372675e+004,-1.92163905476881e+001,-4.32980970560126e-001

1.60213975517924e+004,-1.92163926076445e+001,-4.39025108259906e-001

1.62450479271247e+004,-1.92163947255115e+001,-4.45153616795179e-001

1.64718203453514e+004,-1.92163969029172e+001,-4.51367673845434e-001

1.67017583885674e+004,-1.92163991415352e+001,-4.57668473527497e-001

1.69349062472505e+004,-1.92164014430864e+001,-4.64057226622122e-001

1.71713087287550e+004,-1.92164038093397e+001,-4.70535160808804e-001

1.74110112659224e+004,-1.92164062421140e+001,-4.77103520899390e-001

1.76540599258131e+004,-1.92164087432794e+001,-4.83763569078206e-001

1.79005014185594e+004,-1.92164113147583e+001,-4.90516585144523e-001

1.81503831063432e+004,-1.92164139585273e+001,-4.97363866757598e-001

1.84037530124975e+004,-1.92164166766186e+001,-5.04306729686051e-001

1.86606598307361e+004,-1.92164194711214e+001,-5.11346508060657e-001

1.89211529345119e+004,-1.92164223441836e+001,-5.18484554630005e-001

1.91852823865052e+004,-1.92164252980136e+001,-5.25722241021287e-001

1.94530989482457e+004,-1.92164283348818e+001,-5.33060958000728e-001

1.97246540898671e+004,-1.92164314571223e+001,-5.40502115744421e-001

1.99999999999999e+004,-1.92164346671352e+001,-5.48047144106152e-001

2.02791895958005e+004,-1.92164379673875e+001,-5.55697492892868e-001

2.05622765331213e+004,-1.92164413604160e+001,-5.63454632141843e-001

2.08493152168224e+004,-1.92164448488285e+001,-5.71320052405369e-001

2.11403608112276e+004,-1.92164484353064e+001,-5.79295265033547e-001

2.14354692507258e+004,-1.92164521226059e+001,-5.87381802467298e-001

2.17346972505211e+004,-1.92164559135614e+001,-5.95581218529249e-001

2.20381023175322e+004,-1.92164598110866e+001,-6.03895088724109e-001

2.23457427614443e+004,-1.92164638181769e+001,-6.12325010541614e-001

2.26576777059159e+004,-1.92164679379120e+001,-6.20872603760671e-001

2.29739670999406e+004,-1.92164721734585e+001,-6.29539510760676e-001

2.32946717293690e+004,-1.92164765280715e+001,-6.38327396838571e-001

2.36198532285905e+004,-1.92164810050980e+001,-6.47237950525722e-001

2.39495740923785e+004,-1.92164856079786e+001,-6.56272883913676e-001

2.42838976879009e+004,-1.92164903402510e+001,-6.65433932981464e-001

2.46228882668982e+004,-1.92164952055522e+001,-6.74722857928327e-001

2.49666109780322e+004,-1.92165002076213e+001,-6.84141443512634e-001

2.53151318794055e+004,-1.92165053503026e+001,-6.93691499392773e-001

2.56685179512580e+004,-1.92165106375483e+001,-7.03374860475614e-001

2.60268371088386e+004,-1.92165160734218e+001,-7.13193387266942e-001

2.63901582154578e+004,-1.92165216621008e+001,-7.23148966228064e-001

2.67585510957221e+004,-1.92165274078799e+001,-7.33243510139359e-001

2.71320865489533e+004,-1.92165333151749e+001,-7.43478958465043e-001

2.75108363627948e+004,-1.92165393885256e+001,-7.53857277725505e-001

2.78948733270080e+004,-1.92165456325990e+001,-7.64380461875177e-001

2.82842712474618e+004,-1.92165520521938e+001,-7.75050532682546e-001

2.86791049603164e+004,-1.92165586522429e+001,-7.85869540121453e-001

2.90794503464061e+004,-1.92165654378184e+001,-7.96839562758872e-001

2.94853843458219e+004,-1.92165724141345e+001,-8.07962708157751e-001

2.98969849726987e+004,-1.92165795865522e+001,-8.19241113277678e-001

3.03143313302078e+004,-1.92165869605829e+001,-8.30676944886385e-001

3.07375036257601e+004,-1.92165945418929e+001,-8.42272399974526e-001

3.11665831864199e+004,-1.92166023363079e+001,-8.54029706174023e-001

3.16016524745350e+004,-1.92166103498169e+001,-8.65951122189368e-001

3.20427951035848e+004,-1.92166185885775e+001,-8.78038938226085e-001

3.24900958542493e+004,-1.92166270589202e+001,-8.90295476430478e-001

3.29436406907028e+004,-1.92166357673533e+001,-9.02723091336031e-001

3.34035167771346e+004,-1.92166447205680e+001,-9.15324170311377e-001

3.38698124945009e+004,-1.92166539254433e+001,-9.28101134020316e-001

3.43426174575100e+004,-1.92166633890517e+001,-9.41056436882306e-001

3.48220225318448e+004,-1.92166731186643e+001,-9.54192567544248e-001

3.53081198516260e+004,-1.92166831217562e+001,-9.67512049356673e-001

3.58010028371187e+004,-1.92166934060129e+001,-9.81017440854899e-001

3.63007662126863e+004,-1.92167039793355e+001,-9.94711336250427e-001

3.68075060249948e+004,-1.92167148498470e+001,-1.00859636592650e+000

3.73213196614721e+004,-1.92167260258990e+001,-1.02267519694065e+000

3.78423058690237e+004,-1.92167375160770e+001,-1.03695053353718e+000

3.83705647730104e+004,-1.92167493292080e+001,-1.05142511766086e+000

3.89061978964912e+004,-1.92167614743672e+001,-1.06610172948323e+000

3.94493081797342e+004,-1.92167739608840e+001,-1.08098318793479e+000

3.99999999999998e+004,-1.92167867983505e+001,-1.09607235124151e+000

4.05583791916010e+004,-1.92167999966277e+001,-1.11137211747375e+000

4.11245530662425e+004,-1.92168135658537e+001,-1.12688542509806e+000

4.16986304336447e+004,-1.92168275164514e+001,-1.14261525353924e+000

4.22807216224550e+004,-1.92168418591362e+001,-1.15856462375039e+000

4.28709385014515e+004,-1.92168566049244e+001,-1.17473659878851e+000

4.34693945010421e+004,-1.92168717651419e+001,-1.19113428440022e+000

4.40762046350642e+004,-1.92168873514323e+001,-1.20776082961419e+000

4.46914855228886e+004,-1.92169033757661e+001,-1.22461942734405e+000

4.53153554118317e+004,-1.92169198504502e+001,-1.24171331499444e+000

4.59479341998812e+004,-1.92169367881368e+001,-1.25904577508277e+000

4.65893434587380e+004,-1.92169542018333e+001,-1.27662013586170e+000

4.72397064571810e+004,-1.92169721049123e+001,-1.29443977195750e+000

4.78991481847569e+004,-1.92169905111217e+001,-1.31250810501089e+000

4.85677953758016e+004,-1.92170094345956e+001,-1.33082860433035e+000

4.92457765337964e+004,-1.92170288898644e+001,-1.34940478755426e+000

4.99332219560642e+004,-1.92170488918668e+001,-1.36824022131993e+000

5.06302637588109e+004,-1.92170694559603e+001,-1.38733852194445e+000

5.13370359025159e+004,-1.92170905979339e+001,-1.40670335611230e+000

5.20536742176771e+004,-1.92171123340193e+001,-1.42633844157496e+000

5.27803164309155e+004,-1.92171346809040e+001,-1.44624754785742e+000

5.35171021914442e+004,-1.92171576557437e+001,-1.46643449697656e+000

5.42641730979066e+004,-1.92171812761753e+001,-1.48690316416835e+000

5.50216727255895e+004,-1.92172055603308e+001,-1.50765747862492e+000

5.57897466540159e+004,-1.92172305268508e+001,-1.52870142424199e+000

5.65685424949235e+004,-1.92172561948989e+001,-1.55003904037548e+000

5.73582099206328e+004,-1.92172825841764e+001,-1.57167442261073e+000

5.81589006928121e+004,-1.92173097149371e+001,-1.59361172353996e+000

5.89707686916437e+004,-1.92173376080030e+001,-1.61585515355007e+000

5.97939699453972e+004,-1.92173662847802e+001,-1.63840898162426e+000

6.06286626604156e+004,-1.92173957672750e+001,-1.66127753615070e+000

6.14750072515201e+004,-1.92174260781109e+001,-1.68446520574461e+000

6.23331663728396e+004,-1.92174572405460e+001,-1.70797644008020e+000

6.32033049490698e+004,-1.92174892784905e+001,-1.73181575073545e+000

6.40855902071694e+004,-1.92175222165247e+001,-1.75598771204609e+000

6.49801917084985e+004,-1.92175560799186e+001,-1.78049696197272e+000

6.58872813814055e+004,-1.92175908946502e+001,-1.80534820298018e+000

6.68070335542691e+004,-1.92176266874260e+001,-1.83054620292592e+000

6.77396249890018e+004,-1.92176634857007e+001,-1.85609579596438e+000

6.86852349150199e+004,-1.92177013176990e+001,-1.88200188345989e+000

6.96440450636895e+004,-1.92177402124363e+001,-1.90826943491410e+000

7.06162397032520e+004,-1.92177801997409e+001,-1.93490348890528e+000

7.16020056742374e+004,-1.92178213102775e+001,-1.96190915403919e+000

7.26015324253724e+004,-1.92178635755693e+001,-1.98929160991558e+000

7.36150120499896e+004,-1.92179070280232e+001,-2.01705610810272e+000

7.46426393229441e+004,-1.92179517009532e+001,-2.04520797313137e+000

7.56846117380472e+004,-1.92179976286072e+001,-2.07375260349545e+000

7.67411295460207e+004,-1.92180448461916e+001,-2.10269547267151e+000

7.78123957929823e+004,-1.92180933898990e+001,-2.13204213014828e+000

7.88986163594682e+004,-1.92181432969354e+001,-2.16179820247132e+000

7.99999999999995e+004,-1.92181946055486e+001,-2.19196939430113e+000

8.11167583832018e+004,-1.92182473550566e+001,-2.22256148948693e+000

8.22491061324848e+004,-1.92183015858784e+001,-2.25358035215135e+000

8.33972608672892e+004,-1.92183573395642e+001,-2.28503192779212e+000

8.45614432449099e+004,-1.92184146588267e+001,-2.31692224439802e+000

8.57418770029029e+004,-1.92184735875738e+001,-2.34925741357898e+000

8.69387890020841e+004,-1.92185341709418e+001,-2.38204363171058e+000

8.81524092701283e+004,-1.92185964553295e+001,-2.41528718109487e+000

8.93829710457770e+004,-1.92186604884336e+001,-2.44899443113543e+000

9.06307108236633e+004,-1.92187263192842e+001,-2.48317183952855e+000

9.18958683997622e+004,-1.92187939982829e+001,-2.51782595346889e+000

9.31786869174758e+004,-1.92188635772398e+001,-2.55296341087253e+000

9.44794129143618e+004,-1.92189351094133e+001,-2.58859094161410e+000

9.57982963695136e+004,-1.92190086495505e+001,-2.62471536878185e+000

9.71355907516031e+004,-1.92190842539278e+001,-2.66134360994712e+000

9.84915530675926e+004,-1.92191619803942e+001,-2.69848267845192e+000

9.98664439121282e+004,-1.92192418884145e+001,-2.73613968471188e+000

1.01260527517622e+005,-1.92193240391142e+001,-2.77432183753676e+000

1.02674071805032e+005,-1.92194084953255e+001,-2.81303644546814e+000

1.04107348435354e+005,-1.92194953216348e+001,-2.85229091813295e+000

1.05560632861831e+005,-1.92195845844312e+001,-2.89209276761564e+000

1.07034204382888e+005,-1.92196763519565e+001,-2.93244960984822e+000

1.08528346195813e+005,-1.92197706943565e+001,-2.97336916601557e+000

1.10043345451179e+005,-1.92198676837336e+001,-3.01485926398182e+000

1.11579493308032e+005,-1.92199673942010e+001,-3.05692783973184e+000

1.13137084989847e+005,-1.92200699019385e+001,-3.09958293883410e+000

1.14716419841265e+005,-1.92201752852495e+001,-3.14283271791783e+000

1.16317801385624e+005,-1.92202836246193e+001,-3.18668544617292e+000

1.17941537383287e+005,-1.92203950027762e+001,-3.23114950686616e+000

1.19587939890794e+005,-1.92205095047527e+001,-3.27623339887617e+000

1.21257325320831e+005,-1.92206272179493e+001,-3.32194573824945e+000

1.22950014503040e+005,-1.92207482321998e+001,-3.36829525977349e+000

1.24666332745679e+005,-1.92208726398386e+001,-3.41529081857027e+000

1.26406609898139e+005,-1.92210005357693e+001,-3.46294139170971e+000

1.28171180414339e+005,-1.92211320175353e+001,-3.51125607984250e+000

1.29960383416997e+005,-1.92212671853930e+001,-3.56024410885245e+000

1.31774562762811e+005,-1.92214061423860e+001,-3.60991483152924e+000

1.33614067108538e+005,-1.92215489944214e+001,-3.66027772926240e+000

1.35479249978003e+005,-1.92216958503493e+001,-3.71134241375347e+000

1.37370469830040e+005,-1.92218468220430e+001,-3.76311862875133e+000

1.39288090127379e+005,-1.92220020244816e+001,-3.81561625180582e+000

1.41232479406504e+005,-1.92221615758362e+001,-3.86884529604431e+000

1.43204011348474e+005,-1.92223255975564e+001,-3.92281591196741e+000

1.45203064850745e+005,-1.92224942144602e+001,-3.97753838926765e+000

1.47230024099979e+005,-1.92226675548265e+001,-4.03302315866794e+000

1.49285278645888e+005,-1.92228457504894e+001,-4.08928079378213e+000

1.51369223476094e+005,-1.92230289369354e+001,-4.14632201299720e+000

1.53482259092041e+005,-1.92232172534030e+001,-4.20415768137687e+000

1.55624791585964e+005,-1.92234108429850e+001,-4.26279881258723e+000

1.57797232718936e+005,-1.92236098527337e+001,-4.32225657084363e+000

1.59999999999999e+005,-1.92238144337684e+001,-4.38254227288122e+000

1.62233516766403e+005,-1.92240247413861e+001,-4.44366738994515e+000

1.64498212264969e+005,-1.92242409351752e+001,-4.50564354980558e+000

1.66794521734578e+005,-1.92244631791318e+001,-4.56848253879279e+000

1.69122886489819e+005,-1.92246916417791e+001,-4.63219630385664e+000

1.71483754005805e+005,-1.92249264962904e+001,-4.69679695464666e+000

1.73877578004168e+005,-1.92251679206149e+001,-4.76229676561610e+000

1.76304818540256e+005,-1.92254160976064e+001,-4.82870817814832e+000

1.78765942091554e+005,-1.92256712151562e+001,-4.89604380270488e+000

1.81261421647326e+005,-1.92259334663291e+001,-4.96431642099755e+000

1.83791736799524e+005,-1.92262030495023e+001,-5.03353898818245e+000

1.86357373834951e+005,-1.92264801685089e+001,-5.10372463507734e+000

1.88958825828723e+005,-1.92267650327843e+001,-5.17488667040104e+000

1.91596592739027e+005,-1.92270578575166e+001,-5.24703858303638e+000

1.94271181503206e+005,-1.92273588638014e+001,-5.32019404431528e+000

1.96983106135185e+005,-1.92276682787993e+001,-5.39436691032755e+000

1.99732887824256e+005,-1.92279863358984e+001,-5.46957122425135e+000

2.02521055035243e+005,-1.92283132748811e+001,-5.54582121870687e+000

2.05348143610063e+005,-1.92286493420939e+001,-5.62313131813278e+000

2.08214696870707e+005,-1.92289947906231e+001,-5.70151614118491e+000

2.11121265723661e+005,-1.92293498804734e+001,-5.78099050315816e+000

2.14068408765776e+005,-1.92297148787518e+001,-5.86156941842990e+000

2.17056692391625e+005,-1.92300900598564e+001,-5.94326810292596e+000

2.20086690902357e+005,-1.92304757056688e+001,-6.02610197660950e+000

2.23158986616063e+005,-1.92308721057524e+001,-6.11008666599076e+000

2.26274169979693e+005,-1.92312795575550e+001,-6.19523800665970e+000

2.29432839682530e+005,-1.92316983666164e+001,-6.28157204583964e+000

2.32635602771247e+005,-1.92321288467815e+001,-6.36910504496281e+000

2.35883074766574e+005,-1.92325713204179e+001,-6.45785348226735e+000

2.39175879781588e+005,-1.92330261186399e+001,-6.54783405541470e+000

2.42514650641661e+005,-1.92334935815366e+001,-6.63906368412851e+000

2.45900029006080e+005,-1.92339740584067e+001,-6.73155951285343e+000

2.49332665491357e+005,-1.92344679079982e+001,-6.82533891343519e+000

2.52813219796278e+005,-1.92349754987542e+001,-6.92041948781949e+000

2.56342360828676e+005,-1.92354972090645e+001,-7.01681907077109e+000

2.59920766833993e+005,-1.92360334275233e+001,-7.11455573261200e+000

2.63549125525621e+005,-1.92365845531924e+001,-7.21364778197888e+000

2.67228134217075e+005,-1.92371509958716e+001,-7.31411376859823e+000

2.70958499956006e+005,-1.92377331763745e+001,-7.41597248608003e+000

2.74740939660078e+005,-1.92383315268116e+001,-7.51924297472935e+000

2.78576180254757e+005,-1.92389464908788e+001,-7.62394452437391e+000

2.82464958813007e+005,-1.92395785241541e+001,-7.73009667720955e+000

2.86408022696948e+005,-1.92402280943997e+001,-7.83771923066077e+000

2.90406129701488e+005,-1.92408956818718e+001,-7.94683224025701e+000

2.94460048199957e+005,-1.92415817796373e+001,-8.05745602252407e+000

2.98570557291775e+005,-1.92422868938974e+001,-8.16961115788962e+000

3.02738446952187e+005,-1.92430115443187e+001,-8.28331849360244e+000

3.06964518184081e+005,-1.92437562643719e+001,-8.39859914666380e+000

3.11249583171928e+005,-1.92445216016775e+001,-8.51547450677240e+000

3.15594465437872e+005,-1.92453081183595e+001,-8.63396623927978e+000

3.19999999999997e+005,-1.92461163914066e+001,-8.75409628815631e+000

3.24467033532806e+005,-1.92469470130415e+001,-8.87588687896829e+000

3.28996424529938e+005,-1.92478005910982e+001,-8.99936052186220e+000

3.33589043469155e+005,-1.92486777494072e+001,-9.12454001455852e+000

3.38245772979638e+005,-1.92495791281889e+001,-9.25144844535235e+000

3.42967508011610e+005,-1.92505053844554e+001,-9.38010919611991e+000

3.47755156008335e+005,-1.92514571924212e+001,-9.51054594533101e+000

3.52609637080511e+005,-1.92524352439214e+001,-9.64278267106548e+000

3.57531884183106e+005,-1.92534402488396e+001,-9.77684365403199e+000

3.62522843294651e+005,-1.92544729355444e+001,-9.91275348059029e+000

3.67583473599047e+005,-1.92555340513338e+001,-1.00505370457736e+001

3.72714747669902e+005,-1.92566243628901e+001,-1.01902195563113e+001

3.77917651657445e+005,-1.92577446567430e+001,-1.03318265336490e+001

3.83193185478053e+005,-1.92588957397416e+001,-1.04753838169675e+001

3.88542363006410e+005,-1.92600784395368e+001,-1.06209175661970e+001

3.93966212270369e+005,-1.92612936050722e+001,-1.07684542650253e+001

3.99465775648511e+005,-1.92625421070845e+001,-1.09180207239005e+001

4.05042110070485e+005,-1.92638248386145e+001,-1.10696440830255e+001

4.10696287220124e+005,-1.92651427155260e+001,-1.12233518153415e+001

4.16429393741414e+005,-1.92664966770367e+001,-1.13791717295023e+001

4.22242531447321e+005,-1.92678876862567e+001,-1.15371319728342e+001

4.28136817531551e+005,-1.92693167307390e+001,-1.16972610342840e+001

4.34113384783250e+005,-1.92707848230384e+001,-1.18595877473480e+001

4.40173381804713e+005,-1.92722930012816e+001,-1.20241412929865e+001

4.46317973232124e+005,-1.92738423297466e+001,-1.21909512025173e+001

4.52548339959385e+005,-1.92754338994536e+001,-1.23600473604884e+001

4.58865679365059e+005,-1.92770688287646e+001,-1.25314600075285e+001

4.65271205542494e+005,-1.92787482639949e+001,-1.27052197431724e+001

4.71766149533147e+005,-1.92804733800342e+001,-1.28813575286589e+001

4.78351759563174e+005,-1.92822453809784e+001,-1.30599046897022e+001

4.85029301283321e+005,-1.92840655007720e+001,-1.32408929192303e+001

4.91800058012158e+005,-1.92859350038612e+001,-1.34243542800924e+001

4.98665330982714e+005,-1.92878551858579e+001,-1.36103212077303e+001

5.05626439592555e+005,-1.92898273742137e+001,-1.37988265128136e+001

5.12684721657352e+005,-1.92918529289053e+001,-1.39899033838355e+001

5.19841533667984e+005,-1.92939332431310e+001,-1.41835853896660e+001

5.27098251051240e+005,-1.92960697440169e+001,-1.43799064820622e+001

5.34456268434150e+005,-1.92982638933351e+001,-1.45789009981317e+001

5.41916999912011e+005,-1.93005171882326e+001,-1.47806036627468e+001

