Freq.,VOut,OutRef

1.00000000000000e+004,-2.25027356080072e+001,-2.50761697120399e-001

1.01395947979003e+004,-2.25027364766069e+001,-2.54262186531221e-001

1.02811382665607e+004,-2.25027373696256e+001,-2.57811540384702e-001

1.04246576084112e+004,-2.25027382877503e+001,-2.61410440775342e-001

1.05701804056138e+004,-2.25027392316863e+001,-2.65059579324306e-001

1.07177346253629e+004,-2.25027402021595e+001,-2.68759657302489e-001

1.08673486252606e+004,-2.25027411999159e+001,-2.72511385770880e-001

1.10190511587661e+004,-2.25027422257225e+001,-2.76315485714726e-001

1.11728713807222e+004,-2.25027432803678e+001,-2.80172688183248e-001

1.13288388529580e+004,-2.25027443646625e+001,-2.84083734428692e-001

1.14869835499703e+004,-2.25027454794404e+001,-2.88049376049150e-001

1.16473358646846e+004,-2.25027466255581e+001,-2.92070375134505e-001

1.18099266142953e+004,-2.25027478038968e+001,-2.96147504411251e-001

1.19747870461893e+004,-2.25027490153624e+001,-3.00281547389622e-001

1.21419488439505e+004,-2.25027502608860e+001,-3.04473298518831e-001

1.23114441334492e+004,-2.25027515414251e+001,-3.08723563333817e-001

1.24833054890161e+004,-2.25027528579642e+001,-3.13033158613393e-001

1.26575659397028e+004,-2.25027542115152e+001,-3.17402912536878e-001

1.28342589756290e+004,-2.25027556031188e+001,-3.21833664841608e-001

1.30134185544193e+004,-2.25027570338443e+001,-3.26326266988291e-001

1.31950791077289e+004,-2.25027585047920e+001,-3.30881582317290e-001

1.33792755478611e+004,-2.25027600170924e+001,-3.35500486222219e-001

1.35660432744767e+004,-2.25027615719079e+001,-3.40183866312378e-001

1.37554181813974e+004,-2.25027631704340e+001,-3.44932622586177e-001

1.39474366635040e+004,-2.25027648138992e+001,-3.49747667603631e-001

1.41421356237309e+004,-2.25027665035669e+001,-3.54629926660219e-001

1.43395524801583e+004,-2.25027682407361e+001,-3.59580337965491e-001

1.45397251732031e+004,-2.25027700267420e+001,-3.64599852824932e-001

1.47426921729110e+004,-2.25027718629575e+001,-3.69689435818488e-001

1.49484924863494e+004,-2.25027737507941e+001,-3.74850064989926e-001

1.51571656651040e+004,-2.25027756917030e+001,-3.80082732032716e-001

1.53687518128801e+004,-2.25027776871759e+001,-3.85388442480773e-001

1.55832915932100e+004,-2.25027797387472e+001,-3.90768215899661e-001

1.58008262372675e+004,-2.25027818479934e+001,-3.96223086087307e-001

1.60213975517924e+004,-2.25027840165361e+001,-4.01754101266373e-001

1.62450479271247e+004,-2.25027862460420e+001,-4.07362324290991e-001

1.64718203453514e+004,-2.25027885382250e+001,-4.13048832845744e-001

1.67017583885674e+004,-2.25027908948471e+001,-4.18814719656792e-001

1.69349062472505e+004,-2.25027933177196e+001,-4.24661092699387e-001

1.71713087287550e+004,-2.25027958087050e+001,-4.30589075411524e-001

1.74110112659224e+004,-2.25027983697179e+001,-4.36599806908782e-001

1.76540599258131e+004,-2.25028010027268e+001,-4.42694442203517e-001

1.79005014185594e+004,-2.25028037097558e+001,-4.48874152426124e-001

1.81503831063432e+004,-2.25028064928855e+001,-4.55140125051389e-001

1.84037530124975e+004,-2.25028093542551e+001,-4.61493564123453e-001

1.86606598307361e+004,-2.25028122960641e+001,-4.67935690490113e-001

1.89211529345119e+004,-2.25028153205736e+001,-4.74467742034444e-001

1.91852823865052e+004,-2.25028184301084e+001,-4.81090973915200e-001

1.94530989482457e+004,-2.25028216270584e+001,-4.87806658804715e-001

1.97246540898671e+004,-2.25028249138811e+001,-4.94616087134243e-001

1.99999999999999e+004,-2.25028282931028e+001,-5.01520567342957e-001

2.02791895958005e+004,-2.25028317673207e+001,-5.08521426127398e-001

2.05622765331213e+004,-2.25028353392052e+001,-5.15620008696861e-001

2.08493152168224e+004,-2.25028390115017e+001,-5.22817679030513e-001

2.11403608112276e+004,-2.25028427870327e+001,-5.30115820139841e-001

2.14354692507258e+004,-2.25028466687001e+001,-5.37515834334579e-001

2.17346972505211e+004,-2.25028506594874e+001,-5.45019143490044e-001

2.20381023175322e+004,-2.25028547624617e+001,-5.52627189322240e-001

2.23457427614443e+004,-2.25028589807768e+001,-5.60341433661067e-001

2.26576777059159e+004,-2.25028633176744e+001,-5.68163358734982e-001

2.29739670999406e+004,-2.25028677764881e+001,-5.76094467451174e-001

2.32946717293690e+004,-2.25028723606446e+001,-5.84136283686953e-001

2.36198532285905e+004,-2.25028770736673e+001,-5.92290352579309e-001

2.39495740923785e+004,-2.25028819191781e+001,-6.00558240824312e-001

2.42838976879009e+004,-2.25028869009013e+001,-6.08941536974133e-001

2.46228882668982e+004,-2.25028920226655e+001,-6.17441851744808e-001

2.49666109780322e+004,-2.25028972884069e+001,-6.26060818322173e-001

2.53151318794055e+004,-2.25029027021726e+001,-6.34800092677095e-001

2.56685179512580e+004,-2.25029082681229e+001,-6.43661353883012e-001

2.60268371088386e+004,-2.25029139905356e+001,-6.52646304435766e-001

2.63901582154578e+004,-2.25029198738083e+001,-6.61756670581285e-001

2.67585510957221e+004,-2.25029259224624e+001,-6.70994202646492e-001

2.71320865489533e+004,-2.25029321411462e+001,-6.80360675375395e-001

2.75108363627948e+004,-2.25029385346388e+001,-6.89857888267293e-001

2.78948733270080e+004,-2.25029451078533e+001,-6.99487665923257e-001

2.82842712474618e+004,-2.25029518658411e+001,-7.09251858395339e-001

2.86791049603164e+004,-2.25029588137955e+001,-7.19152341539717e-001

2.90794503464061e+004,-2.25029659570556e+001,-7.29191017378979e-001

2.94853843458219e+004,-2.25029733011107e+001,-7.39369814462793e-001

2.98969849726987e+004,-2.25029808516043e+001,-7.49690688240047e-001

3.03143313302078e+004,-2.25029886143381e+001,-7.60155621432999e-001

3.07375036257601e+004,-2.25029965952775e+001,-7.70766624414901e-001

3.11665831864199e+004,-2.25030048005549e+001,-7.81525735598386e-001

3.16016524745350e+004,-2.25030132364752e+001,-7.92435021822380e-001

3.20427951035848e+004,-2.25030219095205e+001,-8.03496578749081e-001

3.24900958542493e+004,-2.25030308263550e+001,-8.14712531266255e-001

3.29436406907028e+004,-2.25030399938300e+001,-8.26085033892243e-001

3.34035167771346e+004,-2.25030494189892e+001,-8.37616271189664e-001

3.38698124945009e+004,-2.25030591090747e+001,-8.49308458181260e-001

3.43426174575100e+004,-2.25030690715314e+001,-8.61163840776829e-001

3.48220225318448e+004,-2.25030793140137e+001,-8.73184696199804e-001

3.53081198516260e+004,-2.25030898443909e+001,-8.85373333424916e-001

3.58010028371187e+004,-2.25031006707534e+001,-8.97732093619294e-001

3.63007662126863e+004,-2.25031118014188e+001,-9.10263350589257e-001

3.68075060249948e+004,-2.25031232449385e+001,-9.22969511235647e-001

3.73213196614721e+004,-2.25031350101038e+001,-9.35853016012810e-001

3.78423058690237e+004,-2.25031471059531e+001,-9.48916339395167e-001

3.83705647730104e+004,-2.25031595417788e+001,-9.62161990351060e-001

3.89061978964912e+004,-2.25031723271340e+001,-9.75592512821310e-001

3.94493081797342e+004,-2.25031854718403e+001,-9.89210486205390e-001

3.99999999999998e+004,-2.25031989859950e+001,-1.00301852585437e+000

4.05583791916010e+004,-2.25032128799791e+001,-1.01701928357027e+000

4.11245530662425e+004,-2.25032271644651e+001,-1.03121544811233e+000

4.16986304336447e+004,-2.25032418504251e+001,-1.04560974571054e+000

4.22807216224550e+004,-2.25032569491393e+001,-1.06020494058663e+000

4.28709385014515e+004,-2.25032724722048e+001,-1.07500383548025e+000

4.34693945010421e+004,-2.25032884315444e+001,-1.09000927218428e+000

4.40762046350642e+004,-2.25033048394153e+001,-1.10522413208835e+000

4.46914855228886e+004,-2.25033217084191e+001,-1.12065133672630e+000

4.53153554118317e+004,-2.25033390515113e+001,-1.13629384833434e+000

4.59479341998812e+004,-2.25033568820109e+001,-1.15215467041666e+000

4.65893434587380e+004,-2.25033752136110e+001,-1.16823684831593e+000

4.72397064571810e+004,-2.25033940603890e+001,-1.18454346979527e+000

4.78991481847569e+004,-2.25034134368174e+001,-1.20107766562623e+000

4.85677953758016e+004,-2.25034333577751e+001,-1.21784261018418e+000

4.92457765337964e+004,-2.25034538385587e+001,-1.23484152205431e+000

4.99332219560642e+004,-2.25034748948939e+001,-1.25207766464299e+000

5.06302637588109e+004,-2.25034965429478e+001,-1.26955434680014e+000

5.13370359025159e+004,-2.25035187993416e+001,-1.28727492344731e+000

5.20536742176771e+004,-2.25035416811626e+001,-1.30524279621706e+000

5.27803164309155e+004,-2.25035652059776e+001,-1.32346141410007e+000

5.35171021914442e+004,-2.25035893918466e+001,-1.34193427409929e+000

5.42641730979066e+004,-2.25036142573361e+001,-1.36066492189653e+000

5.50216727255895e+004,-2.25036398215337e+001,-1.37965695252381e+000

5.57897466540159e+004,-2.25036661040625e+001,-1.39891401104911e+000

5.65685424949235e+004,-2.25036931250960e+001,-1.41843979326531e+000

5.73582099206328e+004,-2.25037209053740e+001,-1.43823804639366e+000

5.81589006928121e+004,-2.25037494662176e+001,-1.45831256979510e+000

5.89707686916437e+004,-2.25037788295463e+001,-1.47866721568856e+000

5.97939699453972e+004,-2.25038090178944e+001,-1.49930588988400e+000

6.06286626604156e+004,-2.25038400544279e+001,-1.52023255252111e+000

6.14750072515201e+004,-2.25038719629628e+001,-1.54145121881996e+000

6.23331663728396e+004,-2.25039047679827e+001,-1.56296595984176e+000

6.32033049490698e+004,-2.25039384946580e+001,-1.58478090325856e+000

6.40855902071694e+004,-2.25039731688649e+001,-1.60690023413459e+000

6.49801917084985e+004,-2.25040088172045e+001,-1.62932819571962e+000

6.58872813814055e+004,-2.25040454670243e+001,-1.65206909024760e+000

6.68070335542691e+004,-2.25040831464381e+001,-1.67512727975352e+000

6.77396249890018e+004,-2.25041218843476e+001,-1.69850718689396e+000

6.86852349150199e+004,-2.25041617104649e+001,-1.72221329578398e+000

6.96440450636895e+004,-2.25042026553344e+001,-1.74625015284283e+000

7.06162397032520e+004,-2.25042447503568e+001,-1.77062236765080e+000

7.16020056742374e+004,-2.25042880278122e+001,-1.79533461381919e+000

7.26015324253724e+004,-2.25043325208856e+001,-1.82039162986896e+000

7.36150120499896e+004,-2.25043782636912e+001,-1.84579822012480e+000

7.46426393229441e+004,-2.25044252912991e+001,-1.87155925561773e+000

7.56846117380472e+004,-2.25044736397616e+001,-1.89767967500262e+000

7.67411295460207e+004,-2.25045233461407e+001,-1.92416448548453e+000

7.78123957929823e+004,-2.25045744485362e+001,-1.95101876376072e+000

7.88986163594682e+004,-2.25046269861146e+001,-1.97824765697326e+000

7.99999999999995e+004,-2.25046809991392e+001,-2.00585638367390e+000

8.11167583832018e+004,-2.25047365290001e+001,-2.03385023480305e+000

8.22491061324848e+004,-2.25047936182461e+001,-2.06223457468017e+000

8.33972608672892e+004,-2.25048523106169e+001,-2.09101484200899e+000

8.45614432449099e+004,-2.25049126510759e+001,-2.12019655089345e+000

8.57418770029029e+004,-2.25049746858448e+001,-2.14978529186982e+000

8.69387890020841e+004,-2.25050384624382e+001,-2.17978673294924e+000

8.81524092701283e+004,-2.25051040296999e+001,-2.21020662067692e+000

8.93829710457770e+004,-2.25051714378397e+001,-2.24105078120265e+000

9.06307108236633e+004,-2.25052407384715e+001,-2.27232512136625e+000

9.18958683997622e+004,-2.25053119846523e+001,-2.30403562979754e+000

9.31786869174758e+004,-2.25053852309223e+001,-2.33618837803007e+000

9.44794129143618e+004,-2.25054605333461e+001,-2.36878952162818e+000

9.57982963695136e+004,-2.25055379495554e+001,-2.40184530133087e+000

9.71355907516031e+004,-2.25056175387918e+001,-2.43536204420864e+000

9.84915530675926e+004,-2.25056993619524e+001,-2.46934616483517e+000

9.98664439121282e+004,-2.25057834816348e+001,-2.50380416647484e+000

1.01260527517622e+005,-2.25058699621852e+001,-2.53874264228484e+000

1.02674071805032e+005,-2.25059588697463e+001,-2.57416827653287e+000

1.04107348435354e+005,-2.25060502723072e+001,-2.61008784582997e+000

1.05560632861831e+005,-2.25061442397548e+001,-2.64650822037874e+000

1.07034204382888e+005,-2.25062408439262e+001,-2.68343636523871e+000

1.08528346195813e+005,-2.25063401586626e+001,-2.72087934160508e+000

1.10043345451179e+005,-2.25064422598652e+001,-2.75884430810588e+000

1.11579493308032e+005,-2.25065472255517e+001,-2.79733852211427e+000

1.13137084989847e+005,-2.25066551359150e+001,-2.83636934107755e+000

1.14716419841265e+005,-2.25067660733837e+001,-2.87594422386161e+000

1.16317801385624e+005,-2.25068801226831e+001,-2.91607073211400e+000

1.17941537383287e+005,-2.25069973708995e+001,-2.95675653164119e+000

1.19587939890794e+005,-2.25071179075448e+001,-2.99800939380569e+000

1.21257325320831e+005,-2.25072418246236e+001,-3.03983719693773e+000

1.22950014503040e+005,-2.25073692167020e+001,-3.08224792776534e+000

1.24666332745679e+005,-2.25075001809779e+001,-3.12524968286208e+000

1.26406609898139e+005,-2.25076348173541e+001,-3.16885067011092e+000

1.28171180414339e+005,-2.25077732285122e+001,-3.21305921018702e+000

1.29960383416997e+005,-2.25079155199892e+001,-3.25788373805784e+000

1.31774562762811e+005,-2.25080618002561e+001,-3.30333280450149e+000

1.33614067108538e+005,-2.25082121807987e+001,-3.34941507764171e+000

1.35479249978003e+005,-2.25083667761999e+001,-3.39613934450240e+000

1.37370469830040e+005,-2.25085257042254e+001,-3.44351451258041e+000

1.39288090127379e+005,-2.25086890859103e+001,-3.49154961143566e+000

1.41232479406504e+005,-2.25088570456492e+001,-3.54025379430053e+000

1.43204011348474e+005,-2.25090297112879e+001,-3.58963633970712e+000

1.45203064850745e+005,-2.25092072142182e+001,-3.63970665313489e+000

1.47230024099979e+005,-2.25093896894747e+001,-3.69047426867468e+000

1.49285278645888e+005,-2.25095772758341e+001,-3.74194885071303e+000

1.51369223476094e+005,-2.25097701159180e+001,-3.79414019563604e+000

1.53482259092041e+005,-2.25099683562974e+001,-3.84705823355037e+000

1.55624791585964e+005,-2.25101721476002e+001,-3.90071303002575e+000

1.57797232718936e+005,-2.25103816446223e+001,-3.95511478785427e+000

1.59999999999999e+005,-2.25105970064405e+001,-4.01027384883127e+000

1.62233516766403e+005,-2.25108183965293e+001,-4.06620069555357e+000

1.64498212264969e+005,-2.25110459828802e+001,-4.12290595323872e+000

1.66794521734578e+005,-2.25112799381242e+001,-4.18040039156224e+000

1.69122886489819e+005,-2.25115204396578e+001,-4.23869492651605e+000

1.71483754005805e+005,-2.25117676697722e+001,-4.29780062228460e+000

1.73877578004168e+005,-2.25120218157856e+001,-4.35772869314159e+000

1.76304818540256e+005,-2.25122830701789e+001,-4.41849050536643e+000

1.78765942091554e+005,-2.25125516307356e+001,-4.48009757917959e+000

1.81261421647326e+005,-2.25128277006845e+001,-4.54256159069797e+000

1.83791736799524e+005,-2.25131114888467e+001,-4.60589437390941e+000

1.86357373834951e+005,-2.25134032097858e+001,-4.67010792266739e+000

1.88958825828723e+005,-2.25137030839625e+001,-4.73521439270461e+000

1.91596592739027e+005,-2.25140113378930e+001,-4.80122610366613e+000

1.94271181503206e+005,-2.25143282043113e+001,-4.86815554116187e+000

1.96983106135185e+005,-2.25146539223357e+001,-4.93601535883936e+000

1.99732887824256e+005,-2.25149887376397e+001,-5.00481838047394e+000

2.02521055035243e+005,-2.25153329026268e+001,-5.07457760207978e+000

2.05348143610063e+005,-2.25156866766106e+001,-5.14530619403875e+000

2.08214696870707e+005,-2.25160503259983e+001,-5.21701750324943e+000

2.11121265723661e+005,-2.25164241244799e+001,-5.28972505529324e+000

2.14068408765776e+005,-2.25168083532210e+001,-5.36344255662104e+000

2.17056692391625e+005,-2.25172033010617e+001,-5.43818389675678e+000

2.20086690902357e+005,-2.25176092647194e+001,-5.51396315052008e+000

2.23158986616063e+005,-2.25180265489974e+001,-5.59079458026662e+000

2.26274169979693e+005,-2.25184554669977e+001,-5.66869263814699e+000

2.29432839682530e+005,-2.25188963403405e+001,-5.74767196838173e+000

2.32635602771247e+005,-2.25193494993874e+001,-5.82774740955598e+000

2.35883074766574e+005,-2.25198152834716e+001,-5.90893399692851e+000

2.39175879781588e+005,-2.25202940411325e+001,-5.99124696476035e+000

2.42514650641661e+005,-2.25207861303571e+001,-6.07470174865719e+000

2.45900029006080e+005,-2.25212919188260e+001,-6.15931398793059e+000

2.49332665491357e+005,-2.25218117841665e+001,-6.24509952797243e+000

2.52813219796278e+005,-2.25223461142113e+001,-6.33207442264660e+000

2.56342360828676e+005,-2.25228953072631e+001,-6.42025493669515e+000

2.59920766833993e+005,-2.25234597723657e+001,-6.50965754815907e+000

2.63549125525621e+005,-2.25240399295822e+001,-6.60029895081201e+000

2.67228134217075e+005,-2.25246362102782e+001,-6.69219605661064e+000

2.70958499956006e+005,-2.25252490574135e+001,-6.78536599815444e+000

2.74740939660078e+005,-2.25258789258394e+001,-6.87982613116101e+000

2.78576180254757e+005,-2.25265262826028e+001,-6.97559403695206e+000

2.82464958813007e+005,-2.25271916072585e+001,-7.07268752495164e+000

2.86408022696948e+005,-2.25278753921874e+001,-7.17112463519412e+000

2.90406129701488e+005,-2.25285781429229e+001,-7.27092364084433e+000

2.94460048199957e+005,-2.25293003784841e+001,-7.37210305072492e+000

2.98570557291775e+005,-2.25300426317169e+001,-7.47468161185506e+000

3.02738446952187e+005,-2.25308054496429e+001,-7.57867831199533e+000

3.06964518184081e+005,-2.25315893938154e+001,-7.68411238220131e+000

3.11249583171928e+005,-2.25323950406846e+001,-7.79100329938318e+000

3.15594465437872e+005,-2.25332229819694e+001,-7.89937078887150e+000

3.19999999999997e+005,-2.25340738250385e+001,-8.00923482698751e+000

3.24467033532806e+005,-2.25349481932992e+001,-8.12061564361830e+000

3.28996424529938e+005,-2.25358467265950e+001,-8.23353372479462e+000

3.33589043469155e+005,-2.25367700816116e+001,-8.34800981527064e+000

3.38245772979638e+005,-2.25377189322916e+001,-8.46406492110580e+000

3.42967508011610e+005,-2.25386939702579e+001,-8.58172031224606e+000

3.47755156008335e+005,-2.25396959052466e+001,-8.70099752510561e+000

3.52609637080511e+005,-2.25407254655481e+001,-8.82191836514485e+000

3.57531884183106e+005,-2.25417833984582e+001,-8.94450490944660e+000

3.62522843294651e+005,-2.25428704707380e+001,-9.06877950928860e+000

3.67583473599047e+005,-2.25439874690836e+001,-9.19476479270897e+000

3.72714747669902e+005,-2.25451352006050e+001,-9.32248366706692e+000

3.77917651657445e+005,-2.25463144933149e+001,-9.45195932159405e+000

3.83193185478053e+005,-2.25475261966273e+001,-9.58321522993805e+000

3.88542363006410e+005,-2.25487711818662e+001,-9.71627515269416e+000

3.93966212270369e+005,-2.25500503427835e+001,-9.85116313992635e+000

3.99465775648511e+005,-2.25513645960883e+001,-9.98790353367429e+000

4.05042110070485e+005,-2.25527148819854e+001,-1.01265209704458e+001

4.10696287220124e+005,-2.25541021647246e+001,-1.02670403836931e+001

4.16429393741414e+005,-2.25555274331604e+001,-1.04094870062716e+001

4.22242531447321e+005,-2.25569917013227e+001,-1.05538863728784e+001

4.28136817531551e+005,-2.25584960089972e+001,-1.07002643224713e+001

4.34113384783250e+005,-2.25600414223173e+001,-1.08486470006635e+001

4.40173381804713e+005,-2.25616290343674e+001,-1.09990608620956e+001

4.46317973232124e+005,-2.25632599657955e+001,-1.11515326727805e+001

4.52548339959385e+005,-2.25649353654388e+001,-1.13060895124211e+001

4.58865679365059e+005,-2.25666564109591e+001,-1.14627587766974e+001

4.65271205542494e+005,-2.25684243094904e+001,-1.16215681795238e+001

4.71766149533147e+005,-2.25702402982969e+001,-1.17825457552713e+001

4.78351759563174e+005,-2.25721056454438e+001,-1.19457198609548e+001

4.85029301283321e+005,-2.25740216504781e+001,-1.21111191783840e+001

4.91800058012158e+005,-2.25759896451224e+001,-1.22787727162732e+001

4.98665330982714e+005,-2.25780109939797e+001,-1.24487098123106e+001

5.05626439592555e+005,-2.25800870952500e+001,-1.26209601351840e+001

5.12684721657352e+005,-2.25822193814590e+001,-1.27955536865595e+001

5.19841533667984e+005,-2.25844093201993e+001,-1.29725208030135e+001

5.27098251051240e+005,-2.25866584148825e+001,-1.31518921579121e+001

5.34456268434150e+005,-2.25889682055043e+001,-1.33336987632396e+001

5.41916999912011e+005,-2.25913402694219e+001,-1.35179719713700e+001

