Freq.,VOut,OutRef

1.00000000000000e+004,-6.63091152948360e-001,-1.08892760038729e-001

1.01395947979003e+004,-6.63091122168053e-001,-1.10412846932351e-001

1.02811382665607e+004,-6.63091090522529e-001,-1.11954153473548e-001

1.04246576084112e+004,-6.63091057987316e-001,-1.13516975879463e-001

1.05701804056138e+004,-6.63091024537550e-001,-1.15101614500812e-001

1.07177346253629e+004,-6.63090990147315e-001,-1.16708373882856e-001

1.08673486252606e+004,-6.63090954790281e-001,-1.18337562820423e-001

1.10190511587661e+004,-6.63090918439218e-001,-1.19989494420515e-001

1.11728713807222e+004,-6.63090881066307e-001,-1.21664486158944e-001

1.13288388529580e+004,-6.63090842642621e-001,-1.23362859946091e-001

1.14869835499703e+004,-6.63090803138811e-001,-1.25084942183640e-001

1.16473358646846e+004,-6.63090762524456e-001,-1.26831063830844e-001

1.18099266142953e+004,-6.63090720768329e-001,-1.28601560467039e-001

1.19747870461893e+004,-6.63090677838342e-001,-1.30396772356365e-001

1.21419488439505e+004,-6.63090633701459e-001,-1.32217044512370e-001

1.23114441334492e+004,-6.63090588323756e-001,-1.34062726765524e-001

1.24833054890161e+004,-6.63090541670470e-001,-1.35934173828449e-001

1.26575659397028e+004,-6.63090493705500e-001,-1.37831745368146e-001

1.28342589756290e+004,-6.63090444392201e-001,-1.39755806069305e-001

1.30134185544193e+004,-6.63090393692610e-001,-1.41706725709378e-001

1.31950791077289e+004,-6.63090341567758e-001,-1.43684879227172e-001

1.33792755478611e+004,-6.63090287977421e-001,-1.45690646796955e-001

1.35660432744767e+004,-6.63090232880680e-001,-1.47724413897361e-001

1.37554181813974e+004,-6.63090176234966e-001,-1.49786571391159e-001

1.39474366635040e+004,-6.63090117996835e-001,-1.51877515595098e-001

1.41421356237309e+004,-6.63090058121514e-001,-1.53997648360166e-001

1.43395524801583e+004,-6.63089996562978e-001,-1.56147377145695e-001

1.45397251732031e+004,-6.63089933273903e-001,-1.58327115100070e-001

1.47426921729110e+004,-6.63089868205611e-001,-1.60537281138986e-001

1.49484924863494e+004,-6.63089801308086e-001,-1.62778300025862e-001

1.51571656651040e+004,-6.63089732530068e-001,-1.65050602453006e-001

1.53687518128801e+004,-6.63089661818518e-001,-1.67354625126859e-001

1.55832915932100e+004,-6.63089589119141e-001,-1.69690810848772e-001

1.58008262372675e+004,-6.63089514376052e-001,-1.72059608602122e-001

1.60213975517924e+004,-6.63089437531836e-001,-1.74461473637791e-001

1.62450479271247e+004,-6.63089358527361e-001,-1.76896867562365e-001

1.64718203453514e+004,-6.63089277302036e-001,-1.79366258425216e-001

1.67017583885674e+004,-6.63089193793318e-001,-1.81870120811143e-001

1.69349062472505e+004,-6.63089107937030e-001,-1.84408935929412e-001

1.71713087287550e+004,-6.63089019667117e-001,-1.86983191707050e-001

1.74110112659224e+004,-6.63088928915955e-001,-1.89593382881358e-001

1.76540599258131e+004,-6.63088835613696e-001,-1.92240011097708e-001

1.79005014185594e+004,-6.63088739688514e-001,-1.94923585004411e-001

1.81503831063432e+004,-6.63088641066752e-001,-1.97644620349386e-001

1.84037530124975e+004,-6.63088539672753e-001,-2.00403640080254e-001

1.86606598307361e+004,-6.63088435428446e-001,-2.03201174446357e-001

1.89211529345119e+004,-6.63088328253666e-001,-2.06037761098939e-001

1.91852823865052e+004,-6.63088218066212e-001,-2.08913945193189e-001

1.94530989482457e+004,-6.63088104781300e-001,-2.11830279496822e-001

1.97246540898671e+004,-6.63087988311880e-001,-2.14787324493320e-001

1.99999999999999e+004,-6.63087868568498e-001,-2.17785648490064e-001

2.02791895958005e+004,-6.63087745459010e-001,-2.20825827729315e-001

2.05622765331213e+004,-6.63087618889004e-001,-2.23908446495707e-001

2.08493152168224e+004,-6.63087488761028e-001,-2.27034097232751e-001

2.11403608112276e+004,-6.63087354975113e-001,-2.30203380653830e-001

2.14354692507258e+004,-6.63087217428567e-001,-2.33416905856718e-001

2.17346972505211e+004,-6.63087076015575e-001,-2.36675290444654e-001

2.20381023175322e+004,-6.63086930627507e-001,-2.39979160641527e-001

2.23457427614443e+004,-6.63086781152579e-001,-2.43329151414127e-001

2.26576777059159e+004,-6.63086627476095e-001,-2.46725906591530e-001

2.29739670999406e+004,-6.63086469479757e-001,-2.50170078993954e-001

2.32946717293690e+004,-6.63086307042383e-001,-2.53662330551946e-001

2.36198532285905e+004,-6.63086140038961e-001,-2.57203332439428e-001

2.39495740923785e+004,-6.63085968341256e-001,-2.60793765198576e-001

2.42838976879009e+004,-6.63085791817408e-001,-2.64434318871912e-001

2.46228882668982e+004,-6.63085610331603e-001,-2.68125693137204e-001

2.49666109780322e+004,-6.63085423744531e-001,-2.71868597437564e-001

2.53151318794055e+004,-6.63085231912861e-001,-2.75663751120946e-001

2.56685179512580e+004,-6.63085034689115e-001,-2.79511883578839e-001

2.60268371088386e+004,-6.63084831921772e-001,-2.83413734383979e-001

2.63901582154578e+004,-6.63084623455034e-001,-2.87370053434900e-001

2.67585510957221e+004,-6.63084409128781e-001,-2.91381601097864e-001

2.71320865489533e+004,-6.63084188778361e-001,-2.95449148355311e-001

2.75108363627948e+004,-6.63083962234516e-001,-2.99573476952211e-001

2.78948733270080e+004,-6.63083729323100e-001,-3.03755379548244e-001

2.82842712474618e+004,-6.63083489865187e-001,-3.07995659868330e-001

2.86791049603164e+004,-6.63083243676931e-001,-3.12295132857489e-001

2.90794503464061e+004,-6.63082990569124e-001,-3.16654624839016e-001

2.94853843458219e+004,-6.63082730347365e-001,-3.21074973671285e-001

2.98969849726987e+004,-6.63082462811795e-001,-3.25557028910166e-001

3.03143313302078e+004,-6.63082187756819e-001,-3.30101651972498e-001

3.07375036257601e+004,-6.63081904971194e-001,-3.34709716300419e-001

3.11665831864199e+004,-6.63081614237713e-001,-3.39382107530283e-001

3.16016524745350e+004,-6.63081315333130e-001,-3.44119723662511e-001

3.20427951035848e+004,-6.63081008027759e-001,-3.48923475235355e-001

3.24900958542493e+004,-6.63080692085605e-001,-3.53794285497928e-001

3.29436406907028e+004,-6.63080367263999e-001,-3.58733090589725e-001

3.34035167771346e+004,-6.63080033313554e-001,-3.63740839718743e-001

3.38698124945009e+004,-6.63079689977720e-001,-3.68818495346104e-001

3.43426174575100e+004,-6.63079336992817e-001,-3.73967033369069e-001

3.48220225318448e+004,-6.63078974087800e-001,-3.79187443310102e-001

3.53081198516260e+004,-6.63078600983990e-001,-3.84480728506556e-001

3.58010028371187e+004,-6.63078217394893e-001,-3.89847906302967e-001

3.63007662126863e+004,-6.63077823025936e-001,-3.95290008248671e-001

3.68075060249948e+004,-6.63077417574237e-001,-4.00808080294081e-001

3.73213196614721e+004,-6.63077000728591e-001,-4.06403182992089e-001

3.78423058690237e+004,-6.63076572168829e-001,-4.12076391703755e-001

3.83705647730104e+004,-6.63076131565973e-001,-4.17828796802701e-001

3.89061978964912e+004,-6.63075678581801e-001,-4.23661503886139e-001

3.94493081797342e+004,-6.63075212868480e-001,-4.29575633987977e-001

3.99999999999998e+004,-6.63074734068544e-001,-4.35572323792621e-001

4.05583791916010e+004,-6.63074241814328e-001,-4.41652725856031e-001

4.11245530662425e+004,-6.63073735728041e-001,-4.47818008824526e-001

4.16986304336447e+004,-6.63073215421266e-001,-4.54069357661288e-001

4.22807216224550e+004,-6.63072680494499e-001,-4.60407973875333e-001

4.28709385014515e+004,-6.63072130537258e-001,-4.66835075749381e-001

4.34693945010421e+004,-6.63071565127464e-001,-4.73351898576734e-001

4.40762046350642e+004,-6.63070983831150e-001,-4.79959694898268e-001

4.46914855228886e+004,-6.63070386202224e-001,-4.86659734743186e-001

4.53153554118317e+004,-6.63069771782079e-001,-4.93453305873003e-001

4.59479341998812e+004,-6.63069140099249e-001,-5.00341714029671e-001

4.65893434587380e+004,-6.63068490669065e-001,-5.07326283186582e-001

4.72397064571810e+004,-6.63067822993138e-001,-5.14408355803714e-001

4.78991481847569e+004,-6.63067136559387e-001,-5.21589293084078e-001

4.85677953758016e+004,-6.63066430841039e-001,-5.28870475238817e-001

4.92457765337964e+004,-6.63065705296760e-001,-5.36253301749282e-001

4.99332219560642e+004,-6.63064959370042e-001,-5.43739191637939e-001

5.06302637588109e+004,-6.63064192488678e-001,-5.51329583741646e-001

5.13370359025159e+004,-6.63063404064514e-001,-5.59025936988188e-001

5.20536742176771e+004,-6.63062593492806e-001,-5.66829730676020e-001

5.27803164309155e+004,-6.63061760152043e-001,-5.74742464759778e-001

5.35171021914442e+004,-6.63060903403087e-001,-5.82765660139382e-001

5.42641730979066e+004,-6.63060022589038e-001,-5.90900858951141e-001

5.50216727255895e+004,-6.63059117034593e-001,-5.99149624865433e-001

5.57897466540159e+004,-6.63058186045442e-001,-6.07513543388295e-001

5.65685424949235e+004,-6.63057228907878e-001,-6.15994222164894e-001

5.73582099206328e+004,-6.63056244888197e-001,-6.24593291289912e-001

5.81589006928121e+004,-6.63055233232237e-001,-6.33312403620613e-001

5.89707686916437e+004,-6.63054193164551e-001,-6.42153235096259e-001

5.97939699453972e+004,-6.63053123888104e-001,-6.51117485059050e-001

6.06286626604156e+004,-6.63052024583539e-001,-6.60206876581907e-001

6.14750072515201e+004,-6.63050894408553e-001,-6.69423156800200e-001

6.23331663728396e+004,-6.63049732497198e-001,-6.78768097247844e-001

6.32033049490698e+004,-6.63048537959457e-001,-6.88243494198156e-001

6.40855902071694e+004,-6.63047309880246e-001,-6.97851169010050e-001

6.49801917084985e+004,-6.63046047318949e-001,-7.07592968478368e-001

6.58872813814055e+004,-6.63044749308721e-001,-7.17470765188920e-001

6.68070335542691e+004,-6.63043414855491e-001,-7.27486457880513e-001

6.77396249890018e+004,-6.63042042937525e-001,-7.37641971808608e-001

6.86852349150199e+004,-6.63040632504578e-001,-7.47939259116911e-001

6.96440450636895e+004,-6.63039182476888e-001,-7.58380299213844e-001

7.06162397032520e+004,-6.63037691744579e-001,-7.68967099152673e-001

7.16020056742374e+004,-6.63036159166847e-001,-7.79701694018262e-001

7.26015324253724e+004,-6.63034583570856e-001,-7.90586147319444e-001

7.36150120499896e+004,-6.63032963751117e-001,-8.01622551386047e-001

7.46426393229441e+004,-6.63031298468436e-001,-8.12813027771869e-001

7.56846117380472e+004,-6.63029586449010e-001,-8.24159727663540e-001

7.67411295460207e+004,-6.63027826383530e-001,-8.35664832294039e-001

7.78123957929823e+004,-6.63026016925995e-001,-8.47330553364869e-001

7.88986163594682e+004,-6.63024156692984e-001,-8.59159133469317e-001

7.99999999999995e+004,-6.63022244262435e-001,-8.71152846527081e-001

8.11167583832018e+004,-6.63020278172589e-001,-8.83313998220840e-001

8.22491061324848e+004,-6.63018256920880e-001,-8.95644926441531e-001

8.33972608672892e+004,-6.63016178962922e-001,-9.08148001737711e-001

8.45614432449099e+004,-6.63014042711193e-001,-9.20825627773401e-001

8.57418770029029e+004,-6.63011846534040e-001,-9.33680241790683e-001

8.69387890020841e+004,-6.63009588754181e-001,-9.46714315080100e-001

8.81524092701283e+004,-6.63007267647755e-001,-9.59930353456346e-001

8.93829710457770e+004,-6.63004881442784e-001,-9.73330897741802e-001

9.06307108236633e+004,-6.63002428318053e-001,-9.86918524255740e-001

9.18958683997622e+004,-6.62999906401504e-001,-1.00069584531244e+000

9.31786869174758e+004,-6.62997313769097e-001,-1.01466550972326e+000

9.44794129143618e+004,-6.62994648443255e-001,-1.02883020330806e+000

9.57982963695136e+004,-6.62991908391295e-001,-1.04319264941387e+000

9.71355907516031e+004,-6.62989091524181e-001,-1.05775560943891e+000

9.84915530675926e+004,-6.62986195694646e-001,-1.07252188336630e+000

9.98664439121282e+004,-6.62983218695826e-001,-1.08749431030365e+000

1.01260527517622e+005,-6.62980158259589e-001,-1.10267576903094e+000

1.02674071805032e+005,-6.62977012054765e-001,-1.11806917855617e+000

1.04107348435354e+005,-6.62973777685459e-001,-1.13367749867838e+000

1.05560632861831e+005,-6.62970452689335e-001,-1.14950373055894e+000

1.07034204382888e+005,-6.62967034535718e-001,-1.16555091730097e+000

1.08528346195813e+005,-6.62963520623804e-001,-1.18182214453653e+000

1.10043345451179e+005,-6.62959908280619e-001,-1.19832054102280e+000

1.11579493308032e+005,-6.62956194759174e-001,-1.21504927924563e+000

1.13137084989847e+005,-6.62952377236433e-001,-1.23201157603244e+000

1.14716419841265e+005,-6.62948452811070e-001,-1.24921069317353e+000

1.16317801385624e+005,-6.62944418501642e-001,-1.26664993805210e+000

1.17941537383287e+005,-6.62940271244081e-001,-1.28433266428343e+000

1.19587939890794e+005,-6.62936007889719e-001,-1.30226227236173e+000

1.21257325320831e+005,-6.62931625202778e-001,-1.32044221031891e+000

1.22950014503040e+005,-6.62927119858170e-001,-1.33887597438986e+000

1.24666332745679e+005,-6.62922488438906e-001,-1.35756710968847e+000

1.26406609898139e+005,-6.62917727433848e-001,-1.37651921089299e+000

1.28171180414339e+005,-6.62912833234868e-001,-1.39573592294132e+000

1.29960383416997e+005,-6.62907802134435e-001,-1.41522094173557e+000

1.31774562762811e+005,-6.62902630322879e-001,-1.43497801485695e+000

1.33614067108538e+005,-6.62897313885625e-001,-1.45501094229085e+000

1.35479249978003e+005,-6.62891848800339e-001,-1.47532357716197e+000

1.37370469830040e+005,-6.62886230934051e-001,-1.49591982648012e+000

1.39288090127379e+005,-6.62880456040199e-001,-1.51680365189611e+000

1.41232479406504e+005,-6.62874519755592e-001,-1.53797907046860e+000

1.43204011348474e+005,-6.62868417597159e-001,-1.55945015544285e+000

1.45203064850745e+005,-6.62862144958991e-001,-1.58122103703775e+000

1.47230024099979e+005,-6.62855697108756e-001,-1.60329590324785e+000

1.49285278645888e+005,-6.62849069184567e-001,-1.62567900065270e+000

1.51369223476094e+005,-6.62842256191313e-001,-1.64837463524165e+000

1.53482259092041e+005,-6.62835252997382e-001,-1.67138717324671e+000

1.55624791585964e+005,-6.62828054330724e-001,-1.69472104199018e+000

1.57797232718936e+005,-6.62820654775356e-001,-1.71838073074235e+000

1.59999999999999e+005,-6.62813048767503e-001,-1.74237079159240e+000

1.62233516766403e+005,-6.62805230591524e-001,-1.76669584033147e+000

1.64498212264969e+005,-6.62797194376180e-001,-1.79136055734820e+000

1.66794521734578e+005,-6.62788934090285e-001,-1.81636968853700e+000

1.69122886489819e+005,-6.62780443538542e-001,-1.84172804621945e+000

1.71483754005805e+005,-6.62771716357477e-001,-1.86744051007822e+000

1.73877578004168e+005,-6.62762746010600e-001,-1.89351202810590e+000

1.76304818540256e+005,-6.62753525784235e-001,-1.91994761756478e+000

1.78765942091554e+005,-6.62744048782809e-001,-1.94675236596258e+000

1.81261421647326e+005,-6.62734307923886e-001,-1.97393143204158e+000

1.83791736799524e+005,-6.62724295933678e-001,-2.00149004678085e+000

1.86357373834951e+005,-6.62714005341826e-001,-2.02943351441398e+000

1.88958825828723e+005,-6.62703428476310e-001,-2.05776721346072e+000

1.91596592739027e+005,-6.62692557458368e-001,-2.08649659777393e+000

1.94271181503206e+005,-6.62681384197023e-001,-2.11562719760074e+000

1.96983106135185e+005,-6.62669900383851e-001,-2.14516462065892e+000

1.99732887824256e+005,-6.62658097487065e-001,-2.17511455323005e+000

2.02521055035243e+005,-6.62645966746087e-001,-2.20548276126668e+000

2.05348143610063e+005,-6.62633499165545e-001,-2.23627509151602e+000

2.08214696870707e+005,-6.62620685509470e-001,-2.26749747265961e+000

2.11121265723661e+005,-6.62607516294997e-001,-2.29915591646950e+000

2.14068408765776e+005,-6.62593981786147e-001,-2.33125651898172e+000

2.17056692391625e+005,-6.62580071987582e-001,-2.36380546168436e+000

2.20086690902357e+005,-6.62565776637890e-001,-2.39680901272576e+000

2.23158986616063e+005,-6.62551085203110e-001,-2.43027352813686e+000

2.26274169979693e+005,-6.62535986869700e-001,-2.46420545307437e+000

2.29432839682530e+005,-6.62520470537686e-001,-2.49861132307930e+000

2.32635602771247e+005,-6.62504524813591e-001,-2.53349776535425e+000

2.35883074766574e+005,-6.62488138003036e-001,-2.56887150006027e+000

2.39175879781588e+005,-6.62471298103446e-001,-2.60473934163045e+000

2.42514650641661e+005,-6.62453992796313e-001,-2.64110820010425e+000

2.45900029006080e+005,-6.62436209439741e-001,-2.67798508247949e+000

2.49332665491357e+005,-6.62417935060073e-001,-2.71537709408574e+000

2.52813219796278e+005,-6.62399156344341e-001,-2.75329143997485e+000

2.56342360828676e+005,-6.62379859631745e-001,-2.79173542633441e+000

2.59920766833993e+005,-6.62360030905275e-001,-2.83071646191954e+000

2.63549125525621e+005,-6.62339655783292e-001,-2.87024205950641e+000

2.67228134217075e+005,-6.62318719510653e-001,-2.91031983736621e+000

2.70958499956006e+005,-6.62297206949961e-001,-2.95095752076087e+000

2.74740939660078e+005,-6.62275102572324e-001,-2.99216294346018e+000

2.78576180254757e+005,-6.62252390448307e-001,-3.03394404928031e+000

2.82464958813007e+005,-6.62229054238364e-001,-3.07630889364620e+000

2.86408022696948e+005,-6.62205077183289e-001,-3.11926564517434e+000

2.90406129701488e+005,-6.62180442094538e-001,-3.16282258728038e+000

2.94460048199957e+005,-6.62155131344207e-001,-3.20698811980852e+000

2.98570557291775e+005,-6.62129126854866e-001,-3.25177076068608e+000

3.02738446952187e+005,-6.62102410089342e-001,-3.29717914760041e+000

3.06964518184081e+005,-6.62074962040253e-001,-3.34322203970098e+000

3.11249583171928e+005,-6.62046763219246e-001,-3.38990831932602e+000

3.15594465437872e+005,-6.62017793646256e-001,-3.43724699375397e+000

3.19999999999997e+005,-6.61988032838453e-001,-3.48524719698067e+000

3.24467033532806e+005,-6.61957459799031e-001,-3.53391819152172e+000

3.28996424529938e+005,-6.61926053005824e-001,-3.58326937024143e+000

3.33589043469155e+005,-6.61893790399703e-001,-3.63331025820797e+000

3.38245772979638e+005,-6.61860649372964e-001,-3.68405051457579e+000

3.42967508011610e+005,-6.61826606757192e-001,-3.73549993449473e+000

3.47755156008335e+005,-6.61791638811383e-001,-3.78766845104688e+000

3.52609637080511e+005,-6.61755721209421e-001,-3.84056613721217e+000

3.57531884183106e+005,-6.61718829027781e-001,-3.89420320786145e+000

3.62522843294651e+005,-6.61680936732836e-001,-3.94859002177885e+000

3.67583473599047e+005,-6.61642018168004e-001,-4.00373708371325e+000

3.72714747669902e+005,-6.61602046540714e-001,-4.05965504645977e+000

3.77917651657445e+005,-6.61560994409294e-001,-4.11635471297090e+000

3.83193185478053e+005,-6.61518833669562e-001,-4.17384703849813e+000

3.88542363006410e+005,-6.61475535541316e-001,-4.23214313276451e+000

3.93966212270369e+005,-6.61431070554601e-001,-4.29125426216899e+000

3.99465775648511e+005,-6.61385408535781e-001,-4.35119185202179e+000

4.05042110070485e+005,-6.61338518593590e-001,-4.41196748881236e+000

4.10696287220124e+005,-6.61290369104849e-001,-4.47359292250986e+000

4.16429393741414e+005,-6.61240927699954e-001,-4.53608006889716e+000

4.22242531447321e+005,-6.61190161248491e-001,-4.59944101193720e+000

4.28136817531551e+005,-6.61138035844343e-001,-4.66368800617473e+000

4.34113384783250e+005,-6.61084516790777e-001,-4.72883347917140e+000

4.40173381804713e+005,-6.61029568585471e-001,-4.79489003397598e+000

4.46317973232124e+005,-6.60973154905162e-001,-4.86187045163012e+000

4.52548339959385e+005,-6.60915238590173e-001,-4.92978769370995e+000

4.58865679365059e+005,-6.60855781628944e-001,-4.99865490490306e+000

4.65271205542494e+005,-6.60794745142067e-001,-5.06848541562367e+000

4.71766149533147e+005,-6.60732089366495e-001,-5.13929274466337e+000

4.78351759563174e+005,-6.60667773639288e-001,-5.21109060188070e+000

4.85029301283321e+005,-6.60601756381439e-001,-5.28389289092793e+000

4.91800058012158e+005,-6.60533995081192e-001,-5.35771371201777e+000

4.98665330982714e+005,-6.60464446277457e-001,-5.43256736472720e+000

5.05626439592555e+005,-6.60393065542901e-001,-5.50846835084298e+000

5.12684721657352e+005,-6.60319807466869e-001,-5.58543137724528e+000

5.19841533667984e+005,-6.60244625638106e-001,-5.66347135883360e+000

5.27098251051240e+005,-6.60167472627169e-001,-5.74260342149236e+000

5.34456268434150e+005,-6.60088299968768e-001,-5.82284290509898e+000

5.41916999912011e+005,-6.60007058143770e-001,-5.90420536657316e+000

