Freq.,VOut,OutRef

1.00000000000000e+004,-1.67034010846078e+001,-2.32768821242730e-001

1.01395947979003e+004,-1.67034015135181e+001,-2.36018146529154e-001

1.02811382665607e+004,-1.67034019544864e+001,-2.39312830436528e-001

1.04246576084112e+004,-1.67034024078519e+001,-2.42653506134513e-001

1.05701804056138e+004,-1.67034028739630e+001,-2.46040815633390e-001

1.07177346253629e+004,-1.67034033531778e+001,-2.49475409905296e-001

1.08673486252606e+004,-1.67034038458651e+001,-2.52957949006136e-001

1.10190511587661e+004,-1.67034043524034e+001,-2.56489102208698e-001

1.11728713807222e+004,-1.67034048731821e+001,-2.60069548125765e-001

1.13288388529580e+004,-1.67034054086016e+001,-2.63699974843382e-001

1.14869835499703e+004,-1.67034059590734e+001,-2.67381080051907e-001

1.16473358646846e+004,-1.67034065250207e+001,-2.71113571181533e-001

1.18099266142953e+004,-1.67034071068786e+001,-2.74898165535358e-001

1.19747870461893e+004,-1.67034077050943e+001,-2.78735590430322e-001

1.21419488439505e+004,-1.67034083201279e+001,-2.82626583334338e-001

1.23114441334492e+004,-1.67034089524518e+001,-2.86571892011800e-001

1.24833054890161e+004,-1.67034096025523e+001,-2.90572274661237e-001

1.26575659397028e+004,-1.67034102709292e+001,-2.94628500067081e-001

1.28342589756290e+004,-1.67034109580961e+001,-2.98741347743049e-001

1.30134185544193e+004,-1.67034116645814e+001,-3.02911608084966e-001

1.31950791077289e+004,-1.67034123909281e+001,-3.07140082519749e-001

1.33792755478611e+004,-1.67034131376944e+001,-3.11427583662664e-001

1.35660432744767e+004,-1.67034139054547e+001,-3.15774935469107e-001

1.37554181813974e+004,-1.67034146947989e+001,-3.20182973397397e-001

1.39474366635040e+004,-1.67034155063340e+001,-3.24652544566646e-001

1.41421356237309e+004,-1.67034163406835e+001,-3.29184507920771e-001

1.43395524801583e+004,-1.67034171984890e+001,-3.33779734392128e-001

1.45397251732031e+004,-1.67034180804098e+001,-3.38439107069760e-001

1.47426921729110e+004,-1.67034189871239e+001,-3.43163521367807e-001

1.49484924863494e+004,-1.67034199193283e+001,-3.47953885200941e-001

1.51571656651040e+004,-1.67034208777394e+001,-3.52811119154567e-001

1.53687518128801e+004,-1.67034218630939e+001,-3.57736156664707e-001

1.55832915932100e+004,-1.67034228761494e+001,-3.62729944194233e-001

1.58008262372675e+004,-1.67034239176847e+001,-3.67793441418080e-001

1.60213975517924e+004,-1.67034249885002e+001,-3.72927621405317e-001

1.62450479271247e+004,-1.67034260894190e+001,-3.78133470807541e-001

1.64718203453514e+004,-1.67034272212874e+001,-3.83411990047694e-001

1.67017583885674e+004,-1.67034283849755e+001,-3.88764193510512e-001

1.69349062472505e+004,-1.67034295813777e+001,-3.94191109741151e-001

1.71713087287550e+004,-1.67034308114137e+001,-3.99693781639145e-001

1.74110112659224e+004,-1.67034320760289e+001,-4.05273266660656e-001

1.76540599258131e+004,-1.67034333761953e+001,-4.10930637022086e-001

1.79005014185594e+004,-1.67034347129124e+001,-4.16666979903177e-001

1.81503831063432e+004,-1.67034360872077e+001,-4.22483397658125e-001

1.84037530124975e+004,-1.67034375001373e+001,-4.28381008028771e-001

1.86606598307361e+004,-1.67034389527876e+001,-4.34360944354946e-001

1.89211529345119e+004,-1.67034404462748e+001,-4.40424355795890e-001

1.91852823865052e+004,-1.67034419817471e+001,-4.46572407548918e-001

1.94530989482457e+004,-1.67034435603846e+001,-4.52806281074499e-001

1.97246540898671e+004,-1.67034451834006e+001,-4.59127174322287e-001

1.99999999999999e+004,-1.67034468520428e+001,-4.65536301960168e-001

2.02791895958005e+004,-1.67034485675936e+001,-4.72034895610933e-001

2.05622765331213e+004,-1.67034503313715e+001,-4.78624204085555e-001

2.08493152168224e+004,-1.67034521447323e+001,-4.85305493623618e-001

2.11403608112276e+004,-1.67034540090698e+001,-4.92080048136483e-001

2.14354692507258e+004,-1.67034559258169e+001,-4.98949169455597e-001

2.17346972505211e+004,-1.67034578964467e+001,-5.05914177580297e-001

2.20381023175322e+004,-1.67034599224738e+001,-5.12976410931965e-001

2.23457427614443e+004,-1.67034620054554e+001,-5.20137226611516e-001

2.26576777059159e+004,-1.67034641469925e+001,-5.27398000658213e-001

2.29739670999406e+004,-1.67034663487309e+001,-5.34760128316967e-001

2.32946717293690e+004,-1.67034686123630e+001,-5.42225024301956e-001

2.36198532285905e+004,-1.67034709396283e+001,-5.49794123073791e-001

2.39495740923785e+004,-1.67034733323156e+001,-5.57468879108760e-001

2.42838976879009e+004,-1.67034757922637e+001,-5.65250767182836e-001

2.46228882668982e+004,-1.67034783213631e+001,-5.73141282652032e-001

2.49666109780322e+004,-1.67034809215577e+001,-5.81141941740276e-001

2.53151318794055e+004,-1.67034835948457e+001,-5.89254281831508e-001

2.56685179512580e+004,-1.67034863432816e+001,-5.97479861762729e-001

2.60268371088386e+004,-1.67034891689777e+001,-6.05820262124351e-001

2.63901582154578e+004,-1.67034920741054e+001,-6.14277085563981e-001

2.67585510957221e+004,-1.67034950608974e+001,-6.22851957092829e-001

2.71320865489533e+004,-1.67034981316490e+001,-6.31546524398975e-001

2.75108363627948e+004,-1.67035012887200e+001,-6.40362458161952e-001

2.78948733270080e+004,-1.67035045345365e+001,-6.49301452374261e-001

2.82842712474618e+004,-1.67035078715930e+001,-6.58365224666551e-001

2.86791049603164e+004,-1.67035113024537e+001,-6.67555516637432e-001

2.90794503464061e+004,-1.67035148297551e+001,-6.76874094186486e-001

2.94853843458219e+004,-1.67035184562077e+001,-6.86322747854141e-001

2.98969849726987e+004,-1.67035221845983e+001,-6.95903293163979e-001

3.03143313302078e+004,-1.67035260177917e+001,-7.05617570973311e-001

3.07375036257601e+004,-1.67035299587335e+001,-7.15467447824198e-001

3.11665831864199e+004,-1.67035340104519e+001,-7.25454816301266e-001

3.16016524745350e+004,-1.67035381760602e+001,-7.35581595397200e-001

3.20427951035848e+004,-1.67035424587591e+001,-7.45849730878526e-001

3.24900958542493e+004,-1.67035468618395e+001,-7.56261195658854e-001

3.29436406907028e+004,-1.67035513886843e+001,-7.66817990179644e-001

3.34035167771346e+004,-1.67035560427719e+001,-7.77522142790065e-001

3.38698124945009e+004,-1.67035608276781e+001,-7.88375710139022e-001

3.43426174575100e+004,-1.67035657470792e+001,-7.99380777569012e-001

3.48220225318448e+004,-1.67035708047548e+001,-8.10539459514879e-001

3.53081198516260e+004,-1.67035760045909e+001,-8.21853899909029e-001

3.58010028371187e+004,-1.67035813505823e+001,-8.33326272593965e-001

3.63007662126863e+004,-1.67035868468362e+001,-8.44958781738111e-001

3.68075060249948e+004,-1.67035924975750e+001,-8.56753662258668e-001

3.73213196614721e+004,-1.67035983071401e+001,-8.68713180248632e-001

3.78423058690237e+004,-1.67036042799944e+001,-8.80839633413538e-001

3.83705647730104e+004,-1.67036104207263e+001,-8.93135351509065e-001

3.89061978964912e+004,-1.67036167340530e+001,-9.05602696790516e-001

3.94493081797342e+004,-1.67036232248245e+001,-9.18244064461563e-001

3.99999999999998e+004,-1.67036298980266e+001,-9.31061883137263e-001

4.05583791916010e+004,-1.67036367587853e+001,-9.44058615306307e-001

4.11245530662425e+004,-1.67036438123705e+001,-9.57236757804460e-001

4.16986304336447e+004,-1.67036510642002e+001,-9.70598842291753e-001

4.22807216224550e+004,-1.67036585198444e+001,-9.84147435737579e-001

4.28709385014515e+004,-1.67036661850297e+001,-9.97885140912870e-001

4.34693945010421e+004,-1.67036740656432e+001,-1.01181459688816e+000

4.40762046350642e+004,-1.67036821677376e+001,-1.02593847953851e+000

4.46914855228886e+004,-1.67036904975352e+001,-1.04025950205620e+000

4.53153554118317e+004,-1.67036990614333e+001,-1.05478041546950e+000

4.59479341998812e+004,-1.67037078660088e+001,-1.06950400917037e+000

4.65893434587380e+004,-1.67037169180229e+001,-1.08443311144756e+000

4.72397064571810e+004,-1.67037262244270e+001,-1.09957059002801e+000

4.78991481847569e+004,-1.67037357923674e+001,-1.11491935262422e+000

4.85677953758016e+004,-1.67037456291911e+001,-1.13048234749330e+000

4.92457765337964e+004,-1.67037557424512e+001,-1.14626256399852e+000

4.99332219560642e+004,-1.67037661399130e+001,-1.16226303318215e+000

5.06302637588109e+004,-1.67037768295595e+001,-1.17848682834514e+000

5.13370359025159e+004,-1.67037878195979e+001,-1.19493706563419e+000

5.20536742176771e+004,-1.67037991184657e+001,-1.21161690463757e+000

5.27803164309155e+004,-1.67038107348371e+001,-1.22852954899030e+000

5.35171021914442e+004,-1.67038226776298e+001,-1.24567824698399e+000

5.42641730979066e+004,-1.67038349560117e+001,-1.26306629219089e+000

5.50216727255895e+004,-1.67038475794079e+001,-1.28069702408982e+000

5.57897466540159e+004,-1.67038605575078e+001,-1.29857382870640e+000

5.65685424949235e+004,-1.67038739002730e+001,-1.31670013925931e+000

5.73582099206328e+004,-1.67038876179442e+001,-1.33507943681501e+000

5.81589006928121e+004,-1.67039017210494e+001,-1.35371525095393e+000

5.89707686916437e+004,-1.67039162204121e+001,-1.37261116044270e+000

5.97939699453972e+004,-1.67039311271592e+001,-1.39177079391845e+000

6.06286626604156e+004,-1.67039464527297e+001,-1.41119783058029e+000

6.14750072515201e+004,-1.67039622088834e+001,-1.43089600089283e+000

6.23331663728396e+004,-1.67039784077099e+001,-1.45086908729495e+000

6.32033049490698e+004,-1.67039950616377e+001,-1.47112092492455e+000

6.40855902071694e+004,-1.67040121834439e+001,-1.49165540234730e+000

6.49801917084985e+004,-1.67040297862637e+001,-1.51247646229885e+000

6.58872813814055e+004,-1.67040478836005e+001,-1.53358810243688e+000

6.68070335542691e+004,-1.67040664893363e+001,-1.55499437610115e+000

6.77396249890018e+004,-1.67040856177422e+001,-1.57669939308720e+000

6.86852349150199e+004,-1.67041052834891e+001,-1.59870732042858e+000

6.96440450636895e+004,-1.67041255016593e+001,-1.62102238319016e+000

7.06162397032520e+004,-1.67041462877576e+001,-1.64364886527212e+000

7.16020056742374e+004,-1.67041676577230e+001,-1.66659111022598e+000

7.26015324253724e+004,-1.67041896279415e+001,-1.68985352207951e+000

7.36150120499896e+004,-1.67042122152577e+001,-1.71344056617661e+000

7.46426393229441e+004,-1.67042354369884e+001,-1.73735677002398e+000

7.56846117380472e+004,-1.67042593109351e+001,-1.76160672415339e+000

7.67411295460207e+004,-1.67042838553980e+001,-1.78619508299313e+000

7.78123957929823e+004,-1.67043090891897e+001,-1.81112656575283e+000

7.88986163594682e+004,-1.67043350316494e+001,-1.83640595731848e+000

7.99999999999995e+004,-1.67043617026579e+001,-1.86203810916283e+000

8.11167583832018e+004,-1.67043891226525e+001,-1.88802794026367e+000

8.22491061324848e+004,-1.67044173126422e+001,-1.91438043803914e+000

8.33972608672892e+004,-1.67044462942245e+001,-1.94110065929224e+000

8.45614432449099e+004,-1.67044760896006e+001,-1.96819373116996e+000

8.57418770029029e+004,-1.67045067215933e+001,-1.99566485213487e+000

8.69387890020841e+004,-1.67045382136638e+001,-2.02351929294904e+000

8.81524092701283e+004,-1.67045705899292e+001,-2.05176239767386e+000

8.93829710457770e+004,-1.67046038751815e+001,-2.08039958467976e+000

9.06307108236633e+004,-1.67046380949057e+001,-2.10943634767192e+000

9.18958683997622e+004,-1.67046732752992e+001,-2.13887825672960e+000

9.31786869174758e+004,-1.67047094432919e+001,-2.16873095935882e+000

9.44794129143618e+004,-1.67047466265664e+001,-2.19900018155813e+000

9.57982963695136e+004,-1.67047848535787e+001,-2.22969172890262e+000

9.71355907516031e+004,-1.67048241535800e+001,-2.26081148763720e+000

9.84915530675926e+004,-1.67048645566387e+001,-2.29236542578799e+000

9.98664439121282e+004,-1.67049060936627e+001,-2.32435959428856e+000

1.01260527517622e+005,-1.67049487964235e+001,-2.35680012811904e+000

1.02674071805032e+005,-1.67049926975792e+001,-2.38969324746247e+000

1.04107348435354e+005,-1.67050378306997e+001,-2.42304525887575e+000

1.05560632861831e+005,-1.67050842302919e+001,-2.45686255647582e+000

1.07034204382888e+005,-1.67051319318255e+001,-2.49115162314225e+000

1.08528346195813e+005,-1.67051809717596e+001,-2.52591903173646e+000

1.10043345451179e+005,-1.67052313875704e+001,-2.56117144633447e+000

1.11579493308032e+005,-1.67052832177790e+001,-2.59691562347919e+000

1.13137084989847e+005,-1.67053365019805e+001,-2.63315841344701e+000

1.14716419841265e+005,-1.67053912808735e+001,-2.66990676153234e+000

1.16317801385624e+005,-1.67054475962909e+001,-2.70716770934799e+000

1.17941537383287e+005,-1.67055054912310e+001,-2.74494839614376e+000

1.19587939890794e+005,-1.67055650098896e+001,-2.78325606014168e+000

1.21257325320831e+005,-1.67056261976930e+001,-2.82209803988955e+000

1.22950014503040e+005,-1.67056891013325e+001,-2.86148177562988e+000

1.24666332745679e+005,-1.67057537687983e+001,-2.90141481069055e+000

1.26406609898139e+005,-1.67058202494162e+001,-2.94190479288962e+000

1.28171180414339e+005,-1.67058885938838e+001,-2.98295947596148e+000

1.29960383416997e+005,-1.67059588543084e+001,-3.02458672099984e+000

1.31774562762811e+005,-1.67060310842457e+001,-3.06679449791961e+000

1.33614067108538e+005,-1.67061053387398e+001,-3.10959088693910e+000

1.35479249978003e+005,-1.67061816743638e+001,-3.15298408007807e+000

1.37370469830040e+005,-1.67062601492620e+001,-3.19698238267964e+000

1.39288090127379e+005,-1.67063408231927e+001,-3.24159421494827e+000

1.41232479406504e+005,-1.67064237575728e+001,-3.28682811350797e+000

1.43204011348474e+005,-1.67065090155230e+001,-3.33269273298166e+000

1.45203064850745e+005,-1.67065966619142e+001,-3.37919684759070e+000

1.47230024099979e+005,-1.67066867634162e+001,-3.42634935277253e+000

1.49285278645888e+005,-1.67067793885456e+001,-3.47415926682229e+000

1.51369223476094e+005,-1.67068746077173e+001,-3.52263573255185e+000

1.53482259092041e+005,-1.67069724932960e+001,-3.57178801897211e+000

1.55624791585964e+005,-1.67070731196488e+001,-3.62162552299606e+000

1.57797232718936e+005,-1.67071765632006e+001,-3.67215777116183e+000

1.59999999999999e+005,-1.67072829024897e+001,-3.72339442137945e+000

1.62233516766403e+005,-1.67073922182249e+001,-3.77534526469802e+000

1.64498212264969e+005,-1.67075045933452e+001,-3.82802022709509e+000

1.66794521734578e+005,-1.67076201130796e+001,-3.88142937128843e+000

1.69122886489819e+005,-1.67077388650100e+001,-3.93558289857096e+000

1.71483754005805e+005,-1.67078609391340e+001,-3.99049115066589e+000

1.73877578004168e+005,-1.67079864279311e+001,-4.04616461160817e+000

1.76304818540256e+005,-1.67081154264294e+001,-4.10261390964574e+000

1.78765942091554e+005,-1.67082480322741e+001,-4.15984981916651e+000

1.81261421647326e+005,-1.67083843457991e+001,-4.21788326264629e+000

1.83791736799524e+005,-1.67085244700982e+001,-4.27672531262297e+000

1.86357373834951e+005,-1.67086685111005e+001,-4.33638719369257e+000

1.88958825828723e+005,-1.67088165776458e+001,-4.39688028452994e+000

1.91596592739027e+005,-1.67089687815631e+001,-4.45821611993390e+000

1.94271181503206e+005,-1.67091252377509e+001,-4.52040639289600e+000

1.96983106135185e+005,-1.67092860642593e+001,-4.58346295669516e+000

1.99732887824256e+005,-1.67094513823739e+001,-4.64739782701553e+000

2.02521055035243e+005,-1.67096213167030e+001,-4.71222318409025e+000

2.05348143610063e+005,-1.67097959952656e+001,-4.77795137487035e+000

2.08214696870707e+005,-1.67099755495827e+001,-4.84459491521806e+000

2.11121265723661e+005,-1.67101601147700e+001,-4.91216649212668e+000

2.14068408765776e+005,-1.67103498296340e+001,-4.98067896596545e+000

2.17056692391625e+005,-1.67105448367694e+001,-5.05014537275033e+000

2.20086690902357e+005,-1.67107452826594e+001,-5.12057892644032e+000

2.23158986616063e+005,-1.67109513177791e+001,-5.19199302126107e+000

2.26274169979693e+005,-1.67111630967003e+001,-5.26440123405336e+000

2.29432839682530e+005,-1.67113807781997e+001,-5.33781732664874e+000

2.32635602771247e+005,-1.67116045253696e+001,-5.41225524827191e+000

2.35883074766574e+005,-1.67118345057310e+001,-5.48772913796879e+000

2.39175879781588e+005,-1.67120708913503e+001,-5.56425332706303e+000

2.42514650641661e+005,-1.67123138589575e+001,-5.64184234163783e+000

2.45900029006080e+005,-1.67125635900688e+001,-5.72051090504596e+000

2.49332665491357e+005,-1.67128202711108e+001,-5.80027394044629e+000

2.52813219796278e+005,-1.67130840935486e+001,-5.88114657336857e+000

2.56342360828676e+005,-1.67133552540167e+001,-5.96314413430433e+000

2.59920766833993e+005,-1.67136339544530e+001,-6.04628216132676e+000

2.63549125525621e+005,-1.67139204022359e+001,-6.13057640273701e+000

2.67228134217075e+005,-1.67142148103248e+001,-6.21604281973852e+000

2.70958499956006e+005,-1.67145173974038e+001,-6.30269758914027e+000

2.74740939660078e+005,-1.67148283880290e+001,-6.39055710608643e+000

2.78576180254757e+005,-1.67151480127791e+001,-6.47963798681424e+000

2.82464958813007e+005,-1.67154765084093e+001,-6.56995707144119e+000

2.86408022696948e+005,-1.67158141180091e+001,-6.66153142677883e+000

2.90406129701488e+005,-1.67161610911637e+001,-6.75437834917522e+000

2.94460048199957e+005,-1.67165176841189e+001,-6.84851536738584e+000

2.98570557291775e+005,-1.67168841599499e+001,-6.94396024547294e+000

3.02738446952187e+005,-1.67172607887341e+001,-7.04073098573205e+000

3.06964518184081e+005,-1.67176478477275e+001,-7.13884583164820e+000

3.11249583171928e+005,-1.67180456215450e+001,-7.23832327087964e+000

3.15594465437872e+005,-1.67184544023457e+001,-7.33918203826977e+000

3.19999999999997e+005,-1.67188744900206e+001,-7.44144111888850e+000

3.24467033532806e+005,-1.67193061923865e+001,-7.54511975110019e+000

3.28996424529938e+005,-1.67197498253820e+001,-7.65023742966203e+000

3.33589043469155e+005,-1.67202057132702e+001,-7.75681390884836e+000

3.38245772979638e+005,-1.67206741888434e+001,-7.86486920560603e+000

3.42967508011610e+005,-1.67211555936340e+001,-7.97442360273557e+000

3.47755156008335e+005,-1.67216502781295e+001,-8.08549765210219e+000

3.52609637080511e+005,-1.67221586019914e+001,-8.19811217787394e+000

3.57531884183106e+005,-1.67226809342799e+001,-8.31228827978891e+000

3.62522843294651e+005,-1.67232176536823e+001,-8.42804733644988e+000

3.67583473599047e+005,-1.67237691487473e+001,-8.54541100864739e+000

3.72714747669902e+005,-1.67243358181228e+001,-8.66440124271083e+000

3.77917651657445e+005,-1.67249180708006e+001,-8.78504027388637e+000

3.83193185478053e+005,-1.67255163263641e+001,-8.90735062974479e+000

3.88542363006410e+005,-1.67261310152424e+001,-9.03135513361500e+000

3.93966212270369e+005,-1.67267625789697e+001,-9.15707690804573e+000

3.99465775648511e+005,-1.67274114704490e+001,-9.28453937829606e+000

4.05042110070485e+005,-1.67280781542218e+001,-9.41376627585114e+000

4.10696287220124e+005,-1.67287631067437e+001,-9.54478164196734e+000

4.16429393741414e+005,-1.67294668166644e+001,-9.67760983124306e+000

4.22242531447321e+005,-1.67301897851141e+001,-9.81227551521730e+000

4.28136817531551e+005,-1.67309325259957e+001,-9.94880368599533e+000

4.34113384783250e+005,-1.67316955662819e+001,-1.00872196599008e+001

4.40173381804713e+005,-1.67324794463189e+001,-1.02275490811543e+001

4.46317973232124e+005,-1.67332847201363e+001,-1.03698179255792e+001

4.52548339959385e+005,-1.67341119557618e+001,-1.05140525043330e+001

4.58865679365059e+005,-1.67349617355434e+001,-1.06602794676655e+001

4.65271205542494e+005,-1.67358346564771e+001,-1.08085258087025e+001

4.71766149533147e+005,-1.67367313305406e+001,-1.09588188672558e+001

4.78351759563174e+005,-1.67376523850345e+001,-1.11111863336582e+001

4.85029301283321e+005,-1.67385984629289e+001,-1.12656562526246e+001

4.91800058012158e+005,-1.67395702232173e+001,-1.14222570271380e+001

4.98665330982714e+005,-1.67405683412770e+001,-1.15810174223600e+001

5.05626439592555e+005,-1.67415935092361e+001,-1.17419665695675e+001

5.12684721657352e+005,-1.67426464363480e+001,-1.19051339701117e+001

5.19841533667984e+005,-1.67437278493725e+001,-1.20705494994034e+001

5.27098251051240e+005,-1.67448384929646e+001,-1.22382434109210e+001

5.34456268434150e+005,-1.67459791300700e+001,-1.24082463402420e+001

5.41916999912011e+005,-1.67471505423286e+001,-1.25805893090986e+001

